#Acq. time (s)=	30
#Accumulations=	2
#Range (cm-¹)=	3200...3799
#Windows=	2
#Auto scanning=	Off
#Autofocus=	Off
#Macrospot=	Off
#AutoExposure=	Off
#Spike filter=	Multiple accum.
#Delay time (s)=	2
#Binning=	1
#Readout mode=	Signal
#DeNoise=	Off
#ICS correction=	On
#Dark correction=	Off
#Inst. Process=	Off
#Detector Gain=	Best Dynamic
#Detector ADC=	50 kHz HS
#Detector temperature (°C)=	-60.09
#Instrument=	LabRAM HR Evol
#Detector=	SIN-EM FIVIS
#Objective=	x100_VIS_LWD
#Grating=	1800 (450-850nm)
#ND Filter=	100%
#Laser=	532nm_Edge
#Hole=	100.021
#Temperature=	0
#Range=	Visible
#StageXY=	75x50mm Scan+
#StageZ=	Z motor
#X (µm)=	0
#Y (µm)=	0
#Z (µm)=	-10.3
#Full time(mm:ss)=	2:17
#Project=	21_11_26
#Sample=	BU02Aw
#Site=	
#Title=	BU02aW-A-FF1-host_1800 (450-850nm)_532nm_Edge_100%_x100_VIS_LWD_H100um_30sX2
#Remark=	
#Date=	26.11.2021 10:44
#Acquired=	26.11.2021 10:44:29
#Base:Fit=	16.12.2021 16:15:35
#Base:Clear=	16.12.2021 16:20:23
#Base:Edit=	16.12.2021 16:20:25
#Base:Edit=	16.12.2021 16:20:26
#Base:Edit=	16.12.2021 16:20:27
#Base:Edit=	16.12.2021 16:20:28
#Base:Edit=	16.12.2021 16:20:29
#Base:Edit=	16.12.2021 16:20:30
#Base:Edit=	16.12.2021 16:20:32
#Base:Edit=	16.12.2021 16:20:33
#Base:Edit=	16.12.2021 16:20:34
#Base:Sub=	16.12.2021 16:20:36
3200.06	21.1351
3200.26	11.8036
3200.47	10.1448
3200.67	10.4045
3200.88	3.02863
3201.08	2.35928
3201.29	8.39777
3201.49	9.65216
3201.7	3.27512
3201.9	17.9823
3202.11	3.98605
3202.31	16.7631
3202.52	9.37592
3202.72	18.2731
3202.93	3.2103
3203.14	-1.32925
3203.34	13.3272
3203.54	19.3618
3203.75	8.14743
3203.95	0.778931
3204.16	-0.837677
3204.37	4.2627
3204.57	9.36533
3204.77	-14.2329
3204.98	6.18204
3205.19	10.3429
3205.39	4.99365
3205.59	2.57269
3205.8	-11.3187
3206	8.26752
3206.21	5.8175
3206.42	6.241
3206.62	-0.0693665
3206.82	-3.52737
3207.03	-6.97507
3207.24	0.112488
3207.44	9.14252
3207.64	6.69687
3207.85	-12.9608
3208.05	0.90155
3208.26	3.28702
3208.46	7.55908
3208.67	-9.22488
3208.87	-3.91632
3209.08	-12.0193
3209.28	-12.4999
3209.49	9.01709
3209.69	-18.347
3209.9	-12.2091
3210.1	-1.31027
3210.31	6.70215
3210.51	1.32388
3210.72	-0.298584
3210.92	7.74857
3211.13	-10.924
3211.33	-9.45679
3211.54	-7.01657
3211.74	13.5871
3211.94	0.719055
3212.15	-7.36176
3212.35	-0.139862
3212.56	7.06659
3212.76	4.71634
3212.97	14.8052
3213.17	-10.5152
3213.38	-4.25754
3213.58	-2.77682
3213.79	5.39941
3213.99	-12.3172
3214.2	-9.88605
3214.4	7.84985
3214.61	-8.73154
3214.81	-0.482086
3215.01	-3.65262
3215.22	-1.1452
3215.42	9.89667
3215.63	9.39447
3215.83	3.16907
3216.04	-3.10791
3216.24	3.08484
3216.45	11.1415
3216.65	10.6749
3216.86	-12.2162
3217.06	2.88446
3217.26	1.75244
3217.47	-7.38672
3217.67	-0.225098
3217.88	-3.66876
3218.08	13.4728
3218.29	-7.9386
3218.49	12.0562
3218.7	11.9049
3218.9	-0.14093
3219.1	14.9301
3219.31	-6.50311
3219.51	3.13153
3219.72	0.763123
3219.92	2.13501
3220.13	14.0976
3220.33	0.325684
3220.53	20.0797
3220.74	29.3442
3220.94	15.6988
3221.15	22.1655
3221.35	21.001
3221.56	2.62457
3221.76	0.534424
3221.97	2.26013
3222.17	8.7326
3222.37	16.1378
3222.58	16.8028
3222.78	24.1259
3222.99	29.4845
3223.19	10.9034
3223.4	16.2812
3223.6	12.0859
3223.8	28.9573
3224.01	0.811096
3224.21	0.433899
3224.42	20.1884
3224.62	22.7727
3224.82	31.1802
3225.03	42.5565
3225.23	10.9316
3225.44	1.27393
3225.64	39.4443
3225.85	27.8625
3226.05	30.7197
3226.25	32.7197
3226.46	10.5917
3226.66	33.2958
3226.86	51.8586
3227.07	30.5453
3227.27	26.8707
3227.48	30.3702
3227.68	40.2783
3227.88	48.1232
3228.09	57.4625
3228.29	65.5685
3228.5	26.711
3228.7	29.7382
3228.91	47.4791
3229.11	31.4771
3229.31	43.3826
3229.52	57.3729
3229.72	31.367
3229.92	49.5238
3230.13	49.1124
3230.33	55.1993
3230.54	28.7846
3230.74	72.6288
3230.94	51.3823
3231.15	53.5181
3231.35	51.3218
3231.56	76.5998
3231.76	46.4199
3231.96	51.1265
3232.17	71.396
3232.37	71.3151
3232.57	56.5042
3232.78	81.1438
3232.98	84.6992
3233.19	71.9598
3233.39	94.7187
3233.59	48.4144
3233.8	68.3222
3234	104.557
3234.2	86.1217
3234.41	82.0775
3234.61	77.0771
3234.82	74.9504
3235.02	70.88
3235.22	81.2059
3235.43	79.1357
3235.63	71.3101
3235.83	100.817
3236.04	99.5764
3236.24	93.4791
3236.45	101.756
3236.65	104.256
3236.85	122.1
3237.06	107.331
3237.26	66.6549
3237.46	119.038
3237.67	94.7898
3237.87	102.225
3238.08	122.126
3238.28	106.535
3238.48	147.663
3238.69	121.767
3238.89	127.449
3239.09	132.151
3239.3	119.549
3239.5	149.141
3239.7	115.221
3239.91	133.164
3240.11	125.268
3240.31	164.319
3240.52	150.625
3240.72	146.569
3240.92	128.145
3241.13	142.371
3241.33	158.52
3241.53	144.914
3241.74	147.551
3241.94	125.197
3242.15	149.899
3242.35	158.332
3242.55	121.676
3242.75	131.018
3242.96	148.962
3243.16	158.234
3243.36	146.403
3243.57	150.879
3243.77	162.058
3243.98	161.678
3244.18	166.039
3244.38	180.054
3244.58	170.325
3244.79	154.65
3244.99	165.777
3245.19	174.04
3245.4	171.445
3245.6	183.686
3245.81	169.071
3246.01	168.277
3246.21	192.513
3246.41	189.597
3246.62	172.347
3246.82	210.967
3247.02	191.896
3247.23	195.785
3247.43	219.811
3247.63	208.252
3247.84	181.273
3248.04	192.716
3248.24	220.491
3248.45	211.682
3248.65	217.154
3248.85	227.981
3249.06	223.74
3249.26	242.532
3249.46	196.015
3249.66	218.671
3249.87	238.434
3250.07	207.363
3250.27	238.794
3250.48	226.193
3250.68	205.034
3250.88	230.054
3251.09	228.291
3251.29	254.344
3251.49	230.366
3251.69	259.199
3251.9	232.195
3252.1	253.233
3252.3	229.964
3252.51	235.511
3252.71	252.572
3252.91	270.535
3253.12	230.756
3253.32	251.547
3253.52	278.064
3253.72	287.278
3253.93	244.645
3254.13	261.64
3254.33	287.31
3254.54	273.62
3254.74	267.69
3254.94	280.099
3255.14	262.7
3255.35	276.006
3255.55	292.136
3255.75	288.025
3255.96	271.3
3256.16	299.866
3256.36	276.663
3256.56	252.522
3256.77	276.489
3256.97	285.084
3257.17	304.279
3257.38	282.136
3257.58	280.201
3257.78	299.456
3257.98	296.565
3258.19	295.516
3258.39	307.023
3258.59	291.597
3258.79	321.439
3259	284.711
3259.2	316.345
3259.4	330.286
3259.61	354.132
3259.81	322.382
3260.01	312.574
3260.21	313.307
3260.42	311.676
3260.62	316.546
3260.82	340.921
3261.02	348.664
3261.23	326.347
3261.43	318.308
3261.63	334.106
3261.83	295.28
3262.04	345.987
3262.24	354.378
3262.44	344.488
3262.64	326.958
3262.85	333.57
3263.05	345.067
3263.25	345.038
3263.45	351.727
3263.66	342.971
3263.86	359.414
3264.06	378.724
3264.26	366.21
3264.47	375.815
3264.67	321.749
3264.87	375.579
3265.07	380.21
3265.28	371.324
3265.48	368.185
3265.68	344.744
3265.88	349.1
3266.08	354.271
3266.29	383.487
3266.49	358.873
3266.69	384.34
3266.89	372.299
3267.1	386.289
3267.3	377.275
3267.5	334.653
3267.7	379.65
3267.91	382.363
3268.11	365.882
3268.31	363.878
3268.51	365.74
3268.72	409.927
3268.92	383.843
3269.12	336.615
3269.32	384.7
3269.53	374.974
3269.73	363.23
3269.93	389.912
3270.13	376.175
3270.33	359.593
3270.54	374.713
3270.74	385.891
3270.94	414.381
3271.14	400.52
3271.34	358.734
3271.55	372.79
3271.75	384.898
3271.95	399.877
3272.15	387.94
3272.35	403.068
3272.56	384.648
3272.76	381.47
3272.96	365.622
3273.16	426.665
3273.36	391.512
3273.57	380.37
3273.77	371.28
3273.97	359.23
3274.17	390.228
3274.38	386.883
3274.58	412.704
3274.78	384.351
3274.98	403.245
3275.18	406.845
3275.39	385.898
3275.59	422.958
3275.79	399.724
3275.99	432.005
3276.19	375.111
3276.39	424.873
3276.6	397.715
3276.8	386.97
3277	415.706
3277.2	380.883
3277.4	358.539
3277.61	406.431
3277.81	388.796
3278.01	406.764
3278.21	419.885
3278.41	391.613
3278.62	402.799
3278.82	420.673
3279.02	405.835
3279.22	415.077
3279.42	395.487
3279.62	356.733
3279.83	394.968
3280.03	376.446
3280.23	411.774
3280.43	377.908
3280.63	403.874
3280.83	380.708
3281.04	389.268
3281.24	385.208
3281.44	380.123
3281.64	399.179
3281.84	386.481
3282.05	367.066
3282.25	375.521
3282.45	420.046
3282.65	378.618
3282.85	377.101
3283.05	370.83
3283.26	386.65
3283.46	370.649
3283.66	385.071
3283.86	363.705
3284.06	391.011
3284.26	369.33
3284.47	382.478
3284.67	347.732
3284.87	396.564
3285.07	373.925
3285.27	384.729
3285.47	385.771
3285.67	367.654
3285.88	386.004
3286.08	369.611
3286.28	394.613
3286.48	358.859
3286.68	355.773
3286.88	369.929
3287.09	390.778
3287.29	386.604
3287.49	354.44
3287.69	351.231
3287.89	346.994
3288.09	358.082
3288.29	354.701
3288.49	373.487
3288.7	381.753
3288.9	360.265
3289.1	330.141
3289.3	356.768
3289.5	388.096
3289.7	344.446
3289.9	347.809
3290.11	363.605
3290.31	378.319
3290.51	357.972
3290.71	350
3290.91	351.956
3291.11	340.804
3291.31	354.843
3291.52	331.277
3291.72	320.725
3291.92	369.523
3292.12	326.953
3292.32	315.618
3292.52	292.375
3292.72	327.813
3292.92	351.625
3293.12	341.788
3293.33	346.617
3293.53	324.24
3293.73	334.544
3293.93	320.761
3294.13	350.266
3294.33	328.732
3294.53	349.514
3294.73	335.599
3294.94	311.116
3295.14	329.056
3295.34	303.841
3295.54	307.529
3295.74	323.127
3295.94	310.472
3296.14	313.231
3296.34	317.912
3296.54	326.482
3296.75	320.679
3296.95	321.719
3297.15	326.386
3297.35	334.858
3297.55	306.689
3297.75	315.266
3297.95	283.951
3298.15	285.306
3298.35	278.883
3298.55	335.875
3298.76	295.626
3298.96	307.508
3299.16	284.013
3299.36	305.862
3299.56	305.645
3299.76	289.257
3299.96	303.738
3300.16	289.047
3300.36	291.622
3300.56	260.424
3300.76	272.345
3300.96	286.937
3301.17	278.454
3301.37	291.687
3301.57	269.382
3301.77	281.482
3301.97	271.616
3302.17	258.014
3302.37	263.029
3302.57	245.544
3302.77	258.667
3302.97	257.942
3303.17	270.531
3303.37	248.724
3303.58	284.542
3303.78	217.363
3303.98	255.347
3304.18	247.076
3304.38	269.274
3304.58	250.548
3304.78	225.788
3304.98	226.003
3305.18	229.067
3305.38	209.144
3305.58	238.36
3305.78	233.29
3305.98	235.931
3306.18	225.021
3306.39	217.954
3306.59	214.738
3306.79	222.119
3306.99	229.536
3307.19	209.356
3307.39	197.748
3307.59	195.544
3307.79	223.023
3307.99	210.098
3308.19	201.039
3308.39	198.665
3308.59	194.28
3308.79	180.147
3308.99	196.741
3309.19	201.968
3309.39	161.369
3309.59	183.078
3309.79	206.689
3309.99	214.028
3310.2	186.942
3310.4	186.798
3310.6	157.911
3310.8	153.895
3311	156.624
3311.2	186.151
3311.4	180.145
3311.6	163.59
3311.8	161.435
3312	187.131
3312.2	156.363
3312.4	164.695
3312.6	145.985
3312.8	168.072
3313	148.206
3313.2	162.688
3313.4	148.971
3313.6	128.299
3313.8	147.627
3314	141.397
3314.2	131.282
3314.4	109.798
3314.6	140.21
3314.8	124.657
3315	136.124
3315.2	142.215
3315.4	142.283
3315.6	130.754
3315.81	124.508
3316.01	136.619
3316.21	132.369
3316.41	117.543
3316.61	138.995
3316.81	111.109
3317.01	103.226
3317.21	110.698
3317.41	98.5201
3317.61	108.716
3317.81	104.533
3318.01	97.5044
3318.21	107.726
3318.41	114.131
3318.61	140.599
3318.81	128.571
3319.01	106.418
3319.21	125.508
3319.41	101.554
3319.61	104.449
3319.81	100.717
3320.01	113.389
3320.21	68.4747
3320.41	84.816
3320.61	91.5662
3320.81	60.946
3321.01	88.7751
3321.21	60.0345
3321.41	63.6932
3321.61	81.5345
3321.81	103.838
3322.01	69.4633
3322.21	56.4543
3322.41	56.9741
3322.61	65.1051
3322.81	70.5505
3323.01	90.6417
3323.21	98.6385
3323.41	30.4824
3323.61	72.5582
3323.81	80.2634
3324.01	80.8511
3324.21	41.335
3324.41	41.1432
3324.61	84.8861
3324.81	50.9069
3325.01	57.9661
3325.21	61.0802
3325.41	76.5232
3325.61	65.6393
3325.81	47.9777
3326.01	57.0155
3326.21	58.2603
3326.41	26.9688
3326.61	66.5718
3326.8	21.5787
3327	24.1991
3327.2	29.918
3327.4	36.8616
3327.6	55.3468
3327.8	64.1492
3328	37.5641
3328.2	44.4188
3328.4	10.9041
3328.6	61.604
3328.8	33.7629
3329	45.1299
3329.2	33.5145
3329.4	34.264
3329.6	21.4462
3329.8	11.2922
3330	27.9368
3330.2	23.7201
3330.4	22.4905
3330.6	24.09
3330.8	-7.79932
3331	37.845
3331.2	19.7292
3331.4	24.636
3331.6	34.405
3331.8	8.84644
3331.99	47.2268
3332.19	27.0394
3332.39	-4.51941
3332.59	14.6658
3332.79	27.1331
3332.99	20.4556
3333.19	8.05066
3333.39	25.2891
3333.59	20.5236
3333.79	26.2629
3333.99	0.43042
3334.19	-17.8112
3334.39	11.7461
3334.59	29.856
3334.79	-4.60266
3334.99	-2.8053
3335.19	-20.1859
3335.39	25.4429
3335.58	8.86462
3335.78	24.7687
3335.98	4.55469
3336.18	4.45972
3336.38	-3.21765
3336.58	17.605
3336.78	12.8271
3336.98	-13.881
3337.18	20.7838
3337.38	9.84009
3337.58	6.23071
3337.78	-21.3661
3337.98	-15.7332
3338.18	6.00525
3338.37	-12.467
3338.57	-10.9454
3338.77	28.6547
3338.97	0.397461
3339.17	-10.4535
3339.37	-6.03125
3339.57	20.3433
3339.77	-14.0481
3339.97	-7.39563
3340.17	-25.5092
3340.37	-13.1158
3340.57	-0.722656
3340.77	28.8353
3340.97	-31.2365
3341.16	-9.31348
3341.36	-5.52319
3341.56	-8.40002
3341.76	23.0488
3341.96	-5.57605
3342.16	-2.78418
3342.36	-15.3649
3342.56	-3.21545
3342.76	-2.34106
3342.96	-5.23218
3343.15	-15.7181
3343.35	-11.9131
3343.55	-8.0498
3343.75	21.5682
3343.95	-0.196167
3344.15	-27.6711
3344.35	29.3468
3344.55	-1.22449
3344.75	10.0037
3344.95	11.9026
3345.14	11.9891
3345.34	26.4556
3345.54	-2.8855
3345.74	5.76074
3345.94	-2.79797
3346.14	33.4136
3346.34	4.08606
3346.54	-7.29272
3346.74	14.5278
3346.93	17.1989
3347.13	-6.79285
3347.33	6.4917
3347.53	-14.5399
3347.73	-9.83899
3347.93	19.6382
3348.13	-3.1062
3348.33	5.59106
3348.53	4.85413
3348.72	-2.43445
3348.92	5.5708
3349.12	25.9955
3349.32	9.29651
3349.52	-0.818848
3349.72	13.7997
3349.92	40.8289
3350.12	-0.698853
3350.31	32.9404
3350.51	7.4812
3350.71	8.6311
3350.91	13.5465
3351.11	0.333862
3351.31	47.0574
3351.51	20.4305
3351.71	19.4708
3351.9	40.4362
3352.1	62.468
3352.3	23.6935
3352.5	68.6638
3352.7	-5.38245
3352.9	29.9155
3353.1	13.7566
3353.29	44.246
3353.49	64.3251
3353.69	49.2627
3353.89	18.0693
3354.09	56.3208
3354.29	32.7322
3354.49	34.8334
3354.68	36.9348
3354.88	16.2036
3355.08	45.89
3355.28	30.8773
3355.48	34.8922
3355.68	27.5264
3355.88	15.4288
3356.07	35.7419
3356.27	59.8102
3356.47	25.8555
3356.67	63.4
3356.87	54.3832
3357.07	60.5946
3357.26	65.8087
3357.46	83.3512
3357.66	85.6165
3357.86	108.771
3358.06	34.6826
3358.26	55.7104
3358.45	72.8551
3358.65	73.7317
3358.85	64.2192
3359.05	46.3121
3359.25	70.3412
3359.45	59.1882
3359.65	62.3179
3359.84	69.3088
3360.04	76.3406
3360.24	65.353
3360.44	72.4834
3360.64	57.7314
3360.83	57.276
3361.03	92.0146
3361.23	94.3732
3361.43	88.1689
3361.63	101.016
3361.83	79.5768
3362.02	77.1906
3362.22	64.5275
3362.42	62.1858
3362.62	90.1846
3362.82	79.028
3363.02	102.19
3363.21	72.9294
3363.41	104.645
3363.61	96.2875
3363.81	99.3292
3364.01	101.368
3364.2	107.215
3364.4	62.5872
3364.6	105.646
3364.8	114.786
3365	103.728
3365.19	78.595
3365.39	99.7968
3365.59	106.433
3365.79	119.111
3365.99	92.8102
3366.18	99.869
3366.38	97.4629
3366.58	115.1
3366.78	110.892
3366.98	96.2638
3367.18	96.8857
3367.37	106.993
3367.57	101.58
3367.77	128.292
3367.97	127.669
3368.16	105.28
3368.36	105.758
3368.56	105.275
3368.76	90.4677
3368.96	94.6987
3369.15	134.172
3369.35	132.6
3369.55	119.589
3369.75	64.6678
3369.95	124.143
3370.14	112.195
3370.34	105.045
3370.54	93.1688
3370.74	135.651
3370.93	158.077
3371.13	125.106
3371.33	118.777
3371.53	132.491
3371.73	131.136
3371.93	109.92
3372.12	103.147
3372.32	135.337
3372.52	124.466
3372.72	143.153
3372.91	128.596
3373.11	117.79
3373.31	111.634
3373.51	105.394
3373.7	112.392
3373.9	136.418
3374.1	108.866
3374.3	136.725
3374.5	97.7568
3374.69	88.3264
3374.89	130.348
3375.09	136.556
3375.28	161.304
3375.48	123.801
3375.68	122.488
3375.88	139.282
3376.08	117.983
3376.27	128.148
3376.47	112.629
3376.67	100.975
3376.87	143.67
3377.06	91.0161
3377.26	126.966
3377.46	143.856
3377.66	148.352
3377.85	90.7451
3378.05	124.557
3378.25	127.813
3378.45	124.373
3378.64	140.97
3378.84	103.463
3379.04	109.85
3379.24	81.9733
3379.43	67.4786
3379.63	122.63
3379.83	104.264
3380.03	102.095
3380.22	126.635
3380.42	135.898
3380.62	118.432
3380.82	109.522
3381.01	103.438
3381.21	121.18
3381.41	136.977
3381.61	136.544
3381.8	103.652
3382	126.086
3382.2	102.744
3382.39	90.8107
3382.59	119.821
3382.79	120.41
3382.99	100.22
3383.18	125.969
3383.38	99.3815
3383.58	124.295
3383.78	108.087
3383.97	116.715
3384.17	98.6381
3384.37	121.845
3384.56	112.343
3384.76	127.25
3384.96	130.562
3385.16	95.3318
3385.35	138.886
3385.55	124.879
3385.75	118.613
3385.95	116.221
3386.14	114.828
3386.34	119.192
3386.54	92.1573
3386.73	114.826
3386.93	89.9294
3387.13	106.862
3387.33	110.368
3387.52	92.9218
3387.72	142.667
3387.92	153.462
3388.11	108.717
3388.31	132.746
3388.51	128.699
3388.71	103.578
3388.9	142.103
3389.1	120.643
3389.3	82.4015
3389.49	134.647
3389.69	133.508
3389.89	136.91
3390.08	108.506
3390.28	133.973
3390.48	105.542
3390.68	129.514
3390.87	113.536
3391.07	67.8634
3391.27	129.32
3391.46	146.215
3391.66	90.868
3391.86	137.601
3392.05	130.647
3392.25	121.384
3392.45	136.932
3392.64	162.972
3392.84	124.377
3393.04	136.107
3393.24	121.736
3393.43	104.82
3393.63	127.664
3393.83	132.982
3394.02	114.95
3394.22	122.81
3394.42	135.623
3394.61	167.686
3394.81	149.958
3395.01	114.157
3395.2	142.548
3395.4	116.547
3395.6	153.897
3395.79	137.926
3395.99	143.451
3396.19	126.004
3396.38	157.885
3396.58	143.761
3396.78	166.972
3396.97	146.995
3397.17	162.62
3397.37	146.494
3397.56	165.853
3397.76	174.516
3397.96	159.547
3398.15	193.958
3398.35	148.212
3398.55	184.885
3398.74	191.881
3398.94	186.056
3399.14	208.152
3399.33	210.73
3399.53	172.28
3399.73	193.748
3399.92	188.158
3400.12	194.213
3400.32	222.172
3400.51	215.633
3400.71	225.537
3400.91	195.75
3401.1	242.212
3401.3	209.115
3401.5	199.864
3401.69	235.06
3401.89	235.868
3402.08	248.348
3402.28	234.139
3402.48	261.158
3402.67	240.425
3402.87	262.639
3403.07	253.274
3403.26	262.657
3403.46	233.972
3403.66	269.147
3403.85	258.258
3404.05	262.39
3404.25	233.406
3404.44	273.551
3404.64	230.812
3404.83	250.244
3405.03	276.894
3405.23	279.426
3405.42	272.806
3405.62	292.826
3405.82	304.485
3406.01	314.103
3406.21	292.898
3406.41	262.314
3406.6	301.514
3406.8	317.366
3406.99	279.639
3407.19	301.161
3407.39	320.569
3407.58	321.646
3407.78	315.132
3407.98	320.672
3408.17	300.498
3408.37	322.379
3408.56	347.381
3408.76	329.88
3408.96	328.955
3409.15	320.11
3409.35	318.127
3409.55	335.676
3409.74	360.914
3409.94	328.431
3410.13	337.263
3410.33	347.053
3410.53	372.211
3410.72	362.776
3410.92	376.391
3411.11	345.81
3411.31	347.835
3411.51	326.513
3411.7	371.524
3411.9	359.899
3412.09	358.017
3412.29	388.92
3412.49	340.15
3412.68	344.329
3412.88	381.261
3413.07	361.599
3413.27	366.009
3413.47	353.093
3413.66	366.994
3413.86	333.686
3414.05	322.461
3414.25	355.458
3414.45	348.007
3414.64	365.568
3414.84	350.008
3415.03	375.998
3415.23	338.546
3415.43	392.551
3415.62	351.338
3415.82	362.106
3416.01	348.869
3416.21	358.771
3416.41	386.073
3416.6	372.144
3416.8	339.135
3416.99	347.142
3417.19	341.506
3417.38	330.924
3417.58	335.809
3417.78	346.757
3417.97	332.777
3418.17	346.673
3418.36	327.753
3418.56	347.13
3418.75	334.851
3418.95	353.515
3419.15	347.41
3419.34	327.456
3419.54	313.516
3419.73	354.49
3419.93	335.734
3420.12	338.165
3420.32	323.215
3420.51	310.151
3420.71	306.606
3420.91	326.86
3421.1	326.888
3421.3	300.079
3421.49	307.109
3421.69	319.97
3421.89	304.919
3422.08	293.785
3422.28	308.819
3422.47	279.603
3422.67	305.404
3422.86	233.903
3423.06	284.685
3423.25	281.267
3423.45	284.405
3423.64	258.826
3423.84	246.855
3424.04	229.001
3424.23	245.731
3424.43	245.031
3424.62	237.531
3424.82	235.814
3425.01	212.91
3425.21	209.296
3425.41	199.787
3425.6	192.423
3425.8	207.391
3425.99	154.999
3426.19	171.234
3426.38	141.685
3426.58	206.348
3426.77	200.634
3426.97	175.436
3427.16	162.344
3427.36	146.318
3427.55	143.716
3427.75	149.478
3427.94	160.744
3428.14	151.453
3428.34	169.331
3428.53	123.053
3428.73	124.621
3428.92	112.309
3429.12	146.001
3429.31	142.07
3429.51	125.875
3429.7	95.1438
3429.9	95.2496
3430.09	91.4387
3430.29	91.4305
3430.48	57.0382
3430.68	65.8029
3430.87	62.5919
3431.07	57.4039
3431.26	86.0173
3431.46	63.5154
3431.66	120.257
3431.85	72.9138
3432.05	63.2073
3432.24	79.9554
3432.44	57.7694
3432.63	42.5726
3432.83	62.3772
3433.02	37.4534
3433.22	43.6364
3433.41	62.9539
3433.61	23.8037
3433.8	53.3676
3434	43.564
3434.19	54.8281
3434.39	4.16382
3434.58	26.8984
3434.78	39.0402
3434.97	41.5304
3435.17	32.5405
3435.36	26.5469
3435.56	15.6064
3435.75	23.6351
3435.95	21.8929
3436.14	27.118
3436.34	44.8802
3436.53	-1.12
3436.73	15.6582
3436.92	14.0686
3437.12	40.4652
3437.31	31.1531
3437.51	9.3623
3437.7	30.131
3437.9	8.47632
3438.09	15.9498
3438.29	38.3286
3438.48	46.3844
3438.68	23.3114
3438.87	4.89905
3439.07	28.8412
3439.26	46.7865
3439.46	12.535
3439.65	40.1962
3439.85	42.5585
3440.04	15.3855
3440.23	16.3232
3440.43	19.874
3440.62	62.4193
3440.82	17.2999
3441.01	40.6971
3441.21	67.043
3441.4	45.2305
3441.6	36.002
3441.79	58.5356
3441.99	0.232544
3442.18	43.2361
3442.38	45.8781
3442.57	52.3413
3442.77	34.697
3442.96	78.6007
3443.16	87.1414
3443.35	90.907
3443.55	63.2045
3443.74	77.1969
3443.93	88.8251
3444.13	109.208
3444.32	121.764
3444.52	107.598
3444.71	96.7388
3444.91	97.8514
3445.1	143.82
3445.3	120.052
3445.49	143.236
3445.69	127.341
3445.88	116.029
3446.07	131.225
3446.27	136.245
3446.46	139.34
3446.66	184.95
3446.85	175.341
3447.05	218.066
3447.24	192.445
3447.44	170.184
3447.63	199.851
3447.83	180.881
3448.02	198.786
3448.21	174.823
3448.41	203.064
3448.6	239.468
3448.8	256.555
3448.99	260.325
3449.19	294.948
3449.38	265.844
3449.58	293.594
3449.77	305.909
3449.96	283.581
3450.16	319.146
3450.35	328.686
3450.55	335.347
3450.74	338.16
3450.94	331.265
3451.13	361.058
3451.32	360.032
3451.52	405.529
3451.71	401.894
3451.91	400.766
3452.1	413.633
3452.3	414.288
3452.49	451.823
3452.68	487.535
3452.88	445.114
3453.07	446.425
3453.27	455.173
3453.46	505.328
3453.66	480.456
3453.85	494.149
3454.04	530.505
3454.24	536.911
3454.43	590.566
3454.63	568.071
3454.82	596.722
3455.02	628.261
3455.21	592.294
3455.4	607.425
3455.6	626.333
3455.79	654.89
3455.99	641.268
3456.18	708.693
3456.37	667.958
3456.57	728.103
3456.76	677.257
3456.96	754.62
3457.15	724.212
3457.34	799.058
3457.54	762.396
3457.73	776.785
3457.93	822.129
3458.12	855.07
3458.31	873.635
3458.51	911.487
3458.7	855.045
3458.9	915.427
3459.09	963.98
3459.28	950.746
3459.48	974.984
3459.67	1008.87
3459.87	1020.83
3460.06	997.427
3460.25	1109.57
3460.45	1077.37
3460.64	1117.5
3460.84	1110.47
3461.03	1102.85
3461.22	1187.32
3461.42	1101.38
3461.61	1199.4
3461.81	1173.39
3462	1211.95
3462.19	1231.12
3462.39	1255.01
3462.58	1293.44
3462.78	1324.96
3462.97	1334.38
3463.16	1363
3463.36	1363.65
3463.55	1393.96
3463.74	1440.54
3463.94	1420.77
3464.13	1453.13
3464.32	1494.15
3464.52	1497.63
3464.71	1482.76
3464.91	1568.91
3465.1	1588.72
3465.29	1575.86
3465.49	1585.11
3465.68	1618.43
3465.87	1620.97
3466.07	1663.9
3466.26	1677.13
3466.46	1676.09
3466.65	1709.82
3466.84	1750.61
3467.04	1779.29
3467.23	1797.11
3467.42	1817.83
3467.62	1819.36
3467.81	1868.18
3468	1861.52
3468.2	1936.15
3468.39	1962.86
3468.58	1947.99
3468.78	1966.24
3468.97	1982.82
3469.17	2012.02
3469.36	2049.82
3469.55	2054.28
3469.75	2086.49
3469.94	2078.77
3470.13	2105.05
3470.33	2115.13
3470.52	2149.36
3470.71	2145.27
3470.91	2180.49
3471.1	2158.6
3471.3	2240.79
3471.49	2252.81
3471.68	2277.31
3471.88	2286
3472.07	2264.06
3472.26	2287.46
3472.45	2320.3
3472.65	2354.42
3472.84	2343.12
3473.03	2403.74
3473.23	2437.01
3473.42	2387.18
3473.61	2423.2
3473.81	2371.87
3474	2427.22
3474.2	2409.67
3474.39	2460.38
3474.58	2505.1
3474.78	2512.31
3474.97	2464.4
3475.16	2487.94
3475.36	2532.96
3475.55	2556.51
3475.74	2530.17
3475.94	2607.21
3476.13	2548.55
3476.32	2620.02
3476.51	2580.48
3476.71	2625.89
3476.9	2669.8
3477.09	2592.91
3477.29	2612.41
3477.48	2664.18
3477.67	2615.91
3477.87	2719.75
3478.06	2696.1
3478.25	2667.51
3478.45	2631.2
3478.64	2652.15
3478.83	2678.15
3479.03	2685.01
3479.22	2659.38
3479.41	2682.62
3479.6	2645.71
3479.8	2667.23
3479.99	2714.68
3480.18	2732.6
3480.38	2700.61
3480.57	2701.26
3480.76	2732
3480.96	2699.72
3481.15	2714.7
3481.34	2738.12
3481.53	2739.2
3481.73	2695.69
3481.92	2659.92
3482.11	2679.88
3482.31	2746.68
3482.5	2771.33
3482.69	2758.7
3482.89	2753.43
3483.08	2701.93
3483.27	2653.07
3483.46	2757.34
3483.66	2725.47
3483.85	2687.83
3484.04	2603.19
3484.24	2650.73
3484.43	2610.91
3484.62	2694.33
3484.82	2603.6
3485.01	2636.74
3485.2	2571.16
3485.39	2621.16
3485.59	2607.76
3485.78	2663.91
3485.97	2655.95
3486.16	2615.22
3486.36	2536.39
3486.55	2534.08
3486.74	2610.14
3486.94	2533.38
3487.13	2557.89
3487.32	2541.34
3487.51	2527.64
3487.71	2475.7
3487.9	2427.56
3488.09	2513.95
3488.28	2531.64
3488.48	2432.15
3488.67	2421.6
3488.86	2389.03
3489.06	2434.51
3489.25	2393.13
3489.44	2415
3489.63	2364.1
3489.83	2383.03
3490.02	2344.05
3490.21	2357.35
3490.4	2357.36
3490.6	2310.72
3490.79	2329.24
3490.98	2234.03
3491.17	2322.01
3491.37	2312.19
3491.56	2274.59
3491.75	2223.46
3491.94	2269.3
3492.14	2153.39
3492.33	2195
3492.52	2172.78
3492.71	2185.79
3492.91	2152.71
3493.1	2175.04
3493.29	2130.68
3493.49	2146.38
3493.68	2069.62
3493.87	2057.01
3494.06	2061.1
3494.25	2111.34
3494.45	2044.42
3494.64	2023.78
3494.83	2022.92
3495.02	2046.76
3495.22	1993.32
3495.41	1949.39
3495.6	1982.82
3495.79	1954.66
3495.99	1948.85
3496.18	1919.51
3496.37	1899.34
3496.56	1915
3496.76	1892.93
3496.95	1895.75
3497.14	1878.48
3497.33	1870.3
3497.52	1832.59
3497.72	1804.69
3497.91	1797.27
3498.1	1784.54
3498.29	1766.9
3498.49	1799.94
3498.68	1775.18
3498.87	1735.26
3499.06	1742.33
3499.25	1673.82
3499.45	1687.89
3499.64	1696.79
3499.83	1690.71
3500.02	1615.08
3500.22	1661.83
3500.41	1635.71
3500.6	1636.66
3500.79	1598.6
3500.98	1605.01
3501.18	1573.05
3501.37	1561.78
3501.56	1556.33
3501.75	1521.26
3501.95	1529.43
3502.14	1521.68
3502.33	1516.54
3502.52	1474.89
3502.71	1471.3
3502.91	1454.57
3503.1	1430.71
3503.29	1465.89
3503.48	1425.58
3503.67	1417.02
3503.86	1380.01
3504.06	1361.38
3504.25	1356.4
3504.44	1357.96
3504.63	1351.56
3504.82	1315.61
3505.02	1319.42
3505.21	1281.29
3505.4	1291.08
3505.59	1250.58
3505.79	1237.03
3505.98	1233.4
3506.17	1226.29
3506.36	1226.3
3506.55	1194.37
3506.75	1222.6
3506.94	1192.25
3507.13	1150.27
3507.32	1165.4
3507.51	1155.98
3507.7	1148.14
3507.9	1141.38
3508.09	1107.16
3508.28	1094.54
3508.47	1095.92
3508.66	1085.06
3508.85	1073.06
3509.05	1063.98
3509.24	1046.18
3509.43	1037.55
3509.62	1031.36
3509.81	1021.2
3510.01	1003.46
3510.2	1004.26
3510.39	970.917
3510.58	974.341
3510.77	941.092
3510.96	927.936
3511.16	931.844
3511.35	944.158
3511.54	906.392
3511.73	872.421
3511.92	902.665
3512.11	886.741
3512.31	869.122
3512.5	858.806
3512.69	848.597
3512.88	834.796
3513.07	823.12
3513.26	802.806
3513.46	778.942
3513.65	774.456
3513.84	774.87
3514.03	750.772
3514.22	735.614
3514.41	764.183
3514.6	759.589
3514.8	716.681
3514.81	713.377
3515	709.017
3515.2	721.689
3515.39	678.945
3515.59	669.443
3515.78	630.438
3515.98	661.054
3516.17	672.687
3516.36	667.225
3516.56	628.447
3516.75	619.24
3516.95	582.445
3517.14	599.88
3517.34	597.321
3517.53	588.012
3517.72	562.475
3517.92	534.937
3518.11	521.282
3518.31	549.641
3518.5	517.499
3518.7	520.557
3518.89	504.671
3519.08	489.753
3519.28	477.801
3519.47	478.297
3519.67	458.928
3519.86	447.255
3520.05	447.241
3520.25	441.323
3520.44	459.08
3520.64	485.27
3520.83	416.151
3521.02	423.026
3521.22	393.539
3521.41	407.759
3521.61	424.067
3521.8	395.643
3522	377.698
3522.19	365.457
3522.38	347.547
3522.58	349.727
3522.77	330.038
3522.97	334.897
3523.16	339.738
3523.35	338.872
3523.55	326.532
3523.74	318.899
3523.94	331.332
3524.13	284.899
3524.32	287.015
3524.52	271.084
3524.71	274.142
3524.9	301.91
3525.1	273.653
3525.29	250.269
3525.49	254.508
3525.68	263.504
3525.87	204.875
3526.07	202.029
3526.26	242.102
3526.46	229.224
3526.65	214.522
3526.84	236.032
3527.04	184.809
3527.23	185.546
3527.42	208.245
3527.62	198.376
3527.81	189.063
3528.01	181.882
3528.2	186.468
3528.39	160.697
3528.59	155.18
3528.78	164.895
3528.98	129.925
3529.17	161.444
3529.36	136.715
3529.56	147.093
3529.75	137.504
3529.94	133.734
3530.14	118.62
3530.33	137.952
3530.53	104.812
3530.72	116.945
3530.91	109.02
3531.11	105.812
3531.3	117.803
3531.49	98.2529
3531.69	90.0685
3531.88	87.5742
3532.07	102.044
3532.27	69.9093
3532.46	88.2144
3532.66	63.6113
3532.85	56.0979
3533.04	63.826
3533.24	41.1006
3533.43	38.4241
3533.62	69.1265
3533.82	40.8243
3534.01	41.0919
3534.2	32.8068
3534.4	46.4179
3534.59	89.5896
3534.78	41.3454
3534.98	35.9145
3535.17	41.8046
3535.36	44.9125
3535.56	42.3808
3535.75	41.8392
3535.95	35.6437
3536.14	10.1688
3536.33	27.4278
3536.53	34.1757
3536.72	31.4352
3536.91	12.5768
3537.1	27.0583
3537.3	16.737
3537.49	19.649
3537.69	14.8846
3537.88	41.6397
3538.07	-14.2667
3538.27	16.4312
3538.46	19.5114
3538.65	10.0365
3538.84	-6.10254
3539.04	-23.8129
3539.23	8.08344
3539.43	18.0543
3539.62	24.1641
3539.81	16.9101
3540.01	12.4907
3540.2	-0.512146
3540.39	1.71008
3540.58	2.97186
3540.78	1.37769
3540.97	-8.80621
3541.16	5.77209
3541.36	-1.55597
3541.55	-9.74335
3541.74	2.14362
3541.94	-2.19232
3542.13	-14.1898
3542.32	-5.2146
3542.52	17.1061
3542.71	19.3962
3542.9	-4.08716
3543.1	-3.71564
3543.29	-13.9102
3543.48	-9.77002
3543.68	21.1319
3543.87	35.8361
3544.06	7.5495
3544.25	10.748
3544.45	0.543152
3544.64	12.3204
3544.83	21.1956
3545.03	18.6395
3545.22	8.41998
3545.41	-13.3185
3545.61	19.3585
3545.8	7.28357
3545.99	8.78973
3546.19	37.766
3546.38	11.907
3546.57	27.0648
3546.76	14.4946
3546.96	26.079
3547.15	39.752
3547.34	21.9457
3547.54	46.3292
3547.73	24.3099
3547.92	31.8871
3548.11	27.8516
3548.31	42.1661
3548.5	42.4538
3548.69	37.9723
3548.89	30.6006
3549.08	48.0659
3549.27	42.6242
3549.47	40.0501
3549.66	26.9692
3549.85	38.7241
3550.04	50.4714
3550.24	38.2993
3550.43	53.8237
3550.62	54.9788
3550.82	65.6779
3551.01	58.1999
3551.2	67.9221
3551.39	76.679
3551.59	47.1931
3551.78	56.8953
3551.97	58.9552
3552.16	52.4051
3552.36	70.6954
3552.55	77.5084
3552.74	81.4487
3552.94	80.6399
3553.13	81.7866
3553.32	72.4285
3553.51	69.75
3553.71	90.8102
3553.9	89.6239
3554.09	95.3536
3554.29	98.8427
3554.48	102.528
3554.67	123.175
3554.86	107.411
3555.05	80.4535
3555.25	95.3948
3555.44	98.7897
3555.63	117.397
3555.83	103.387
3556.02	131.398
3556.21	83.7799
3556.4	107.873
3556.6	109.955
3556.79	103.398
3556.98	118.834
3557.17	105.56
3557.37	142.988
3557.56	133.533
3557.75	129.818
3557.94	148.094
3558.14	132.893
3558.33	141.599
3558.52	135.962
3558.71	126.501
3558.91	128.545
3559.1	130.569
3559.29	137.347
3559.48	120.217
3559.68	126.044
3559.87	140.539
3560.06	145.518
3560.25	159.152
3560.44	142.249
3560.64	139.738
3560.83	149.658
3561.02	151.923
3561.22	156.995
3561.41	141.897
3561.6	150.641
3561.79	118.12
3561.98	147.771
3562.18	162.063
3562.37	149.526
3562.56	118.765
3562.75	146.303
3562.95	157.465
3563.14	170.447
3563.33	142.449
3563.52	146.21
3563.71	149.366
3563.91	123.953
3564.1	147.539
3564.29	165.578
3564.48	167.033
3564.68	179.132
3564.87	167.166
3565.06	146.108
3565.25	151.795
3565.44	179.521
3565.64	187.28
3565.83	168.422
3566.02	167.949
3566.21	150.137
3566.41	169.154
3566.6	163.289
3566.79	166.13
3566.98	178.58
3567.17	136.488
3567.37	156.552
3567.56	135.328
3567.75	172.132
3567.94	153.643
3568.14	169.391
3568.33	140.693
3568.52	156.901
3568.71	126.896
3568.9	183.982
3569.1	146.991
3569.29	152.272
3569.48	123.572
3569.67	125.231
3569.86	151.294
3570.05	131.624
3570.25	147.921
3570.44	124.07
3570.63	140.46
3570.82	138.653
3571.02	111.934
3571.21	124.498
3571.4	137.087
3571.59	142.092
3571.78	157.917
3571.97	132.753
3572.17	136.93
3572.36	134.854
3572.55	122.033
3572.74	135.218
3572.93	130.216
3573.13	123.642
3573.32	140.262
3573.51	136.397
3573.7	127.28
3573.89	118.812
3574.09	125.66
3574.28	102.86
3574.47	117.388
3574.66	102.356
3574.85	103.572
3575.04	90.9724
3575.24	98.0163
3575.43	94.2722
3575.62	114.509
3575.81	107.878
3576	90.6927
3576.19	91.7316
3576.39	98.5137
3576.58	89.9305
3576.77	69.8276
3576.96	108.234
3577.15	83.3239
3577.35	76.6537
3577.54	77.6645
3577.73	47.9888
3577.92	53.8115
3578.11	65.3978
3578.3	72.2058
3578.49	49.2791
3578.69	81.0884
3578.88	47.595
3579.07	58.1086
3579.26	58.9942
3579.45	46.5755
3579.64	37.1241
3579.83	48.807
3580.03	40.3464
3580.22	49.1666
3580.41	38.7626
3580.6	46.5913
3580.79	46.7332
3580.98	24.7712
3581.18	44.0899
3581.37	16.2099
3581.56	26.4938
3581.75	23.1843
3581.94	37.4019
3582.13	52.7297
3582.33	13.4104
3582.52	-3.85529
3582.71	18.1755
3582.9	18.1173
3583.09	18.0497
3583.28	28.6213
3583.47	-21.8446
3583.67	28.5533
3583.86	14.2048
3584.05	10.4668
3584.24	9.31647
3584.43	21.3163
3584.62	-7.79639
3584.81	5.04468
3585.01	25.4358
3585.2	-15.338
3585.39	5.86359
3585.58	5.7583
3585.77	-5.06885
3585.96	11.463
3586.15	16.2007
3586.34	14.963
3586.54	-22.609
3586.73	-12.5922
3586.92	11.8122
3587.11	-14.2523
3587.3	-7.60059
3587.49	0.0367432
3587.68	9.59406
3587.87	-4.87531
3588.07	-13.5947
3588.26	-20.4312
3588.45	-9.99384
3588.64	5.20502
3588.83	-5.53571
3589.02	8.67371
3589.21	-9.7373
3589.4	-14.6957
3589.59	2.43707
3589.79	-7.22504
3589.98	-22.5666
3590.17	-1.35535
3590.36	-21.277
3590.55	12.5684
3590.74	3.63336
3590.93	-16.8036
3591.12	3.09705
3591.32	-12.327
3591.51	0.335327
3591.7	14.8524
3591.89	2.86554
3592.08	6.22614
3592.27	2.16919
3592.46	-8.5036
3592.65	3.87994
3592.84	-8.62262
3593.03	0.930054
3593.23	-4.84003
3593.42	6.62567
3593.61	6.60022
3593.8	22.8509
3593.99	-14.5761
3594.18	-2.19421
3594.37	10.183
3594.56	10.1261
3594.75	21.5928
3594.94	-1.42755
3595.13	15.8074
3595.32	10.9752
3595.52	4.21381
3595.71	14.7014
3595.9	-1.65369
3596.09	13.6278
3596.28	24.1047
3596.47	6.75366
3596.66	22.9323
3596.85	25.6567
3597.04	11.0928
3597.23	6.10107
3597.43	23.153
3597.62	21.0291
3597.81	7.41321
3598	35.9727
3598.19	35.8073
3598.38	34.7135
3598.57	29.7981
3598.76	26.8088
3598.95	29.5801
3599.14	38.0724
3599.33	38.9001
3599.52	26.2885
3599.71	16.5195
3599.9	32.566
3600.1	39.9835
3600.29	47.3843
3600.48	40.5055
3600.67	52.8961
3600.86	35.7151
3601.05	48.1848
3601.24	41.2242
3601.43	46.5549
3601.62	48.2099
3601.81	31.7263
3602	53.3899
3602.19	34.7036
3602.38	52.1746
3602.57	57.691
3602.76	57.7667
3602.95	54.8897
3603.15	47.1578
3603.34	57.5807
3603.53	44.0054
3603.72	59.207
3603.91	70.584
3604.1	70.5554
3604.29	45.6302
3604.48	60.0806
3604.67	50.3294
3604.86	53.7662
3605.05	82.8433
3605.24	64.7921
3605.43	69.816
3605.62	82.3674
3605.81	85.6391
3606	53.5424
3606.19	78.2573
3606.38	70.517
3606.57	68.4938
3606.76	80.789
3606.96	83.5203
3607.15	70.9297
3607.34	72.7016
3607.53	77.3336
3607.72	86.7432
3607.91	83.6903
3608.1	85.4139
3608.29	75.6185
3608.48	79.2067
3608.67	96.1835
3608.86	102.63
3609.05	99.492
3609.24	89.6449
3609.43	76.934
3609.62	84.3077
3609.81	103.179
3610	88.5528
3610.19	82.5261
3610.38	89.8747
3610.57	85.7486
3610.76	82.5895
3610.95	97.5903
3611.14	71.5274
3611.33	70.3213
3611.52	105.436
3611.71	80.4019
3611.9	103.19
3612.09	92.5634
3612.28	109.68
3612.47	88.5657
3612.66	108.498
3612.85	84.3897
3613.04	93.6584
3613.23	105.811
3613.42	104.501
3613.61	131.847
3613.8	103.759
3613.99	114.836
3614.18	140.258
3614.37	99.8409
3614.56	119.76
3614.75	107.37
3614.94	121.599
3615.14	112.8
3615.33	124.836
3615.52	120.79
3615.71	107.492
3615.89	121.179
3616.08	115.475
3616.27	119.366
3616.47	121.824
3616.66	114.474
3616.85	128.429
3617.04	112.64
3617.22	112.129
3617.41	128.909
3617.6	141.889
3617.79	132.921
3617.99	125.911
3618.18	144.702
3618.36	101.395
3618.55	137.241
3618.74	124.429
3618.93	134.505
3619.12	124.705
3619.31	134.552
3619.5	140.453
3619.69	134.682
3619.88	155.506
3620.07	121.069
3620.26	140.061
3620.45	136.893
3620.64	139.622
3620.83	137.242
3621.02	138.501
3621.21	142.578
3621.4	143.64
3621.59	167.793
3621.78	154.129
3621.97	159.457
3622.16	146.652
3622.35	169.107
3622.54	162.033
3622.73	166.416
3622.92	166.979
3623.11	158.929
3623.3	151.763
3623.49	157.659
3623.68	171.069
3623.87	169.331
3624.06	170.987
3624.25	161.185
3624.44	173.317
3624.63	185.53
3624.82	163.453
3625.01	181.37
3625.2	183.074
3625.39	163.776
3625.58	183.53
3625.76	181.32
3625.95	189.539
3626.14	177.705
3626.33	183.006
3626.52	179.616
3626.71	170.326
3626.9	178.087
3627.09	209.65
3627.28	195.569
3627.47	187.376
3627.66	182.883
3627.85	183.925
3628.04	182.623
3628.23	185.331
3628.42	193.791
3628.61	192.872
3628.8	190.697
3628.99	188.487
3629.18	198.631
3629.37	216.384
3629.56	194.143
3629.75	196.676
3629.93	194.429
3630.12	206.472
3630.31	206.135
3630.5	222.942
3630.69	212.136
3630.88	205.135
3631.07	202.893
3631.26	202.552
3631.45	221.258
3631.64	222.816
3631.83	220.56
3632.02	218.299
3632.21	226.513
3632.4	210.899
3632.59	241.906
3632.77	228.143
3632.96	220.107
3633.15	206.339
3633.34	206.745
3633.53	221.424
3633.72	227.631
3633.91	237.832
3634.1	209.155
3634.29	239.594
3634.48	232.072
3634.67	214.784
3634.86	227.563
3635.04	249.588
3635.23	250.765
3635.42	221.331
3635.61	225.219
3635.8	230.698
3635.99	239.429
3636.18	227.563
3636.37	216.361
3636.56	218.039
3636.75	228.982
3636.94	221.82
3637.13	247.069
3637.31	224.748
3637.5	223.389
3637.69	242.041
3637.88	233.094
3638.07	221.285
3638.26	251.345
3638.45	246.164
3638.64	238.11
3638.83	232.875
3639.02	236.165
3639.2	237.533
3639.39	234.13
3639.58	229.774
3639.77	236.834
3639.96	237.257
3640.15	224.391
3640.34	224.849
3640.53	241.475
3640.72	244.818
3640.91	238.681
3641.09	206.919
3641.28	253.089
3641.47	244.216
3641.66	212.578
3641.85	239.893
3642.04	254.877
3642.23	249.903
3642.42	247.763
3642.61	229.409
3642.8	252.831
3642.98	247.616
3643.17	248.007
3643.36	244.659
3643.55	242.322
3643.74	241.966
3643.93	228.97
3644.12	229.007
3644.31	242.078
3644.49	249.622
3644.68	225.14
3644.87	229.297
3645.06	242.646
3645.25	250.176
3645.44	230.993
3645.63	242.13
3645.82	256.375
3646	251.74
3646.19	248.087
3646.38	259.439
3646.57	252.85
3646.76	238.259
3646.95	259.021
3647.14	242.89
3647.33	236.625
3647.51	264.369
3647.7	265.649
3647.89	275.555
3648.08	240.928
3648.27	230.012
3648.46	254.181
3648.65	240.4
3648.83	238.043
3649.02	259.439
3649.21	281.829
3649.4	262.459
3649.59	249.742
3649.78	243.668
3649.97	252.779
3650.16	251.413
3650.34	272.797
3650.53	249.507
3650.72	262.274
3650.91	255.069
3651.1	254.473
3651.29	269.067
3651.47	285.548
3651.66	237.479
3651.85	258.712
3652.04	283.669
3652.23	261.225
3652.42	272.068
3652.6	286.061
3652.79	261.287
3652.98	274.412
3653.17	273.396
3653.36	269.517
3653.55	284.97
3653.73	281.527
3653.92	275.142
3654.11	294.082
3654.3	273.106
3654.49	284.551
3654.68	288.532
3654.87	302.285
3655.05	316.154
3655.24	260.729
3655.43	282.454
3655.62	278.734
3655.81	279.983
3656	280.081
3656.18	296.631
3656.37	285.037
3656.56	263.519
3656.75	301.733
3656.94	309.59
3657.12	304.318
3657.31	313.845
3657.5	313.401
3657.69	306.249
3657.88	313.123
3658.07	293.764
3658.25	323.899
3658.44	319.954
3658.63	295.935
3658.82	314.363
3659.01	307.774
3659.19	319.133
3659.38	317.297
3659.57	322.554
3659.76	321.187
3659.95	316.666
3660.14	319.032
3660.32	325.101
3660.51	335.986
3660.7	350.739
3660.89	328.589
3661.08	335.904
3661.26	323.185
3661.45	334.223
3661.64	346.149
3661.83	352.327
3662.02	346.044
3662.2	329.222
3662.39	338
3662.58	348.615
3662.77	357.3
3662.96	356.519
3663.14	337.762
3663.33	334.277
3663.52	364.083
3663.71	320.83
3663.9	361.215
3664.08	351.368
3664.27	363.42
3664.46	337.458
3664.65	355.174
3664.84	379.509
3665.02	345.776
3665.21	374.736
3665.4	365.59
3665.59	361.166
3665.77	362.396
3665.96	351.24
3666.15	344.841
3666.34	374.575
3666.53	348.325
3666.71	335.462
3666.9	353.998
3667.09	370.723
3667.28	383.743
3667.47	379.678
3667.65	393.703
3667.84	392.473
3668.03	373.027
3668.22	328.658
3668.4	366.78
3668.59	359.944
3668.78	378.927
3668.97	381.914
3669.16	383.156
3669.34	378.293
3669.53	374.494
3669.72	383.253
3669.91	385.531
3670.09	373.651
3670.28	364.627
3670.47	374.624
3670.66	372.217
3670.84	368.83
3671.03	390.189
3671.22	382.066
3671.41	380.565
3671.59	383.801
3671.78	377.513
3671.97	393.021
3672.16	376.309
3672.35	386.491
3672.53	353.868
3672.72	394.335
3672.91	376.392
3673.1	367.804
3673.28	377.616
3673.47	377.85
3673.66	382.034
3673.85	366.568
3674.03	363.123
3674.22	374.083
3674.41	370.123
3674.6	373.013
3674.78	371.913
3674.97	373.237
3675.16	376.131
3675.35	358.138
3675.53	345.155
3675.72	363.756
3675.91	372.789
3676.09	356.047
3676.28	344.05
3676.47	368.242
3676.66	376.248
3676.85	368.033
3677.03	371.248
3677.22	344.867
3677.41	359.422
3677.59	353.038
3677.78	358.019
3677.97	333.654
3678.16	345.6
3678.34	336.716
3678.53	324.778
3678.72	336.907
3678.91	346.866
3679.09	317.716
3679.28	331.245
3679.47	335.13
3679.66	333.087
3679.84	326.112
3680.03	317.54
3680.22	319.19
3680.4	311.437
3680.59	304.447
3680.78	291.542
3680.97	307.15
3681.15	310.343
3681.34	304.029
3681.53	288.166
3681.71	280.878
3681.9	280.24
3682.09	266.295
3682.28	272.343
3682.46	289.806
3682.65	283.493
3682.84	243.898
3683.02	277.59
3683.21	268.482
3683.4	272.691
3683.58	257.874
3683.77	264.961
3683.96	250.123
3684.15	249.582
3684.33	236.613
3684.52	235.08
3684.71	234.519
3684.89	226.491
3685.08	239.641
3685.27	216.767
3685.46	217.163
3685.64	207.41
3685.83	225.286
3686.02	194.122
3686.2	197.573
3686.39	217.331
3686.58	197.069
3686.76	189.21
3686.95	188.099
3687.14	177.821
3687.33	187.921
3687.51	183.666
3687.7	164.085
3687.89	183.559
3688.07	150.651
3688.26	148.244
3688.45	149.645
3688.63	167.257
3688.82	154.352
3689.01	152.862
3689.19	143.704
3689.38	142.162
3689.57	140.613
3689.75	142.874
3689.94	120.34
3690.13	130.231
3690.32	135.359
3690.5	107.113
3690.69	118.942
3690.88	109.802
3691.06	114.985
3691.25	123.994
3691.44	105.333
3691.62	97.173
3691.81	88.0623
3692	99.021
3692.18	92.7861
3692.37	89.4124
3692.56	79.3295
3692.74	73.0501
3692.93	85.8722
3693.12	92.9382
3693.3	75.1191
3693.49	71.6287
3693.68	79.6069
3693.86	75.1575
3694.05	66.8795
3694.24	51.9227
3694.42	57.9921
3694.61	47.795
3694.8	50.9738
3694.98	57.9709
3695.17	55.408
3695.36	66.2327
3695.54	54.1293
3695.73	52.5506
3695.92	48.1065
3696.1	42.7098
3696.29	41.1396
3696.48	29.0609
3696.66	37.0578
3696.85	28.8148
3697.04	28.2253
3697.22	38.1516
3697.41	29.9232
3697.59	45.6056
3697.78	32.5782
3697.97	36.7566
3698.15	26.5605
3698.34	36.4216
3698.53	28.1318
3698.71	27.5032
3698.9	22.1615
3699.09	14.8839
3699.27	-0.0462036
3699.46	22.2922
3699.65	14.8723
3699.83	16.1156
3700.02	7.13235
3700.2	20.252
3700.39	11.919
3700.58	9.35065
3700.76	10.6148
3700.95	18.5845
3701.14	25.5979
3701.32	3.89084
3701.51	-8.23547
3701.7	5.49457
3701.88	18.2815
3702.07	9.05981
3702.25	1.76938
3702.44	4.06796
3702.63	-1.28647
3702.81	20.1875
3703	1.41983
3703.19	2.76636
3703.37	1.24738
3703.56	-21.3613
3703.74	4.92484
3703.93	-1.41299
3704.12	-7.81952
3704.3	1.96634
3704.49	-2.63135
3704.68	10.1883
3704.86	0.131317
3705.05	-9.772
3705.23	2.09863
3705.42	-2.30511
3705.61	-7.04822
3705.79	-8.71432
3705.98	-5.39496
3706.17	2.97318
3706.35	-1.82703
3706.54	-1.17685
3706.72	12.9721
3706.91	-3.43112
3707.09	9.49249
3707.28	-6.76303
3707.47	-7.2312
3707.65	-2.8056
3707.84	-2.49048
3708.03	3.49286
3708.21	-9.30354
3708.4	1.15335
3708.58	-1.7088
3708.77	-9.54552
3708.96	-3.79047
3709.14	0.352783
3709.33	-8.52747
3709.51	-21.8824
3709.7	-2.10437
3709.89	-7.23404
3710.07	-6.35918
3710.26	-3.39099
3710.44	-4.00035
3710.63	-14.8795
3710.81	-4.58102
3711	-6.12105
3711.19	-14.7764
3711.37	3.47177
3711.56	-8.58148
3711.74	2.54572
3711.93	-5.63588
3712.12	-6.28299
3712.3	-5.10405
3712.49	-9.73921
3712.67	-3.7173
3712.86	0.56955
3713.05	-10.4796
3713.23	1.37631
3713.42	-4.07843
3713.6	-4.71465
3713.79	-1.504
3713.97	-7.86528
3714.16	-12.3123
3714.35	-5.28316
3714.53	-4.98352
3714.72	-1.81734
3714.9	-13.0149
3715.09	0.688705
3715.27	4.83803
3715.46	-8.22549
3715.65	-9.78497
3715.83	3.99469
3716.02	-6.14897
3716.2	-2.86479
3716.39	-9.15361
3716.57	-4.89137
3716.76	-1.60089
3716.95	-1.38412
3717.13	-3.91396
3717.32	7.97548
3717.5	6.43198
3717.69	1.99933
3717.87	-3.40906
3718.06	-4.98618
3718.25	-2.72107
3718.43	-5.25102
3718.62	2.76801
3718.8	6.94229
3718.99	1.5126
3719.17	0.875336
3719.36	-6.4814
3719.54	-8.08109
3719.73	4.71809
3719.92	-3.58556
3720.1	-12.8518
3720.29	-5.81102
3720.47	-1.64447
3720.66	4.44606
3720.84	-3.84032
3721.03	-3.46233
3721.21	5.56715
3721.4	-3.64023
3721.58	11.1155
3721.77	6.66133
3721.96	-4.49611
3722.14	2.60526
3722.33	-3.75063
3722.51	6.22102
3722.7	10.4187
3722.88	11.7301
3723.07	-4.27078
3723.25	-2.97211
3723.44	2.18886
3723.62	9.25703
3723.81	8.554
3723.99	9.79691
3724.18	18.7336
3724.36	13.3275
3724.55	2.1774
3724.74	-10.9194
3724.92	-7.69807
3725.11	4.16441
3725.29	10.2649
3725.48	0.034256
3725.66	5.16519
3725.85	5.48991
3726.03	4.83891
3726.22	5.13448
3726.4	-1.30238
3726.59	1.86855
3726.77	12.7226
3726.96	8.19997
3727.14	-0.14975
3727.33	17.3954
3727.51	-2.48804
3727.7	4.53815
3727.88	6.97945
3728.07	13.8518
3728.26	5.1586
3728.44	0.92276
3728.63	10.2234
3728.81	8.49561
3729	2.27731
3729.18	17.2759
3729.37	-4.43449
3729.55	15.9725
3729.74	7.53793
3729.92	12.5924
3730.11	-12.9962
3730.29	2.71254
3730.48	-0.761856
3730.66	1.52463
3730.85	14.3857
3731.03	15.7138
3731.22	11.2847
3731.4	5.88338
3731.59	4.32521
3731.77	-2.04524
3731.96	9.85263
3732.14	5.40596
3732.33	4.80077
3732.51	-13.1235
3732.7	6.45074
3732.88	-0.92215
3733.07	5.15211
3733.25	-0.332687
3733.44	2.82646
3733.62	10.7817
3733.81	-0.485535
3733.99	3.6149
3734.18	5.79681
3734.36	10.8624
3734.55	11.1376
3734.73	10.4726
3734.92	4.0685
3735.1	5.36061
3735.28	-7.7263
3735.47	-5.44781
3735.66	-1.24208
3735.84	1.0405
3736.03	3.3152
3736.21	0.775482
3736.39	-15.2262
3736.58	9.08643
3736.76	3.62628
3736.95	3.92133
3737.13	2.32509
3737.32	9.39462
3737.5	8.80959
3737.69	1.42677
3737.87	-0.420853
3738.06	5.41423
3738.24	1.86684
3738.43	6.23161
3738.61	-9.52823
3738.8	12.9842
3738.98	0.726974
3739.16	11.4944
3739.35	7.01701
3739.53	-1.09373
3739.72	4.1711
3739.9	11.2798
3740.09	7.79997
3740.27	17.7521
3740.46	9.42882
3740.64	5.87605
3740.83	2.30254
3741.01	-3.20067
3741.2	-2.9411
3741.38	-0.753876
3741.57	-1.42424
3741.75	3.69286
3741.94	2.12892
3742.12	8.22935
3742.3	3.77818
3742.49	5.08365
3742.67	9.26654
3742.86	1.92616
3743.04	9.92874
3743.23	1.59761
3743.41	4.77281
3743.6	12.7315
3743.78	6.29535
3743.96	1.7899
3744.15	6.89664
3744.33	3.39178
3744.52	3.74948
3744.7	15.6117
3744.89	5.4843
3745.07	4.82014
3745.26	1.85269
3745.44	8.15068
3745.62	-1.04832
3745.81	6.23161
3745.99	-4.66467
3746.18	-1.07698
3746.36	-2.25334
3746.55	-4.32619
3746.73	9.63902
3746.91	2.29048
3747.1	-2.32683
3747.28	3.4646
3747.47	6.18323
3747.65	10.5712
3747.84	8.388
3748.02	-8.65356
3748.21	3.8923
3748.39	6.93352
3748.57	7.23145
3748.76	-3.82002
3748.94	2.55699
3749.13	-7.52179
3749.31	-3.62024
3749.49	9.77556
3749.68	-2.33611
3749.86	-1.8073
3750.05	2.59111
3750.23	8.67842
3750.42	1.2343
3750.6	7.25957
3750.78	7.57007
3750.97	7.89577
3751.15	-5.19894
3751.34	6.62914
3751.52	-6.48836
3751.71	0.519943
3751.89	3.66982
3752.07	17.3515
3752.26	10.8821
3752.44	2.49176
3752.63	5.59851
3752.81	0.0986786
3752.99	3.24744
3753.18	17.9101
3753.36	1.95642
3753.55	8.04546
3753.73	5.51315
3753.91	19.2607
3754.1	6.15741
3754.28	2.64859
3754.47	12.5582
3754.65	12.903
3754.83	-0.160263
3755.02	3.04431
3755.2	-1.53427
3755.39	14.7067
3755.57	9.27567
3755.75	7.88101
3755.94	9.36996
3756.12	-0.726013
3756.31	18.4611
3756.49	11.5359
3756.67	12.9206
3756.86	-2.67894
3757.04	-12.7334
3757.23	6.74731
3757.41	12.3844
3757.59	12.9379
3757.78	1.79469
3757.96	3.45493
3758.14	7.85478
3758.33	14.9222
3758.51	7.31656
3758.7	10.1151
3758.88	-3.2097
3759.06	9.86797
3759.25	6.67473
3759.43	4.15013
3759.61	6.22528
3759.8	15.8692
3759.98	0.571167
3760.17	3.44687
3760.35	8.84297
3760.53	13.5103
3760.72	4.21616
3760.9	4.21942
3761.09	7.93607
3761.27	4.45514
3761.45	6.79715
3761.64	9.09409
3761.82	5.57481
3762	16.2406
3762.19	17.2255
3762.37	7.92055
3762.55	16.8696
3762.74	1.8584
3762.92	6.92117
3763.11	5.26428
3763.29	9.33813
3763.47	22.0194
3763.66	17.4622
3763.84	13.8613
3764.02	6.43193
3764.21	6.65938
3764.39	14.5406
3764.57	9.98396
3764.76	21.6881
3764.94	5.66612
3765.13	-4.62717
3765.31	18.5415
3765.49	18.7515
3765.68	1.75529
3765.86	19.1922
3766.04	10.8585
3766.23	11.1712
3766.41	19.1179
3766.59	14.5476
3766.78	3.20779
3766.96	15.7431
3767.14	15.9818
3767.33	19.144
3767.51	6.0098
3767.69	11.8839
3767.88	5.30385
3768.06	13.1047
3768.25	13.3424
3768.43	19.3087
3768.61	10.0009
3768.79	13.0921
3768.98	9.50294
3769.16	17.3728
3769.34	11.8731
3769.53	8.28214
3769.71	5.63939
3769.89	0.122025
3770.08	16.5679
3770.26	6.25578
3770.44	24.5925
3770.63	9.4946
3770.81	17.3204
3771	12.7242
3771.18	15.7682
3771.36	16.8992
3771.54	4.66595
3771.73	2.95113
3771.91	5.07375
3772.09	10.0826
3772.28	10.3363
3772.46	11.3274
3772.64	14.1871
3772.83	7.63963
3773.01	13.5939
3773.19	17.6993
3773.38	9.49654
3773.56	10.1529
3773.74	22.5429
3773.93	4.51175
3774.11	21.949
3774.29	19.6244
3774.48	17.235
3774.66	17.2365
3774.84	8.93692
3775.02	21.4931
3775.21	22.8026
3775.39	9.07945
3775.57	16.3986
3775.76	18.3597
3775.94	18.1126
3776.12	6.39778
3776.31	21.7093
3776.49	5.62251
3776.67	12.2158
3776.86	21.1494
3777.04	15.2482
3777.22	13.0532
3777.4	16.7997
3777.59	8.6152
3777.77	19.5915
3777.95	19.8595
3778.14	10.3674
3778.32	15.0475
3778.5	19.6856
3778.69	20.7376
3778.87	6.72878
3779.05	15.6832
3779.24	16.6351
3779.42	19.3595
3779.6	20.2405
3779.78	20.3424
3779.97	1.53845
3780.15	6.67622
3780.33	22.3444
3780.51	8.86461
3780.7	18.0038
3780.88	20.776
3781.06	8.78146
3781.25	14.7302
3781.43	9.95897
3781.61	6.0152
3781.8	23.2569
3781.98	13.8939
3782.16	4.52512
3782.34	12.259
3782.53	28.5313
3782.71	21.9271
3782.89	18.1564
3783.07	16.2887
3783.26	15.3904
3783.44	5.93208
3783.62	2.16673
3783.8	13.6125
3783.99	7.87236
3784.17	17.2168
3784.35	18.0785
3784.54	13.4574
3784.72	23.2898
3784.9	8.10823
3785.08	13.8245
3785.27	11.9267
3785.45	12.8872
3785.63	10.9976
3785.82	9.10738
3786	21.4914
3786.18	12.932
3786.36	11.9789
3786.55	10.0715
3786.73	10.0634
3786.91	9.10249
3787.09	10.9969
3787.28	16.7004
3787.46	17.65
3787.64	24.318
3787.82	16.7149
3788.01	13.8683
3788.19	10.0638
3788.37	11.0129
3788.55	11.9537
3788.74	6.21724
3788.92	10.949
3789.1	13.7641
3789.28	17.5214
3789.47	13.6496
3789.65	14.5328
3789.83	9.69295
3790.01	3.89561
3790.2	21.896
3790.38	8.48122
3790.56	14.1092
3790.74	2.58881
3790.93	11.0487
3791.11	13.7945
3791.29	12.7456
3791.47	6.01889
3791.66	3.19113
3791.84	9.51901
3792.02	11.1306
3792.2	1.12857
3792.39	9.34171
3792.57	10.9921
3792.75	9.91942
3792.93	11.8375
3793.11	4.55685
3793.3	-4.40343
3793.48	11.4026
3793.66	3.54982
3793.84	11.1042
3794.03	1.64334
3794.21	2.57755
3794.39	1.21902
3794.57	2.66978
3794.75	10.8239
3794.94	5.43106
3795.12	-5.20192
3795.3	8.72801
3795.48	7.3156
3795.67	-3.42221
3795.85	4.05794
3796.03	5.1517
3796.21	-3.3649
3796.4	2.25766
3796.58	9.65228
3796.76	-4.88834
3796.94	4.38452
3797.12	-11.2406
