#Acq. time (s)=	45
#Accumulations=	2
#Range (cm-¹)=	100...4000
#Windows=	1
#Auto scanning=	Off
#Autofocus=	Off
#Macrospot=	Off
#AutoExposure=	Off
#Spike filter=	Multiple accum.
#Delay time (s)=	2
#Binning=	1
#Readout mode=	Signal
#DeNoise=	Off
#ICS correction=	On
#Dark correction=	Off
#Inst. Process=	Off
#Detector Gain=	Best Dynamic
#Detector ADC=	50 kHz HS
#Detector temperature (°C)=	-60.28
#Instrument=	LabRAM HR Evol
#Detector=	SIN-EM FIVIS
#Objective=	x100_VIS_LWD
#Grating=	150 (500nm)
#ND Filter=	100%
#Laser=	633nm_Edge
#Hole=	49.98
#Temperature=	0
#Range=	Visible
#StageXY=	75x50mm Scan+
#StageZ=	Z motor
#X (µm)=	0
#Y (µm)=	0
#Z (µm)=	5.5
#Full time(mm:ss)=	1:34
#Project=	21_11_22
#Sample=	BU04w
#Site=	
#Title=	BU04w-A-FF3-FI02-V_150 (500nm)_633nm_Edge_100%_x100_VIS_LWD_H50um_45sX2
#Remark=	
#Date=	22.11.2021 10:43
#Acquired=	22.11.2021 10:43:28
#Base:Fit=	16.12.2021 16:15:35
#Base:Edit=	16.12.2021 16:21:50
#Base:Edit=	16.12.2021 16:21:51
#Base:Edit=	16.12.2021 16:21:52
#Base:Edit=	16.12.2021 16:21:52
#Base:Sub=	16.12.2021 16:21:56
100.177	432.848
103.438	380.261
106.695	344.006
109.954	324.069
113.209	261.232
116.464	243.321
119.717	229.26
122.969	215.311
126.219	194.711
129.469	184.73
132.716	174.779
135.963	181.166
139.208	168.448
142.452	155.826
145.694	149.051
148.936	134.676
152.175	121.357
155.414	119.622
158.651	118.907
161.887	153.726
165.121	195.341
168.353	178.534
171.586	123.412
174.815	90.363
178.045	48.7167
181.272	46.4212
184.5	39.3455
187.724	24.666
190.947	14.8092
194.17	20.3178
197.39	8.69707
200.611	2.90569
203.829	-1.81001
207.045	-0.777847
210.262	1.24796
213.475	1.41148
216.688	6.39572
219.9	1.87708
223.11	15.5075
226.32	10.0833
229.527	39.8738
232.733	81.1206
235.939	130.936
239.142	165.544
242.344	126.058
245.546	77.2458
248.745	40.7803
251.943	22.3939
255.141	26.8222
258.336	26.5578
261.53	38.6627
264.723	36.57
267.916	14.6006
271.106	17.333
274.294	20.0986
277.483	6.77431
280.669	33.2865
283.854	32.305
287.038	55.0361
290.221	35.1163
293.402	19.9502
296.582	25.6534
299.76	0.144684
302.938	16.2915
306.114	12.5803
309.288	15.5151
312.461	39.2498
315.634	47.8806
318.805	92.3888
321.974	164.31
325.142	273.029
328.309	375.118
331.475	384.819
334.639	289.806
337.802	194.823
340.963	131.94
344.123	66.2486
347.282	48.6403
350.441	43.3164
353.597	32.3219
356.752	26.9886
359.906	30.1329
363.058	36.1008
366.209	53.3514
369.36	57.4415
372.509	41.8133
375.656	29.9494
378.802	20.9359
381.947	17.5615
385.09	-0.754257
388.232	0.687592
391.373	2.17188
394.512	-0.0605011
397.652	10.889
400.789	15.351
403.925	29.1963
407.059	17.6328
410.192	24.9132
413.324	21.7893
416.455	31.8513
419.584	43.8629
422.712	54.8578
425.839	86.5795
428.964	91.5996
432.089	129.635
435.212	169.461
438.333	162.09
441.454	133.108
444.573	119.207
447.691	79.9878
450.807	91.4433
453.923	91.6734
457.037	73.2509
460.15	97.8458
463.261	69.3095
466.371	59.5107
469.48	37.5987
472.588	33.4443
475.695	23.7393
478.8	16.8501
481.904	29.5044
485.007	17.9334
488.108	23.1318
491.208	36.7222
494.307	40.0734
497.405	29.4257
500.502	35.5687
503.597	54.7866
506.691	52.5501
509.784	68.047
512.874	97.5709
515.964	77.6328
519.053	70.796
522.141	84.5549
525.227	61.8468
528.312	70.0397
531.396	63.2695
534.479	57.443
537.559	55.3545
540.639	45.6736
543.718	44.4296
546.796	37.4805
549.873	24.7825
552.948	34.7679
556.022	29.6176
559.093	33.833
562.165	22.8721
565.235	31.7098
568.304	14.1108
571.372	25.6812
574.437	13.7059
577.503	22.3726
580.567	15.1037
583.63	13.4998
586.691	23.1065
589.75	20.598
592.81	28.396
595.868	31.5318
598.924	49.6331
601.98	55.711
605.033	49.7072
608.086	44.6271
611.138	47.9773
614.188	42.9235
617.236	37.9149
620.285	50.6962
623.332	46.6335
626.376	40.6879
629.42	37.4395
632.464	36.9555
635.506	42.0584
638.545	32.0055
641.585	35.108
644.623	27.7701
647.659	26.1383
650.695	27.3045
653.73	35.9249
656.762	41.6913
659.794	53.9949
662.825	65.3195
665.854	57.9557
668.883	36.6112
671.91	37.7655
674.935	16.6589
677.96	21.6123
680.982	7.91206
684.005	19.4381
687.027	8.58464
690.045	6.16265
693.064	13.1029
696.082	8.81854
699.097	12.0149
702.113	8.63771
705.126	0.543587
708.139	9.33432
711.149	18.1012
714.16	17.339
717.169	9.09868
720.176	11.1704
723.183	5.75315
726.187	6.85427
729.192	14.4932
732.194	8.05734
735.196	14.7359
738.196	-0.115341
741.196	9.35903
744.193	10.415
747.19	7.75189
750.185	4.15886
753.18	7.13345
756.173	7.29067
759.165	5.65511
762.155	12.4574
765.146	6.2301
768.133	8.4234
771.121	6.86853
774.107	10.9426
777.092	12.1845
780.075	6.81742
783.058	8.00356
786.039	-2.13417
789.02	12.2121
791.998	3.92228
794.975	16.3549
797.952	8.95951
800.927	13.7917
803.902	9.17685
806.874	18.6775
809.845	7.45268
812.817	0.914543
815.786	4.71194
818.755	9.42443
821.721	6.61916
824.686	12.2388
827.652	2.87691
830.615	4.77997
833.576	21.6939
836.538	22.7518
839.498	24.7942
842.458	18.4766
845.415	13.0447
848.37	12.3123
851.327	19.0966
854.28	16.5062
857.233	10.153
860.184	18.8623
863.135	16.2723
866.084	23.1209
869.032	25.2537
871.98	20.7274
874.925	33.2134
877.87	25.7687
880.813	30.6413
883.756	20.3115
886.697	24.189
889.636	33.7383
892.576	27.1386
895.513	28.1165
898.45	29.9916
901.385	30.8727
904.318	26.0679
907.253	29.7695
910.184	28.7299
913.114	21.1076
916.044	24.7933
918.973	32.2928
921.9	44.4992
924.826	36.0953
927.75	41.8024
930.674	53.2368
933.596	52.4245
936.519	63.0186
939.439	76.537
942.357	91.0627
945.275	116.06
948.192	130.758
951.107	158.81
954.023	173.603
956.936	173.139
959.848	163.053
962.759	152.903
965.669	133.072
968.577	131.423
971.485	120.102
974.391	147.115
977.296	141.401
980.201	153.81
983.104	173.833
986.006	223.496
988.907	245.295
991.806	247.905
994.704	235.2
997.602	210.139
1000.5	179.427
1003.39	185.975
1006.29	160.167
1009.18	159.216
1012.07	177.483
1014.96	181.461
1017.85	194.968
1020.74	217.126
1023.63	250.901
1026.51	263.772
1029.4	265.198
1032.28	231.14
1035.16	189.352
1038.04	129.176
1040.92	87.1229
1043.8	84.5175
1046.68	79.0196
1049.56	68.6008
1052.43	60.0718
1055.31	55.387
1058.18	66.1977
1061.05	46.869
1063.93	43.0399
1066.8	38.1728
1069.67	54.6932
1072.53	49.8417
1075.4	49.8299
1078.26	56.5908
1081.13	70.1263
1083.99	71.0477
1086.85	81.6586
1089.72	90.3644
1092.58	106.796
1095.44	130.973
1098.29	167.694
1101.15	202.474
1104	198.59
1106.86	173.6
1109.71	120.393
1112.56	90.5609
1115.42	74.3855
1118.27	68.8588
1121.11	64.2269
1123.96	45.9088
1126.81	45.1011
1129.65	43.3478
1132.5	48.4225
1135.34	44.7072
1138.18	58.6118
1141.03	65.7034
1143.87	90.4506
1146.7	94.525
1149.54	135.054
1152.38	173.581
1155.21	234.695
1158.05	252.39
1160.88	191.261
1163.71	125.145
1166.55	85.6992
1169.37	55.1557
1172.2	41.3297
1175.03	27.5248
1177.86	27.4368
1180.68	27.3769
1183.51	24.404
1186.33	27.3481
1189.15	21.5266
1191.98	25.4799
1194.8	20.7017
1197.61	17.8697
1200.43	13.1286
1203.25	14.2999
1206.06	22.3589
1208.88	1.93327
1211.69	13.9597
1214.51	12.2303
1217.32	1.59125
1220.13	9.77322
1222.94	17.0051
1225.74	8.31138
1228.55	8.56823
1231.36	9.81123
1234.16	7.02361
1236.97	23.3193
1239.77	17.4791
1242.57	19.6512
1245.37	15.7451
1248.17	10.7965
1250.97	12.8838
1253.77	19.0177
1256.56	24.0922
1259.36	28.1301
1262.15	60.3806
1264.94	39.1535
1267.74	16.9504
1270.53	24.9667
1273.32	15.8477
1276.11	38.8987
1278.89	151.208
1281.68	491.851
1284.46	322.098
1287.25	80.6386
1290.03	33.574
1292.81	25.569
1295.59	12.6022
1298.38	24.6362
1301.15	15.6929
1303.93	19.7819
1306.71	14.9014
1309.48	14.0513
1312.26	19.2646
1315.03	7.42021
1317.81	16.6744
1320.58	15.8918
1323.35	11.078
1326.12	13.3422
1328.88	20.6861
1331.65	12.8219
1334.42	12.027
1337.18	19.3816
1339.95	20.6188
1342.71	18.7544
1345.47	10.7302
1348.23	22.1453
1350.99	18.1961
1353.75	21.4126
1356.51	18.4542
1359.26	28.8333
1362.02	28.9242
1364.77	27.9626
1367.53	21.8431
1370.28	22.9118
1373.03	28.0844
1375.78	34.2886
1378.53	45.6208
1381.28	109.308
1384.03	614.345
1386.77	696.337
1389.52	180.143
1392.26	45.8031
1395	18.1811
1397.74	32.7112
1400.49	23.596
1403.23	38.1291
1405.96	65.0469
1408.7	49.7806
1411.44	20.0594
1414.17	16.0962
1416.91	18.3358
1419.64	8.16138
1422.37	9.36623
1425.11	16.8047
1427.84	7.64168
1430.56	6.78163
1433.29	-3.45844
1436.02	9.21172
1438.74	4.16673
1441.47	7.45972
1444.19	12.8758
1446.92	13.0431
1449.64	-0.445686
1452.36	0.714684
1455.08	2.91584
1457.8	4.04978
1460.52	8.32399
1463.23	4.18563
1465.95	16.8393
1468.66	8.48904
1471.38	8.54095
1474.09	6.49865
1476.8	11.8157
1479.51	5.60044
1482.22	-0.619102
1484.93	1.57154
1487.64	9.02802
1490.34	-0.320526
1493.05	8.21771
1495.75	2.03987
1498.46	3.22939
1501.16	10.7666
1503.86	5.64452
1506.56	12.1547
1509.26	0.690331
1511.96	1.92218
1514.65	2.10809
1517.35	2.29887
1520.05	0.365692
1522.74	4.82922
1525.43	12.5284
1528.13	9.52805
1530.82	4.38376
1533.51	6.75918
1536.2	12.3522
1538.88	3.90841
1541.57	1.92274
1544.25	11.7892
1546.94	9.72888
1549.62	7.63869
1552.31	5.52093
1554.99	10.9369
1557.67	5.53207
1560.35	8.79136
1563.03	10.9699
1565.71	7.74988
1568.38	2.37537
1571.06	4.5472
1573.73	12.1038
1576.41	3.51846
1579.08	1.42432
1581.75	13.3253
1584.42	1.55125
1587.09	14.5449
1589.76	8.16447
1592.43	6.1009
1595.09	6.20126
1597.76	6.31477
1600.42	-0.0478897
1603.09	9.80274
1605.75	2.37424
1608.41	11.193
1611.07	12.4587
1613.73	14.8366
1616.39	8.52805
1619.05	6.56632
1621.7	11.15
1624.36	14.6535
1627.01	9.39424
1629.67	11.8047
1632.32	16.417
1634.97	11.0978
1637.62	18.9891
1640.27	16.8736
1642.92	7.05099
1645.57	6.06388
1648.22	18.3449
1650.86	2.94691
1653.51	7.47112
1656.15	14.2009
1658.79	18.705
1661.43	12.116
1664.07	9.95957
1666.71	0.0303345
1669.35	13.3895
1671.99	15.656
1674.63	9.04964
1677.26	16.8455
1679.9	11.3465
1682.53	21.3407
1685.16	16.9101
1687.79	18.0212
1690.43	15.8192
1693.05	-4.07732
1695.68	5.93315
1698.31	9.3311
1700.94	12.7835
1703.56	11.9702
1706.19	18.8884
1708.81	14.6688
1711.44	14.5712
1714.06	9.03677
1716.68	10.2704
1719.3	11.5879
1721.92	8.34732
1724.53	2.83735
1727.15	14.1667
1729.77	9.80699
1732.38	15.5481
1735	5.55444
1737.61	10.1686
1740.22	12.5382
1742.83	14.9108
1745.44	16.1592
1748.05	14.0042
1750.66	5.05354
1753.27	11.9195
1755.87	10.8645
1758.48	13.1849
1761.08	12.0975
1763.69	13.2749
1766.29	7.66234
1768.89	6.58183
1771.49	3.23643
1774.09	13.4936
1776.69	7.89252
1779.29	12.512
1781.88	1.24721
1784.48	16.1116
1787.07	5.97932
1789.66	17.4844
1792.26	8.48718
1794.85	21.1625
1797.44	15.585
1800.03	11.1537
1802.62	7.85257
1805.21	9.13664
1807.79	16.1568
1810.38	8.22107
1812.96	14.0868
1815.55	10.7416
1818.13	9.70119
1820.71	17.892
1823.29	13.387
1825.87	16.9764
1828.45	13.6193
1831.03	10.2596
1833.61	11.5359
1836.18	11.6651
1838.76	5.94188
1841.33	23.5196
1843.91	17.7843
1846.48	10.867
1849.05	9.77638
1851.62	0.498688
1854.19	15.759
1856.76	11.1561
1859.33	18.2702
1861.89	16.0244
1864.46	5.5456
1867.02	7.99609
1869.59	15.1414
1872.15	15.2172
1874.71	8.20833
1877.27	10.6287
1879.83	21.3032
1882.39	13.1003
1884.95	8.41714
1887.51	22.6464
1890.06	7.29156
1892.62	2.56789
1895.17	12.0289
1897.73	13.2258
1900.28	6.16005
1902.83	3.85576
1905.38	12.2251
1907.93	1.63154
1910.48	-0.64566
1913.03	13.7404
1915.57	6.73848
1918.12	19.9796
1920.66	11.6352
1923.21	10.5107
1925.75	21.3496
1928.29	13.0568
1930.83	7.14233
1933.37	15.6055
1935.91	12.0722
1938.45	25.3443
1940.99	13.3821
1943.53	20.6424
1946.06	14.6643
1948.6	9.88036
1951.13	26.7579
1953.66	17.1322
1956.19	13.5221
1958.73	15.9317
1961.26	5.0807
1963.78	29.1764
1966.31	14.6988
1968.84	15.873
1971.36	19.4482
1973.89	13.3825
1976.41	13.3428
1978.94	10.8946
1981.46	10.8517
1983.98	2.38931
1986.5	13.1774
1989.02	15.5462
1991.54	10.7012
1994.06	15.4784
1996.58	19.0566
1999.09	10.6208
2001.61	16.6147
2004.12	19.0101
2006.63	6.98575
2009.15	9.39199
2011.66	5.79322
2014.17	20.2475
2016.68	13.0334
2019.19	15.4366
2021.69	23.8765
2024.2	2.19455
2026.71	10.6605
2029.21	11.8999
2031.72	7.11001
2034.22	9.57848
2036.72	13.2591
2039.22	8.46437
2041.72	12.1552
2044.22	18.2851
2046.72	14.7054
2049.22	11.1195
2051.71	11.1771
2054.21	24.6049
2056.71	8.80622
2059.2	13.7505
2061.69	18.7057
2064.18	16.3235
2066.68	-0.77404
2069.17	18.9035
2071.66	7.90543
2074.14	9.18452
2076.63	17.8475
2079.12	12.9672
2081.6	9.30618
2084.09	17.9748
2086.57	19.2345
2089.06	5.65081
2091.54	10.6267
2094.02	16.8592
2096.5	20.6419
2098.98	8.29407
2101.46	9.59193
2103.93	18.3645
2106.41	3.48979
2108.89	17.2776
2111.36	11.1169
2113.84	23.718
2116.31	3.7687
2118.78	13.8862
2121.25	22.7749
2123.72	15.3164
2126.19	26.748
2128.66	12.9498
2131.13	15.5458
2133.59	20.6733
2136.06	14.3979
2138.53	19.5239
2140.99	1.78938
2143.45	23.4408
2145.92	18.3908
2148.38	10.7732
2150.84	5.68003
2153.3	20.9889
2155.76	26.0944
2158.21	9.48511
2160.67	17.1296
2163.13	10.7103
2165.58	23.4531
2168.04	10.6213
2170.49	18.2548
2172.94	15.6755
2175.39	14.3717
2177.84	14.3398
2180.29	14.2856
2182.74	14.2288
2185.19	15.4341
2187.64	21.7756
2190.08	12.7656
2192.53	6.32397
2194.98	17.8131
2197.42	25.485
2199.86	11.3778
2202.3	8.81053
2204.74	19.0906
2207.18	20.3977
2209.62	19.1441
2212.06	21.7594
2214.5	7.61669
2216.93	21.8574
2219.37	11.5732
2221.81	11.6192
2224.24	14.2568
2226.67	10.4116
2229.11	13.0535
2231.54	13.0993
2233.97	14.4476
2236.4	18.407
2238.83	11.9278
2241.25	11.9679
2243.68	4.15622
2246.1	14.6786
2248.53	13.4124
2250.96	16.0834
2253.38	4.28179
2255.8	26.708
2258.22	8.3038
2260.64	16.2663
2263.06	16.303
2265.48	11.0309
2267.9	11.0398
2270.32	12.3645
2272.73	12.3553
2275.15	12.3368
2277.56	10.9841
2279.98	14.9375
2282.39	14.8899
2284.8	8.17925
2287.21	14.7606
2289.62	10.7061
2292.03	7.97559
2294.44	15.8899
2296.85	13.1678
2299.26	1.13975
2301.66	10.4182
2304.07	14.3899
2306.47	9.04596
2308.88	9.043
2311.28	19.745
2313.68	17.0932
2316.08	11.769
2318.48	3.75726
2320.88	10.4939
2323.28	23.9677
2325.68	36.1441
2328.07	48.3523
2330.47	5.24021
2332.86	12.0465
2335.26	9.39401
2337.65	1.31078
2340.04	13.5808
2342.43	9.57167
2344.82	15.0934
2347.21	13.8271
2349.6	16.6373
2351.99	12.6079
2354.38	18.1597
2356.76	8.58505
2359.15	5.86315
2361.53	15.4891
2363.92	-3.8027
2366.3	11.3803
2368.68	4.47959
2371.06	15.5473
2373.44	8.62865
2375.82	16.9451
2378.2	8.62585
2380.58	18.3207
2382.95	12.7378
2385.33	15.4685
2387.71	14.0282
2390.08	11.1824
2392.45	15.279
2394.83	17.9841
2397.2	3.96753
2399.57	8.04681
2401.94	9.34541
2404.31	10.6276
2406.68	10.5237
2409.04	7.66563
2411.41	14.6044
2413.78	14.6173
2416.14	16.1212
2418.51	13.5238
2420.87	19.2266
2423.23	12.1981
2425.59	9.33178
2427.95	12.1632
2430.31	9.3655
2432.67	5.15707
2435.03	5.1883
2437.39	3.81117
2439.75	22.2792
2442.1	18.0761
2444.46	11.0156
2446.81	25.3026
2449.16	5.39444
2451.52	6.85787
2453.87	11.1802
2456.22	8.35078
2458.57	6.95088
2460.92	15.6029
2463.27	7.01202
2465.61	20.0087
2467.96	5.61594
2470.3	5.63048
2472.65	18.6612
2474.99	7.10043
2477.34	17.2749
2479.68	20.2096
2482.02	12.963
2484.36	17.3412
2486.7	11.5106
2489.04	5.66987
2491.38	15.879
2493.72	8.56471
2496.05	21.7344
2498.39	8.54783
2500.72	9.99735
2503.06	12.9132
2505.39	8.48362
2507.72	6.98148
2510.06	8.41338
2512.39	18.6747
2514.72	8.31773
2517.04	14.1627
2519.37	9.703
2521.7	11.1496
2524.03	9.6395
2526.35	6.64118
2528.68	12.5222
2531	9.52394
2533.33	12.4636
2535.65	5.02684
2537.97	24.3138
2540.29	15.3949
2542.61	7.94704
2544.93	7.93417
2547.25	6.44071
2549.57	15.3887
2551.88	10.9061
2554.2	19.8779
2556.51	0.39167
2558.83	0.354797
2561.14	3.3394
2563.46	6.32971
2565.77	15.3609
2568.08	9.35036
2570.39	9.36647
2572.7	18.4415
2575.01	9.38956
2577.31	-7.2624
2579.62	13.925
2581.93	12.3892
2584.23	6.26916
2586.54	18.3652
2588.84	9.1852
2591.15	7.56541
2593.45	18.1491
2595.75	-6.24834
2598.05	13.51
2600.35	8.89081
2602.65	5.78485
2604.95	14.8806
2607.24	8.71082
2609.54	13.2303
2611.84	11.6137
2614.13	10.004
2616.42	17.5694
2618.72	-0.86515
2621.01	6.70409
2623.3	15.8196
2625.59	14.223
2627.88	6.49406
2630.17	1.85045
2632.46	15.6568
2634.75	9.50772
2637.04	18.7737
2639.32	17.2905
2641.61	6.51646
2643.89	9.6498
2646.18	11.2507
2648.46	22.1564
2650.74	12.8776
2653.02	9.80618
2655.3	14.4644
2657.58	9.75315
2659.86	11.2759
2662.14	9.66573
2664.42	4.91277
2666.69	-6.11588
2668.97	23.5996
2671.24	3.19341
2673.52	1.61952
2675.79	17.3699
2678.06	14.3426
2680.33	-2.8706
2682.61	11.4655
2684.88	3.64433
2687.15	0.561356
2689.41	13.4024
2691.68	15.0776
2693.95	10.3556
2696.22	21.4828
2698.48	16.6738
2700.74	15.0649
2703.01	15.0489
2705.27	0.550896
2707.53	3.73058
2709.8	16.5734
2712.06	6.86314
2714.32	8.44234
2716.57	18.1409
2718.83	10.0246
2721.09	13.2366
2723.35	22.9218
2725.6	16.3832
2727.86	-4.76924
2730.11	11.3801
2732.37	11.2806
2734.62	16.0732
2736.87	4.59798
2739.12	9.36938
2741.37	14.1778
2743.62	15.7369
2745.87	5.90941
2748.12	9.11881
2750.37	4.19657
2752.61	4.24452
2754.86	14.0581
2757.1	15.6741
2759.35	10.7134
2761.59	12.2867
2763.83	13.8917
2766.08	7.29227
2768.32	5.62186
2770.56	20.3927
2772.8	13.7871
2775.04	18.7358
2777.27	3.8839
2779.51	2.23513
2781.75	7.25339
2783.98	10.6152
2786.22	5.67882
2788.45	19.0492
2790.68	5.75262
2792.92	10.7968
2795.15	7.47955
2797.38	4.13015
2799.61	9.16676
2801.84	12.5201
2804.07	19.2363
2806.3	14.1671
2808.52	12.4537
2810.75	10.7317
2812.98	10.6907
2815.2	14.0095
2817.42	2.11383
2819.65	10.516
2821.87	18.9342
2824.09	13.8094
2826.31	27.3422
2828.53	13.7175
2830.75	15.3638
2832.97	22.1105
2835.19	11.8401
2837.41	-0.143517
2839.62	10.0134
2841.84	11.6582
2844.05	15.0167
2846.27	9.85633
2848.48	9.81493
2850.69	9.78493
2852.9	16.6276
2855.12	16.6366
2857.33	9.77471
2859.54	18.3715
2861.74	8.06235
2863.95	8.08607
2866.16	9.85104
2868.37	18.5417
2870.57	13.3909
2872.78	8.22123
2874.98	11.7325
2877.18	16.9996
2879.39	15.3158
2881.59	17.1286
2883.79	11.9547
2885.99	1.50778
2888.19	19.1174
2890.39	22.7059
2892.59	17.4895
2894.78	-1.86838
2896.98	10.5674
2899.18	10.6465
2901.37	1.8389
2903.57	30.3134
2905.76	9.00978
2907.95	16.1725
2910.15	7.27553
2912.34	14.411
2914.53	9.03114
2916.72	19.761
2918.91	12.5949
2921.09	-8.95723
2923.28	17.9992
2925.47	16.2276
2927.65	9.04871
2929.84	18.107
2932.02	23.5802
2934.21	18.168
2936.39	3.66034
2938.57	21.777
2940.75	3.57781
2942.94	16.2687
2945.12	10.7663
2947.29	14.3367
2949.47	12.4525
2951.65	8.74663
2953.83	8.68213
2956	12.2695
2958.18	19.5147
2960.36	10.3127
2962.53	-0.728142
2964.7	10.2006
2966.88	21.159
2969.05	17.4581
2971.22	24.7752
2973.39	21.0767
2975.56	17.3714
2977.73	19.1848
2979.9	11.7821
2982.06	13.6093
2984.23	15.4582
2986.4	9.9177
2988.56	-1.18559
2990.73	22.9375
2992.89	24.8438
2995.05	15.5821
2997.21	13.7655
2999.38	11.95
3001.54	21.3514
3003.7	19.5592
3005.86	14.0142
3008.01	19.7178
3010.17	4.73473
3012.33	21.7186
3014.49	16.1396
3016.64	31.3521
3018.8	8.73869
3020.95	24.0008
3023.1	37.3965
3025.26	20.344
3027.41	12.7518
3029.56	22.3137
3031.71	18.5092
3033.86	5.10815
3036.01	22.3109
3038.16	20.3517
3040.31	8.85336
3042.45	22.2754
3044.6	26.0963
3046.74	6.82466
3048.89	26.0418
3051.03	22.1558
3053.18	12.4743
3055.32	24.0316
3057.46	14.347
3059.6	23.9857
3061.74	23.959
3063.88	25.8705
3066.02	31.667
3068.16	29.7051
3070.3	27.7404
3072.43	33.5525
3074.57	29.6482
3076.7	23.7903
3078.84	31.5758
3080.97	19.8515
3083.1	37.4155
3085.24	35.4884
3087.37	27.6852
3089.5	15.9682
3091.63	33.691
3093.76	16.0769
3095.89	37.828
3098.02	37.9392
3100.14	32.1187
3102.27	30.2523
3104.4	36.3289
3106.52	44.4264
3108.65	34.6392
3110.77	44.7767
3112.89	30.9731
3115.01	27.114
3117.14	53.352
3119.26	39.4769
3121.38	45.7193
3123.5	47.9538
3125.62	56.2813
3127.73	56.5459
3129.85	34.4639
3131.97	55.0955
3134.08	41.0849
3136.2	41.3401
3138.31	49.7965
3140.43	43.8694
3142.54	50.2739
3144.65	27.7603
3146.76	69.3224
3148.87	59.1865
3150.98	78.0656
3153.09	55.3361
3155.2	49.2119
3157.31	59.7572
3159.42	41.0697
3161.52	70.4821
3163.63	68.5344
3165.73	68.6537
3167.84	62.4551
3169.94	64.6453
3172.05	62.6901
3174.15	77.5554
3176.25	71.2734
3178.35	64.9575
3180.45	75.5426
3182.55	81.8916
3184.65	81.8812
3186.75	86.1038
3188.84	79.6668
3190.94	77.5534
3193.04	88.2026
3195.13	90.3741
3197.23	103.254
3199.32	69.3349
3201.41	80.2499
3203.51	80.4673
3205.6	84.9984
3207.69	80.9986
3209.78	98.4948
3211.87	75.0951
3213.96	88.3549
3216.05	88.7007
3218.13	82.5091
3220.22	71.9129
3222.31	87.435
3224.39	72.4422
3226.48	70.5306
3228.56	81.7519
3230.64	71.0336
3232.73	88.9059
3234.81	80.3247
3236.89	62.8863
3238.97	76.3926
3241.05	78.8969
3243.13	48.0827
3245.21	72.866
3247.29	59.7164
3249.36	73.3602
3251.44	53.3616
3253.52	60.2141
3255.59	49.0686
3257.66	71.6052
3259.74	58.3089
3261.81	67.503
3263.88	63.213
3265.95	49.9098
3268.03	50.3802
3270.1	61.8387
3272.17	62.2428
3274.23	64.6643
3276.3	62.4135
3278.37	46.4809
3280.44	53.3933
3282.5	71.7839
3284.57	28.2681
3286.63	53.5574
3288.7	39.8133
3290.76	42.1444
3292.82	53.6828
3294.88	65.2372
3296.94	58.353
3299	37.6151
3301.06	49.2436
3303.12	46.9643
3305.18	44.6981
3307.24	49.3796
3309.3	35.4965
3311.35	44.8059
3313.41	42.4952
3315.46	37.8862
3317.52	58.8654
3319.57	44.952
3321.63	56.6846
3323.68	47.4534
3325.73	45.2071
3327.78	45.3289
3329.83	52.4777
3331.88	50.3377
3333.93	57.6226
3335.98	46.0431
3338.02	50.9699
3340.07	43.9891
3342.12	34.601
3344.16	39.3893
3346.21	41.8175
3348.25	51.3151
3350.3	46.6211
3352.34	68.0698
3354.38	60.9721
3356.42	51.5414
3358.46	49.2437
3360.5	58.8854
3362.54	70.9574
3364.58	44.711
3366.62	30.3929
3368.66	59.2498
3370.69	42.5254
3372.73	57.0021
3374.76	42.6064
3376.8	49.8459
3378.83	42.6261
3380.87	54.6908
3382.9	57.1102
3384.93	42.6224
3386.96	45.0286
3388.99	28.0871
3391.02	54.6644
3393.05	49.8051
3395.08	54.6539
3397.11	54.6803
3399.14	52.283
3401.16	49.8609
3403.19	57.1163
3405.21	44.9382
3407.24	42.4821
3409.26	52.1786
3411.29	52.1243
3413.31	52.0834
3415.33	59.3443
3417.35	37.3888
3419.37	44.6499
3421.39	68.9738
3423.41	51.8562
3425.43	34.7364
3427.45	44.4706
3429.46	46.9014
3431.48	64.0092
3433.5	49.3651
3435.51	76.3147
3437.53	39.6506
3439.54	54.4099
3441.55	42.2095
3443.57	49.6504
3445.58	52.2237
3447.59	42.5229
3449.6	54.9698
3451.61	55.1096
3453.62	35.5107
3455.63	30.7272
3457.64	35.8768
3459.64	55.9535
3461.65	36.2967
3463.66	41.4971
3465.66	49.2138
3467.67	44.4512
3469.67	49.6772
3471.67	42.3657
3473.68	39.9506
3475.68	45.1675
3477.68	42.8347
3479.68	53.1137
3481.68	73.5285
3483.68	45.9012
3485.68	51.1432
3487.68	28.4709
3489.67	59.1104
3491.67	59.2892
3493.67	36.5179
3495.66	39.1829
3497.66	49.5087
3499.65	41.9424
3501.64	31.7863
3503.64	36.9547
3505.63	47.2661
3507.62	44.724
3509.61	42.1411
3511.6	49.8043
3513.59	36.9256
3515.58	42.0202
3517.57	36.8337
3519.56	41.9284
3521.54	52.1658
3523.53	31.5486
3525.52	36.6651
3527.5	39.2165
3529.49	54.5974
3531.47	34.0055
3533.45	31.4839
3535.43	47.0468
3537.42	36.84
3539.4	36.9804
3541.38	29.3089
3543.36	39.7496
3545.34	50.193
3547.32	39.8729
3549.29	45.1071
3551.27	24.3193
3553.25	24.2186
3555.22	47.5955
3557.2	16.3824
3559.17	29.4029
3561.15	37.2434
3563.12	42.5052
3565.09	42.5732
3567.07	32.2241
3569.04	34.979
3571.01	32.4522
3572.98	50.8932
3574.95	14.3141
3576.92	43.3186
3578.88	30.3465
3580.85	33.1541
3582.82	46.5318
3584.79	28.2554
3586.75	17.8574
3588.72	28.6181
3590.68	34.1033
3592.64	21.0057
3594.61	37.1373
3596.57	45.3245
3598.53	37.5101
3600.49	26.9783
3602.45	35.1503
3604.41	11.1972
3606.37	30.0726
3608.33	27.5051
3610.29	27.6044
3612.25	22.3259
3614.2	25.1335
3616.16	33.2989
3618.12	33.403
3620.07	14.5742
3622.02	38.9013
3623.98	25.3761
3625.93	19.9448
3627.88	14.5125
3629.84	36.116
3631.79	19.8266
3633.74	36.0193
3635.69	14.3488
3637.64	17.0594
3639.58	3.54523
3641.53	44.2924
3643.48	30.8355
3645.43	11.9212
3647.37	17.496
3649.32	28.3131
3651.26	22.8954
3653.21	33.8202
3655.15	6.57323
3657.09	17.4801
3659.03	3.84035
3660.98	14.7481
3662.92	25.6494
3664.86	14.7292
3666.8	31.1404
3668.74	28.4348
3670.67	25.713
3672.61	12.0464
3674.55	1.14197
3676.49	25.867
3678.42	23.2237
3680.36	-1.37709
3682.29	20.7285
3684.23	4.36795
3686.16	4.52654
3688.09	21.2479
3690.02	-3.44827
3691.96	29.9292
3693.89	24.5603
3695.82	13.6066
3697.75	24.897
3699.68	11.1589
3701.61	22.4747
3703.53	30.9904
3705.46	-2.33517
3707.39	25.7994
3709.31	11.9822
3711.24	28.9841
3713.16	23.5567
3715.09	20.8982
3717.01	15.4043
3718.93	9.88728
3720.86	24.1048
3722.78	12.9208
3724.7	10.1861
3726.62	27.2435
3728.54	13.1855
3730.46	21.7793
3732.38	16.2227
3734.29	10.65
3736.21	-6.30229
3738.13	25.0756
3740.04	5.24321
3741.96	13.8671
3743.87	11.0974
3745.79	34.0048
3747.7	25.5137
3749.62	25.5737
3751.53	2.73904
3753.44	19.9275
3755.35	22.8059
3757.26	8.49387
3759.17	25.6702
3761.08	17.0639
3762.99	2.72423
3764.9	11.3005
3766.81	31.3538
3768.71	19.8954
3770.62	22.7848
3772.52	25.6853
3774.43	22.8425
3776.33	25.743
3778.24	5.67047
3780.14	14.3496
3782.04	28.8121
3783.95	5.87238
3785.85	14.6029
3787.75	8.91344
3789.65	-5.45464
3791.55	23.4901
3793.45	14.9212
3795.34	23.7198
3797.24	32.5488
3799.14	21.1016
3801.04	21.2483
3802.93	9.778
3804.83	21.5622
3806.72	18.8214
3808.62	30.651
3810.51	-4.20366
3812.4	25.1335
3814.29	28.2066
3816.19	16.6447
3818.08	25.5747
3819.97	19.8484
3821.86	14.104
3823.75	8.33965
3825.64	26.0713
3827.52	23.2445
3829.41	29.2602
3831.3	26.4605
3833.18	11.851
3835.07	9.02138
3836.95	3.22098
3838.84	26.9901
3840.72	24.1787
3842.61	18.4122
3844.49	12.5735
3846.37	27.4701
3848.25	12.6455
3850.13	21.591
3852.01	12.7132
3853.89	3.79993
3855.77	18.6824
3857.65	3.80138
3859.53	6.74135
3861.41	-14.0688
3863.28	30.5463
3865.16	-2.06244
3867.03	7.02843
3868.91	10.222
3870.78	1.4102
3872.66	28.2885
3874.53	40.2772
3876.4	19.4047
3878.27	22.4315
3880.14	22.474
3882.01	4.57542
3883.89	22.5814
3885.75	1.69449
3887.62	25.7237
3889.49	13.8229
3891.36	16.9134
3893.23	11.035
3895.09	26.2266
3896.96	23.3606
3898.82	2.43629
3900.69	11.5954
3902.55	26.7913
3904.42	-3.23793
3906.28	11.9697
3908.14	15.0955
3910	6.16454
3911.87	9.33971
3913.73	18.5639
3915.59	24.7957
3917.45	24.9908
3919.3	-11.2285
3921.16	19.3666
3923.02	10.4673
3924.88	35.0535
3926.73	29.1807
3928.59	1.90997
3930.45	5.14717
3932.3	2.24976
3934.15	8.50769
3936.01	-3.60495
3937.86	11.8506
3939.71	18.1579
3941.56	2.9893
3943.42	0.119385
3945.27	15.6848
3947.12	9.72005
3948.97	0.648468
3950.81	10.0581
3952.66	13.2984
3954.51	19.6237
3956.36	16.6826
3958.2	19.9042
3960.05	1.43941
3961.9	10.8287
3963.74	-1.45746
3965.58	7.92227
3967.43	4.89644
3969.27	14.2495
3971.11	1.91972
3972.96	17.4943
3974.8	11.3728
3976.64	5.24516
3978.48	14.6171
3980.32	2.2614
3982.16	11.6068
3984	5.45314
3985.83	11.7122
3987.67	2.45734
3989.51	5.62416
3991.34	27.4205
3993.18	24.4289
3995.01	21.4498
3996.85	34.019
3998.68	3.12521
