#Acq. time (s)=	45
#Accumulations=	2
#Range (cm-¹)=	100...4000
#Windows=	1
#Auto scanning=	Off
#Autofocus=	Off
#Macrospot=	Off
#AutoExposure=	Off
#Spike filter=	Multiple accum.
#Delay time (s)=	2
#Binning=	1
#Readout mode=	Signal
#DeNoise=	Off
#ICS correction=	On
#Dark correction=	Off
#Inst. Process=	Off
#Detector Gain=	Best Dynamic
#Detector ADC=	50 kHz EM
#Detector EM gain=	100
#Detector temperature (°C)=	-60.09
#Instrument=	LabRAM HR Evol
#Detector=	SIN-EM FIVIS
#Objective=	x100_VIS_LWD
#Grating=	150 (500nm)
#ND Filter=	100%
#Laser=	633nm_Edge
#Hole=	49.98
#Temperature=	0
#Range=	Visible
#StageXY=	75x50mm Scan+
#StageZ=	Z motor
#X (µm)=	0
#Y (µm)=	0
#Z (µm)=	4.4
#Full time(mm:ss)=	1:34
#Project=	21_11_22
#Sample=	BU04w
#Site=	
#Title=	BU04w-A-FF3-FI10-V_150 (500nm)_633nm_Edge_100%_x100_VIS_LWD_H50um_45sX2
#Remark=	
#Date=	22.11.2021 11:50
#Acquired=	22.11.2021 11:50:46
#Base:Fit=	16.12.2021 16:15:35
#Base:Edit=	16.12.2021 16:25:03
#Base:Edit=	16.12.2021 16:25:03
#Base:Edit=	16.12.2021 16:25:04
#Base:Edit=	16.12.2021 16:25:05
#Base:Edit=	16.12.2021 16:25:06
#Base:Edit=	16.12.2021 16:25:07
#Base:Edit=	16.12.2021 16:25:08
#Base:Sub=	16.12.2021 16:25:10
100.177	893.01
103.438	779.219
106.695	786.915
109.954	698.586
113.209	628.561
116.464	583.545
119.717	532.858
122.969	498.734
126.219	464.721
129.469	474.044
132.716	426.032
135.963	451.887
139.208	458.669
142.452	405.441
145.694	399.402
148.936	360.969
152.175	334.307
155.414	366.337
158.651	382.258
161.887	519.15
165.121	599.747
168.353	486.806
171.586	294.339
174.815	194.899
178.045	130.975
181.272	129.463
184.5	89.6088
187.724	98.7119
190.947	60.9516
194.17	30.1154
197.39	26.2391
200.611	29.329
203.829	-1.53973
207.045	26.7752
210.262	-2.07477
213.475	2.58606
216.688	12.1521
219.9	36.0872
223.11	28.6297
226.32	77.3824
229.527	236.374
232.733	364.969
235.939	524.964
239.142	511.002
242.344	325.196
245.546	198.847
248.745	135.138
251.943	80.9821
255.141	113.274
258.336	112.491
261.53	86.1794
264.723	80.8329
267.916	51.8782
271.106	34.4122
274.294	70.1358
277.483	69.8996
280.669	79.1288
283.854	138.602
287.038	144.038
290.221	91.6463
293.402	78.1043
296.582	2.15674
299.76	22.8429
302.938	52.9845
306.114	64.1967
309.288	72.6304
312.461	199.175
315.634	224.639
318.805	399.244
321.974	629.67
325.142	973.3
328.309	1154.57
331.475	1057.75
334.639	749.593
337.802	496.214
340.963	321.189
344.123	237.662
347.282	181.419
350.441	110.187
353.597	94.4847
356.752	123.979
359.906	138.369
363.058	147.092
366.209	191.533
369.36	189.908
372.509	138.518
375.656	116.237
378.802	48.0641
381.947	27.7798
385.09	29.2508
388.232	60.9518
391.373	64.67
394.512	38.476
397.652	63.0798
400.789	87.9974
403.925	84.5312
407.059	116.931
410.192	121.04
413.324	129.758
416.455	150.598
419.584	202.831
422.712	277.494
425.839	301.658
428.964	393.106
432.089	490.893
435.212	587.469
438.333	517.059
441.454	415.784
444.573	308.102
447.691	278.466
450.807	289.115
453.923	331.631
457.037	347.043
460.15	345.806
463.261	234.756
466.371	204.207
469.48	138.234
472.588	105.993
475.695	107.414
478.8	71.6476
481.904	110.323
485.007	102.403
488.108	105.65
491.208	88.406
494.307	138.287
497.405	162.939
500.502	147.558
503.597	185.382
506.691	251.156
509.784	279.673
512.874	334.402
515.964	337.821
519.053	270.397
522.141	273.128
525.227	270.284
528.312	210.381
531.396	242.371
534.479	211.583
537.559	179.736
540.639	195.648
543.718	180.377
546.796	141.33
549.873	122.699
552.948	148.564
556.022	120.488
559.093	96.8376
562.165	106.902
565.235	107.454
568.304	75.7984
571.372	108.052
574.437	79.9741
577.503	59.3887
580.567	54.8058
583.63	57.845
586.691	46.8785
589.75	60.3012
592.81	75.7458
595.868	138.706
598.924	165.543
601.98	165.682
605.033	126.777
608.086	122.351
611.138	113.352
614.188	112.783
617.236	126.476
620.285	124.182
623.332	102.262
626.376	122.682
629.42	109.76
632.464	90.941
635.506	84.111
638.545	104.405
641.585	90.5692
644.623	79.2966
647.659	103.039
650.695	94.6849
653.73	126.51
656.762	107.547
659.794	131.703
662.825	120.22
665.854	117.243
668.883	89.9981
671.91	64.9773
674.935	68.362
677.96	31.465
680.982	2.02524
684.005	25.9181
687.027	28.4117
690.045	32.0081
693.064	9.48575
696.082	12.1904
699.097	24.2458
702.113	21.2739
705.126	35.1579
708.139	26.4115
711.149	41.9731
714.16	38.2395
717.169	18.6913
720.176	39.4486
723.183	18.9808
726.187	25.5215
729.192	-8.37585
732.194	13.9873
735.196	11.0252
738.196	4.30948
741.196	15.3768
744.193	-2.51083
747.19	-2.58151
750.185	29.9903
753.18	17.955
756.173	6.78329
759.165	21.0844
762.155	21.5873
765.146	23.1825
768.133	8.01544
771.121	16.2135
774.107	17.887
777.092	18.5338
780.075	3.08868
783.058	12.9316
786.039	20.8249
789.02	2.29538
791.998	20.4558
794.975	8.3562
797.952	11.2599
800.927	11.2067
803.902	23.3408
806.874	3.35919
809.845	29.5297
812.817	16.9578
815.786	31.6061
818.755	25.5087
821.721	24.0909
824.686	27.3234
827.652	23.0526
830.615	36.698
833.576	31.9545
836.538	18.9169
839.498	25.6897
842.458	39.2511
845.415	9.60321
848.37	36.2462
851.327	27.3295
854.28	15.605
857.233	38.6992
860.184	33.6167
863.135	19.086
866.084	42.3049
869.032	55.1705
871.98	47.0989
874.925	47.3854
877.87	58.9377
880.813	54.3432
883.756	53.4587
886.697	41.091
889.636	93.1679
892.576	66.4186
895.513	68.0876
898.45	61.0325
901.385	49.0906
904.318	52.2594
907.253	64.8551
910.184	52.839
913.114	45.5903
916.044	91.9825
918.973	74.6541
921.9	72.4567
924.826	103.356
927.75	119.317
930.674	146.908
933.596	156.536
936.519	217.47
939.439	237.335
942.357	290.413
945.275	313.398
948.192	411.579
951.107	485.384
954.023	529.832
956.936	505.593
959.848	469.583
962.759	398.909
965.669	403.475
968.577	359.17
971.485	340.444
974.391	384.868
977.296	431.861
980.201	499.539
983.104	575.613
986.006	644.739
988.907	693.585
991.806	744.195
994.704	621.672
997.602	585.416
1000.5	516.897
1003.39	473.363
1006.29	475.828
1009.18	472.797
1012.07	436.913
1014.96	530.769
1017.85	548.285
1020.74	648.097
1023.63	750.365
1026.51	765.075
1029.4	681.195
1032.28	558.769
1035.16	426.555
1038.04	304.606
1040.92	270.947
1043.8	226.549
1046.68	200.448
1049.56	192.434
1052.43	170.741
1055.31	157.661
1058.18	153.178
1061.05	148.54
1063.93	106.849
1066.8	125.115
1069.67	118.21
1072.53	113.232
1075.4	141.201
1078.26	175.865
1081.13	171.67
1083.99	207.231
1086.85	249.545
1089.72	282.3
1092.58	350.803
1095.44	507.408
1098.29	609.625
1101.15	596.717
1104	496.914
1106.86	379.284
1109.71	292.151
1112.56	216.185
1115.42	163.836
1118.27	151.206
1121.11	136.368
1123.96	123.32
1126.81	117.047
1129.65	119.682
1132.5	149.653
1135.34	113.159
1138.18	179.441
1141.03	183.163
1143.87	247.628
1146.7	331.619
1149.54	447.382
1152.38	590.532
1155.21	744.278
1158.05	682.059
1160.88	464.109
1163.71	304.952
1166.55	165.831
1169.37	153.537
1172.2	85.3725
1175.03	69.2199
1177.86	83.3952
1180.68	39.0208
1183.51	69.99
1186.33	20.1176
1189.15	38.7065
1191.98	47.5664
1194.8	41.05
1197.61	22.7737
1200.43	30.1484
1203.25	23.9991
1206.06	31.6158
1208.88	-1.96118
1211.69	21.4807
1214.51	16.4906
1217.32	6.57416
1220.13	4.59915
1222.94	24.5313
1225.74	16.6255
1228.55	29.6495
1231.36	18.6042
1234.16	11.4386
1236.97	30.3236
1239.77	36.0555
1242.57	14.4024
1245.37	48.1065
1248.17	43.3609
1250.97	37.4534
1253.77	63.8925
1256.56	22.4203
1259.36	91.9563
1262.15	96.6715
1264.94	73.1844
1267.74	49.7416
1270.53	44.3669
1273.32	78.1399
1276.11	124.895
1278.89	667.276
1281.68	798.481
1284.46	229.515
1287.25	33.9063
1290.03	39.6636
1292.81	44.4898
1295.59	24.4485
1298.38	21.4607
1301.15	9.51636
1303.93	32.7222
1306.71	33.0692
1309.48	32.5623
1312.26	17.2227
1315.03	18.9272
1317.81	13.623
1320.58	21.4509
1323.35	34.4024
1326.12	-2.11288
1328.88	16.9921
1331.65	27.0353
1334.42	44.1273
1337.18	2.1279
1339.95	22.2166
1342.71	9.48679
1345.47	28.3946
1348.23	19.6354
1350.99	20.0681
1353.75	28.6625
1356.51	47.4615
1359.26	33.3333
1362.02	43.7814
1364.77	55.1602
1367.53	54.1226
1370.28	52.0288
1373.03	50.9396
1375.78	71.4458
1378.53	124.786
1381.28	529.228
1384.03	1403.59
1386.77	546.29
1389.52	99.792
1392.26	67.0049
1395	33.2635
1397.74	72.7172
1400.49	47.3607
1403.23	90.898
1405.96	111.898
1408.7	63.9456
1411.44	31.4081
1414.17	54.59
1416.91	29.2985
1419.64	21.5213
1422.37	-1.77402
1425.11	16.3922
1427.84	13.8156
1430.56	12.3062
1433.29	35.749
1436.02	24.8466
1438.74	27.4778
1441.47	16.4761
1444.19	4.50372
1446.92	10.2047
1449.64	-3.07047
1452.36	10.8125
1455.08	5.76193
1457.8	14.2621
1460.52	23.7614
1463.23	-1.45282
1465.95	10.0452
1468.66	4.72122
1471.38	-8.98862
1474.09	8.81192
1476.8	22.4689
1479.51	-4.74789
1482.22	27.8697
1484.93	-4.56924
1487.64	-0.205994
1490.34	21.0394
1493.05	18.1624
1495.75	22.7276
1498.46	10.4284
1501.16	18.2232
1503.86	20.7609
1506.56	22.2916
1509.26	5.88745
1511.96	5.34842
1514.65	4.87204
1517.35	21.4384
1520.05	6.12332
1522.74	23.8396
1525.43	14.942
1528.13	1.66278
1530.82	1.27466
1533.51	15.9991
1536.2	25.28
1538.88	23.65
1541.57	23.0992
1544.25	39.6527
1546.94	19.2411
1549.62	15.9853
1552.31	-0.38739
1554.99	4.70184
1557.67	20.5269
1560.35	13.7651
1563.03	18.8854
1565.71	11.0386
1568.38	18.2809
1571.06	25.5078
1573.73	21.9714
1576.41	24.9503
1579.08	16.2426
1581.75	20.4576
1584.42	17.1747
1587.09	41.9153
1589.76	7.46304
1592.43	24.76
1595.09	21.6407
1597.76	15.3483
1600.42	22.0044
1603.09	8.23303
1605.75	18.2635
1608.41	14.3473
1611.07	20.2511
1613.73	31.7112
1616.39	25.8552
1619.05	21.114
1621.7	17.4365
1624.36	30.1495
1627.01	23.1584
1629.67	37.0095
1632.32	13.4463
1634.97	32.6805
1637.62	28.689
1640.27	25.4149
1642.92	51.016
1645.57	33.5407
1648.22	30.365
1650.86	30.4632
1653.51	40.5081
1656.15	34.9619
1658.79	6.06989
1661.43	41.4475
1664.07	15.8351
1666.71	26.7683
1669.35	26.6065
1671.99	7.57794
1674.63	20.7091
1677.26	23.7843
1679.9	22.4846
1682.53	31.0221
1685.16	36.1678
1687.79	23.5894
1690.43	23.2417
1693.05	25.1768
1695.68	15.0391
1698.31	23.8676
1700.94	20.774
1703.56	15.1674
1706.19	44.8734
1708.81	9.9364
1711.44	19.0971
1714.06	17.7636
1716.68	15.7141
1719.3	7.3598
1721.92	29.8996
1724.53	34.4232
1727.15	5.52429
1729.77	21.4373
1732.38	13.7955
1735	29.7311
1737.61	20.9146
1740.22	18.8402
1742.83	16.7551
1745.44	36.1132
1748.05	21.5339
1750.66	19.3168
1753.27	24.9781
1755.87	35.1357
1758.48	32.7462
1761.08	3.12048
1763.69	32.3694
1766.29	19.7509
1768.89	20.7394
1771.49	3.61011
1774.09	28.4219
1776.69	11.3507
1779.29	29.5113
1781.88	7.99838
1784.48	12.6159
1787.07	2.4881
1789.66	14.0736
1792.26	22.2487
1794.85	35.0273
1797.44	18.1423
1800.03	33.3414
1802.62	32.5196
1805.21	32.8656
1807.79	22.8003
1810.38	25.28
1812.96	30.0662
1815.55	32.5548
1818.13	33.9174
1820.71	24.8366
1823.29	25.0384
1825.87	15.9731
1828.45	23.1241
1831.03	8.26871
1833.61	10.7888
1836.18	21.5316
1838.76	23.997
1841.33	22.9345
1843.91	16.0098
1846.48	25.4059
1849.05	32.4476
1851.62	36.0143
1854.19	37.0666
1856.76	31.2538
1859.33	30.1301
1861.89	22.0413
1864.46	24.4785
1867.02	38.7733
1869.59	27.0966
1872.15	21.2202
1874.71	24.7046
1877.27	35.285
1879.83	32.8394
1882.39	9.16183
1884.95	31.4566
1887.51	12.4221
1890.06	21.5758
1892.62	27.1468
1895.17	27.9768
1897.73	9.95178
1900.28	10.9329
1902.83	26.3175
1905.38	7.44513
1907.93	34.7926
1910.48	27.9321
1913.03	18.7754
1915.57	12.0511
1918.12	7.56586
1920.66	10.8461
1923.21	38.3479
1925.75	40.8301
1928.29	24.1646
1930.83	30.2243
1933.37	7.49844
1935.91	35.1063
1938.45	29.0894
1940.99	26.6247
1943.53	21.7144
1946.06	28.7925
1948.6	20.2069
1951.13	38.0335
1953.66	42.5772
1956.19	22.9991
1958.73	10.6221
1961.26	15.0989
1963.78	17.1377
1966.31	9.51334
1968.84	13.8557
1971.36	19.3614
1973.89	9.1897
1976.41	25.527
1978.94	28.6107
1981.46	13.6277
1983.98	14.3053
1986.5	39.0511
1989.02	13.2994
1991.54	-1.61371
1994.06	6.33835
1996.58	16.7158
1999.09	12.7059
2001.61	15.934
2004.12	-2.43964
2006.63	15.3187
2009.15	29.4855
2011.66	29.2877
2014.17	13.4088
2016.68	4.75848
2019.19	16.4977
2021.69	10.215
2024.2	-3.21805
2026.71	32.8477
2029.21	14.6676
2031.72	7.40332
2034.22	20.7436
2036.72	13.507
2039.22	17.1799
2041.72	6.31458
2044.22	11.2319
2046.72	7.67401
2049.22	8.98944
2051.71	6.63113
2054.21	8.91763
2056.71	10.2054
2059.2	11.5237
2061.69	32.4196
2064.18	14.1731
2066.68	31.462
2069.17	14.368
2071.66	16.8987
2074.14	15.7515
2076.63	36.7315
2079.12	-0.188049
2081.6	31.8772
2084.09	8.38959
2086.57	0.880341
2089.06	26.6848
2091.54	14.3051
2094.02	8.14819
2096.5	8.267
2098.98	-7.76041
2101.46	37.0966
2103.93	12.414
2106.41	1.3992
2108.89	17.8356
2111.36	28.1018
2113.84	34.6931
2116.31	2.45078
2118.78	49.1976
2121.25	30.6954
2123.72	0.783752
2126.19	36.3425
2128.66	18.9364
2131.13	31.7971
2133.59	26.9279
2136.06	25.8151
2138.53	31.0179
2140.99	8.26199
2143.45	43.956
2145.92	13.4637
2148.38	22.3631
2150.84	17.1747
2153.3	40.0227
2155.76	-2.2551
2158.21	19.249
2160.67	29.2288
2163.13	9.76718
2165.58	3.02637
2168.04	47.3803
2170.49	1.0188
2172.94	32.7499
2175.39	32.502
2177.84	36.0549
2180.29	21.5618
2182.74	8.33511
2185.19	-3.70459
2187.64	29.1463
2190.08	-5.79425
2192.53	32.3045
2194.98	10.2292
2197.42	16.4322
2199.86	0.903778
2202.3	5.94086
2204.74	-10.7973
2207.18	16.1812
2209.62	16.2452
2212.06	12.4842
2214.5	0.983582
2216.93	20.5087
2219.37	34.9282
2221.81	14.4411
2224.24	5.5647
2226.67	20.024
2229.11	-0.562439
2231.54	11.3238
2233.97	11.5168
2236.4	20.8372
2238.83	13.2028
2241.25	17.3054
2243.68	-8.67078
2246.1	13.7973
2248.53	7.43777
2250.96	3.67938
2253.38	27.5259
2255.8	18.5005
2258.22	12.1416
2260.64	22.9132
2263.06	23.0781
2265.48	13.9047
2267.9	25.8666
2270.32	-9.95444
2272.73	16.5034
2275.15	19.0419
2277.56	-2.3634
2279.98	12.0493
2282.39	22.4068
2284.8	18.0721
2287.21	17.6773
2289.62	14.6584
2292.03	16.9319
2294.44	5.896
2296.85	-5.09094
2299.26	27.9489
2301.66	9.07916
2304.07	12.9407
2306.47	-0.440765
2308.88	6.23749
2311.28	2.31113
2313.68	-1.60437
2316.08	6.59555
2318.48	1.4523
2320.88	-11.7855
2323.28	27.3715
2325.68	72.0908
2328.07	40.0725
2330.47	-4.16589
2332.86	16.4403
2335.26	10.0284
2337.65	9.04364
2340.04	8.05658
2342.43	32.9883
2344.82	-23.7767
2347.21	5.4111
2349.6	-6.46783
2351.99	10.4167
2354.38	10.8021
2356.76	19.3271
2359.15	47.1256
2361.53	20.9669
2363.92	8.69769
2366.3	24.0152
2368.68	25.5369
2371.06	20.119
2373.44	7.74634
2375.82	21.6838
2378.2	20.392
2380.58	2.28088
2382.95	0.801147
2385.33	18.6655
2387.71	14.2892
2390.08	15.4058
2392.45	5.30774
2394.83	9.12244
2397.2	-9.43329
2399.57	24.9109
2401.94	7.77527
2404.31	1.68451
2406.68	8.15271
2409.04	10.616
2411.41	14.7611
2413.78	-1.81738
2416.14	4.4071
2418.51	13.9767
2420.87	-6.52155
2423.23	10.3931
2425.59	17.2286
2427.95	0.547974
2430.31	-4.8764
2432.67	5.26196
2435.03	11.2485
2437.39	10.2196
2439.75	14.8331
2442.1	0.986328
2444.46	22.658
2446.81	24.4592
2449.16	2.02045
2451.52	13.8053
2453.87	8.41364
2456.22	-2.72211
2458.57	7.65192
2460.92	13.7244
2463.27	3.9975
2465.61	25.915
2467.96	17.5615
2470.3	-8.18402
2472.65	44.1046
2474.99	9.62347
2477.34	-1.70294
2479.68	29.045
2482.02	13.2889
2484.36	13.4788
2486.7	13.5872
2489.04	6.41241
2491.38	26.9501
2493.72	2.20898
2496.05	36.0107
2498.39	9.74982
2500.72	24.4832
2503.06	5.46112
2505.39	12.8212
2507.72	30.454
2510.06	17.1781
2512.39	6.78973
2514.72	34.6649
2517.04	5.0744
2519.37	16.8303
2521.7	13.8819
2524.03	-2.39008
2526.35	43.3837
2528.68	15.257
2531	9.29254
2533.33	37.4896
2535.65	28.6705
2537.97	19.8603
2540.29	11.0499
2542.61	26.0403
2544.93	-0.644531
2547.25	-6.44397
2549.57	13.0865
2551.88	29.6874
2554.2	23.8582
2556.51	14.9299
2558.83	5.96039
2561.14	15.1063
2563.46	34.7844
2565.77	18.5071
2568.08	33.8043
2570.39	-6.60547
2572.7	13.2731
2575.01	4.44464
2577.31	0.0891724
2579.62	7.78253
2581.93	27.5615
2584.23	9.26801
2586.54	16.7549
2588.84	1.38275
2591.15	22.2969
2593.45	20.6313
2595.75	0.756958
2598.05	-3.79791
2600.35	5.26068
2602.65	24.9776
2604.95	21.796
2607.24	33.8592
2609.54	-6.01758
2611.84	5.90558
2614.13	16.3525
2616.42	0.7901
2618.72	17.4172
2621.01	-10.3984
2623.3	10.824
2625.59	25.9774
2627.88	22.7665
2630.17	18.1726
2632.46	2.93744
2634.75	10.8077
2637.04	1.89417
2639.32	-10.0122
2641.61	19.7037
2643.89	27.8983
2646.18	22.2094
2648.46	24.1661
2650.74	-3.41595
2653.02	14.1194
2655.3	20.4545
2657.58	1.75568
2659.86	42.3501
2662.14	29.8079
2664.42	12.487
2666.69	20.1347
2668.97	31.1207
2671.24	13.9045
2673.52	34.5486
2675.79	16.1392
2678.06	23.2567
2680.33	37.0036
2682.61	3.03857
2684.88	10.195
2687.15	52.3906
2689.41	10.219
2691.68	15.6085
2693.95	16.209
2696.22	17.5699
2698.48	17.7149
2700.74	22.681
2703.01	13.1448
2705.27	11.5788
2707.53	16.4482
2709.8	58.3293
2712.06	3.52814
2714.32	10.0102
2716.57	13.4761
2718.83	13.4842
2721.09	16.7901
2723.35	8.68256
2725.6	29.6315
2727.86	5.16473
2730.11	21.1835
2732.37	27.3432
2734.62	33.6081
2736.87	8.89581
2739.12	-2.84705
2741.37	26.243
2743.62	4.91138
2745.87	4.7948
2748.12	29.1894
2750.37	26.0093
2752.61	6.94305
2754.86	8.78308
2757.1	20.3113
2759.35	41.5903
2761.59	11.9118
2763.83	43.1075
2766.08	25.1111
2768.32	0.527588
2770.56	31.7545
2772.8	7.13239
2775.04	5.6405
2777.27	5.90295
2779.51	29.3524
2781.75	-4.91718
2783.98	-7.81836
2786.22	35.8969
2788.45	29.7272
2790.68	18.5014
2792.92	17.2379
2795.15	14.2633
2797.38	6.12396
2799.61	18.1155
2801.84	38.4553
2804.07	-11.8772
2806.3	6.68561
2808.52	13.4545
2810.75	11.7706
2812.98	40.4575
2815.2	31.8929
2817.42	33.4799
2819.65	-7.22559
2821.87	11.3107
2824.09	28.2154
2826.31	38.3621
2828.53	0.937134
2830.75	16.1197
2832.97	15.994
2835.19	37.9592
2837.41	25.9143
2839.62	20.6721
2841.84	1.7843
2844.05	15.3226
2846.27	-3.48529
2848.48	56.3247
2850.69	30.7263
2852.9	25.7359
2855.12	31.0975
2857.33	26.1701
2859.54	21.2
2861.74	-9.52405
2863.95	9.75342
2866.16	18.7953
2868.37	-11.9464
2870.57	16.1273
2872.78	18.233
2874.98	42.9686
2877.18	3.37372
2879.39	-1.42438
2881.59	23.5026
2883.79	45.0565
2885.99	7.10339
2888.19	28.6742
2890.39	25.657
2892.59	27.8925
2894.78	8.94342
2896.98	9.53467
2899.18	3.04114
2901.37	15.9929
2903.57	27.0578
2905.76	43.4691
2907.95	36.7262
2910.15	37.0687
2912.34	24.6888
2914.53	17.6417
2916.72	19.508
2918.91	21.4789
2921.09	-8.86841
2923.28	29.0599
2925.47	34.7595
2927.65	42.324
2929.84	19.209
2932.02	8.71838
2934.21	48.7603
2936.39	41.6704
2938.57	-3.66833
2940.75	19.8901
2942.94	16.2518
2945.12	68.9594
2947.29	23.243
2949.47	-2.44214
2951.65	42.9973
2953.83	53.7998
2956	28.077
2958.18	7.78571
2960.36	42.3673
2962.53	36.7571
2964.7	38.4788
2966.88	10.928
2969.05	36.5676
2971.22	18.1808
2973.39	29.1926
2975.56	36.5446
2977.73	25.4836
2979.9	21.7767
2982.06	36.6011
2984.23	23.8313
2986.4	40.6738
2988.56	37.2318
2990.73	15.257
2992.89	15.5705
2995.05	62.3503
2997.21	38.5557
2999.38	3.52533
3001.54	61.8825
3003.7	13.754
3005.86	34.8831
3008.01	42.9021
3010.17	9.52075
3012.33	68.2439
3014.49	8.41443
3016.64	75.124
3018.8	22.769
3020.95	46.1288
3023.1	56.1675
3025.26	48.985
3027.41	41.6569
3029.56	32.353
3031.71	17.2419
3033.86	59.402
3036.01	65.1659
3038.16	61.2355
3040.31	40.3413
3042.45	73.0316
3044.6	63.4159
3046.74	46.0605
3048.89	47.9246
3051.03	42.0704
3053.18	70.933
3055.32	47.7698
3057.46	76.7559
3059.6	24.4971
3061.74	43.793
3063.88	59.2462
3066.02	76.6754
3068.16	45.5837
3070.3	51.3616
3072.43	68.8203
3074.57	37.6746
3076.7	64.9367
3078.84	68.8533
3080.97	49.3376
3083.1	35.6485
3085.24	92.5094
3087.37	53.554
3089.5	69.5474
3091.63	62.0906
3093.76	50.7495
3095.89	94.6296
3098.02	85.3517
3100.14	83.9377
3102.27	70.7056
3104.4	101.14
3106.52	99.9447
3108.65	116.681
3110.77	49.7614
3112.89	88.543
3115.01	93.3531
3117.14	106.265
3119.26	125.244
3121.38	92.0364
3123.5	107.166
3125.62	118.37
3127.73	105.342
3129.85	104.523
3131.97	189.4
3134.08	141.838
3136.2	106.319
3138.31	134.212
3140.43	139.508
3142.54	153.003
3144.65	149.936
3146.76	150.93
3148.87	170.58
3150.98	158.951
3153.09	157.487
3155.2	170.609
3157.31	137.792
3159.42	180.143
3161.52	174.488
3163.63	177.211
3165.73	171.421
3167.84	186.586
3169.94	237.502
3172.05	181.362
3174.15	162.776
3176.25	196.748
3178.35	194.733
3180.45	198.971
3182.55	222.204
3184.65	211.514
3186.75	221.98
3188.84	213.114
3190.94	225.844
3193.04	215.304
3195.13	172.889
3197.23	158.304
3199.32	143.957
3201.41	208.985
3203.51	192.766
3205.6	232.336
3207.69	224.995
3209.78	187.438
3211.87	240.363
3213.96	196.313
3216.05	178.172
3218.13	240.157
3220.22	252.237
3222.31	212.1
3224.39	180.513
3226.48	203.559
3228.56	209.091
3230.64	212.374
3232.73	171.737
3234.81	154.947
3236.89	193.345
3238.97	165.632
3241.05	164.553
3243.13	134.582
3245.21	162.649
3247.29	179.213
3249.36	193.685
3251.44	169.657
3253.52	159.043
3255.59	193.004
3257.66	141.684
3259.74	149.22
3261.81	154.487
3263.88	175.732
3265.95	120.373
3268.03	122.515
3270.1	168.356
3272.17	161.048
3274.23	157.049
3276.3	154.838
3278.37	150.543
3280.44	162.182
3282.5	141.781
3284.57	130.511
3286.63	162.841
3288.7	119.351
3290.76	107.966
3292.82	137.97
3294.88	91.9399
3296.94	138.098
3299	98.9594
3301.06	108.503
3303.12	134.038
3305.18	120.33
3307.24	145.991
3309.3	102.042
3311.35	148.55
3313.41	129.984
3315.46	113.87
3317.52	125.566
3319.57	146.781
3321.63	107.371
3323.68	103.101
3325.73	94.0886
3327.78	122.682
3329.83	99.686
3331.88	126.375
3333.93	106.14
3335.98	116.396
3338.02	117.272
3340.07	103.521
3342.12	96.7389
3344.16	108.765
3346.21	135.072
3348.25	149.249
3350.3	97.155
3352.34	154.313
3354.38	135.337
3356.42	80.8527
3358.46	107.371
3360.5	129.153
3362.54	124.739
3364.58	141.757
3366.62	151.597
3368.66	67.8891
3370.69	82.5285
3372.73	97.0667
3374.76	75.4576
3376.8	123.573
3378.83	87.3575
3380.87	147.564
3382.9	140.236
3384.93	72.4985
3386.96	106.154
3388.99	98.7142
3391.02	62.1765
3393.05	107.917
3395.08	83.5823
3397.11	88.3835
3399.14	105.33
3401.16	66.3695
3403.19	100.071
3405.21	124.072
3407.24	89.8013
3409.26	118.705
3411.29	118.31
3413.31	115.541
3415.33	73.8015
3417.35	110.004
3419.37	80.4094
3421.39	111.706
3423.41	103.984
3425.43	88.9834
3427.45	71.6425
3429.46	103.174
3431.48	78.6074
3433.5	98.0673
3435.51	95.6108
3437.53	83.4189
3439.54	95.7767
3441.55	90.9854
3443.57	66.6227
3445.58	128.409
3447.59	89.5465
3449.6	131.87
3451.61	100.266
3453.62	73.6671
3455.63	89.1721
3457.64	82.5662
3459.64	75.9728
3461.65	74.3549
3463.66	100.157
3465.66	91.0977
3467.67	69.4987
3469.67	70.2958
3471.67	66.0445
3473.68	76.3533
3475.68	61.952
3477.68	105.44
3479.68	93.533
3481.68	89.1469
3483.68	125.216
3485.68	103.062
3487.68	103.661
3489.67	78.8134
3491.67	71.7153
3493.67	95.127
3495.66	118.478
3497.66	111.181
3499.65	78.2303
3501.64	73.2977
3503.64	86.1489
3505.63	88.7958
3507.62	80.9935
3509.61	111.504
3511.6	80.3071
3513.59	77.3425
3515.58	105.19
3517.57	81.6332
3519.56	91.4869
3521.54	91.0443
3523.53	88.054
3525.52	82.5678
3527.5	87.3977
3529.49	84.2849
3531.47	66.0766
3533.45	45.5122
3535.43	61.1548
3537.42	76.9852
3539.4	51.5778
3541.38	51.8012
3543.36	49.35
3545.34	59.7902
3547.32	62.4097
3549.29	54.5521
3551.27	46.5269
3553.25	61.4008
3555.22	48.0562
3557.2	53.0162
3559.17	37.2275
3561.15	55.3469
3563.12	57.9312
3565.09	42.3289
3567.07	76.4457
3569.04	48.1495
3571.01	66.6458
3572.98	56.4244
3574.95	72.5019
3576.92	62.4464
3578.88	76.1404
3580.85	39.912
3582.82	72.2079
3584.79	54.4225
3586.75	36.5694
3588.72	50.4333
3590.68	66.9846
3592.64	83.5779
3594.61	49.6646
3596.57	34.3145
3598.53	69.5475
3600.49	78.0339
3602.45	73.1946
3604.41	12.0677
3606.37	41.8746
3608.33	47.536
3610.29	23.577
3612.25	56.0595
3614.2	51.0115
3616.16	34.9771
3618.12	8.20044
3620.07	62.2198
3622.02	51.2441
3623.98	40.0677
3625.93	45.0674
3627.88	36.5603
3629.84	60.4503
3631.79	24.6989
3633.74	32.3153
3635.69	26.5074
3637.64	1.87421
3639.58	28.8569
3641.53	4.55615
3643.48	15.5826
3645.43	23.9327
3647.37	43.4116
3649.32	10.1171
3651.26	31.7081
3653.21	4.30133
3655.15	50.3317
3657.09	-4.46454
3659.03	44.325
3660.98	35.8293
3662.92	32.7077
3664.86	2.36823
3666.8	21.2668
3668.74	15.5981
3670.67	18.0629
3672.61	36.9714
3674.55	45.1652
3676.49	-23.2891
3678.42	9.75208
3680.36	9.99097
3682.29	15.8403
3684.23	30.0704
3686.16	-2.40308
3688.09	17.4756
3690.02	42.9572
3691.96	24.2443
3693.89	2.56982
3695.82	11.2687
3697.75	34.0872
3699.68	12.3757
3701.61	32.4598
3703.53	27.2841
3705.46	33.4984
3707.39	17.3436
3709.31	6.73071
3711.24	-3.93787
3713.16	38.7446
3715.09	16.6863
3717.01	42.3801
3718.93	53.9742
3720.86	14.7607
3722.78	23.4417
3724.7	34.9056
3726.62	20.8721
3728.54	26.6692
3730.46	15.4756
3732.38	18.5466
3734.29	32.9538
3736.21	16.128
3738.13	39.0612
3740.04	27.8235
3741.96	13.6569
3743.87	13.7374
3745.79	13.7692
3747.7	19.4628
3749.62	10.8094
3751.53	16.3648
3753.44	44.7549
3755.35	24.4384
3757.26	6.90411
3759.17	26.5472
3761.08	17.5095
3762.99	19.9369
3764.9	5.13287
3766.81	4.68903
3768.71	7.21625
3770.62	18.4133
3772.52	26.7933
3774.43	29.4219
3776.33	6.20062
3778.24	-2.58521
3780.14	28.9655
3782.04	14.5983
3783.95	0.302795
3785.85	14.8055
3787.75	3.31366
3789.65	0.403564
3791.55	0.407532
3793.45	23.6572
3795.34	23.9138
3797.24	41.6194
3799.14	18.7768
3801.04	-6.97314
3802.93	13.7323
3804.83	2.54333
3806.72	23.4052
3808.62	35.5672
3810.51	27.2646
3812.4	21.8003
3814.29	28.013
3816.19	2.01715
3818.08	14.0757
3819.97	17.3209
3821.86	17.5975
3823.75	6.06818
3825.64	44.4038
3827.52	0.473511
3829.41	12.4895
3831.3	33.4659
3833.18	36.7771
3835.07	-1.30389
3836.95	28.4924
3838.84	19.8292
3840.72	11.312
3842.61	-11.967
3844.49	17.7947
3846.37	50.3698
3848.25	17.4269
3850.13	14.2706
3852.01	17.0366
3853.89	25.5789
3855.77	28.3002
3857.65	27.8193
3859.53	27.2597
3861.41	17.9693
3863.28	5.7948
3865.16	26.8589
3867.03	-8.32147
3868.91	-4.54547
3870.78	28.7263
3872.66	19.4057
3874.53	25.1992
3876.4	25.0337
3878.27	9.91602
3880.14	0.791687
3882.01	6.6499
3883.89	0.597656
3885.75	15.551
3887.62	-2.38055
3889.49	9.67236
3891.36	18.808
3893.23	4.10931
3895.09	31.7368
3896.96	32.1099
3898.82	38.4856
3900.69	14.8089
3902.55	3.12787
3904.42	24.5042
3906.28	21.8782
3908.14	37.2247
3910	1.36945
3911.87	20.0291
3913.73	20.5049
3915.59	-0.109863
3917.45	3.58575
3919.3	7.38916
3921.16	35.6611
3923.02	6.16187
3924.88	25.2838
3926.73	13.9002
3928.59	11.6094
3930.45	21.5215
3932.3	12.9709
3934.15	44.063
3936.01	7.82074
3937.86	17.4636
3939.71	18.1105
3941.56	21.9092
3943.42	59.7203
3945.27	5.11115
3947.12	33.6183
3948.97	12.7741
3950.81	38.0712
3952.66	29.3997
3954.51	42.2966
3956.36	24.3028
3958.2	43.2993
3960.05	3.37915
3961.9	6.79108
3963.74	47.3771
3965.58	13.5415
3967.43	41.5917
3969.27	19.9619
3971.11	13.9012
3972.96	-4.521
3974.8	32.8901
3976.64	42.3836
3978.48	27.0297
3980.32	14.6815
3982.16	2.28375
3984	42.6569
3985.83	14.8527
3987.67	58.3299
3989.51	8.88293
3991.34	46.3911
3993.18	6.4798
3995.01	28.6904
3996.85	23.1332
3998.68	26.9468
