#Acq. time (s)=	45
#Accumulations=	2
#Range (cm-¹)=	100...4000
#Windows=	1
#Auto scanning=	Off
#Autofocus=	Off
#Macrospot=	Off
#AutoExposure=	Off
#Spike filter=	Multiple accum.
#Delay time (s)=	2
#Binning=	1
#Readout mode=	Signal
#DeNoise=	Off
#ICS correction=	On
#Dark correction=	Off
#Inst. Process=	Off
#Detector Gain=	Best Dynamic
#Detector ADC=	50 kHz HS
#Detector temperature (°C)=	-60.09
#Instrument=	LabRAM HR Evol
#Detector=	SIN-EM FIVIS
#Objective=	x100_VIS_LWD
#Grating=	150 (500nm)
#ND Filter=	100%
#Laser=	633nm_Edge
#Hole=	49.98
#Temperature=	0
#Range=	Visible
#StageXY=	75x50mm Scan+
#StageZ=	Z motor
#X (µm)=	0
#Y (µm)=	0
#Z (µm)=	-9.5
#Full time(mm:ss)=	1:35
#Project=	21_11_22
#Sample=	BU04w
#Site=	
#Title=	BU04w-A-FF3-FI09-V_150 (500nm)_633nm_Edge_100%_x100_VIS_LWD_H50um_45sX2
#Remark=	
#Date=	22.11.2021 12:39
#Acquired=	22.11.2021 12:39:01
#Base:Fit=	16.12.2021 16:15:35
#Base:Edit=	16.12.2021 16:24:49
#Base:Edit=	16.12.2021 16:24:50
#Base:Sub=	16.12.2021 16:24:53
100.177	533.596
103.438	499.084
106.695	471.692
109.954	462.832
113.209	425.7
116.464	417.555
119.717	412.567
122.969	395.55
126.219	404.641
129.469	401.678
132.716	425.752
135.963	461.623
139.208	469.012
142.452	445.166
145.694	370.959
148.936	337.197
152.175	334.406
155.414	428.669
158.651	587.416
161.887	757.108
165.121	673.182
168.353	453.263
171.586	267.024
174.815	172.025
178.045	120.346
181.272	82.3098
184.5	48.2707
187.724	58.4939
190.947	38.2495
194.17	17.3021
197.39	15.7042
200.611	2.92056
203.829	7.6394
207.045	16.313
210.262	7.02481
213.475	-0.171478
216.688	34.7855
219.9	44.1339
223.11	107.962
226.32	232.807
229.527	401.256
232.733	609.732
235.939	693.619
239.142	533.34
242.344	310.659
245.546	196.785
248.745	168.455
251.943	154.476
255.141	174.776
258.336	182.91
261.53	149.429
264.723	134.112
267.916	91.433
271.106	95.3693
274.294	89.9416
277.483	165.242
280.669	213.083
283.854	226.829
287.038	178.078
290.221	137.923
293.402	74.1623
296.582	63.5716
299.76	46.4492
302.938	83.3213
306.114	115.488
309.288	176.069
312.461	263.126
315.634	425.727
318.805	727.955
321.974	1171.86
325.142	1525.14
328.309	1460.45
331.475	1072.47
334.639	689.255
337.802	462.715
340.963	290.979
344.123	216.434
347.282	156.037
350.441	118.362
353.597	150.395
356.752	174.891
359.906	170.206
363.058	250.215
366.209	255.891
369.36	201.466
372.509	128.349
375.656	79.7153
378.802	47.1479
381.947	16.5105
385.09	16.0221
388.232	0.675262
391.373	9.80597
394.512	29.3593
397.652	46.1996
400.789	54.7759
403.925	77.4126
407.059	84.1145
410.192	107.809
413.324	151.327
416.455	185.353
419.584	264.004
422.712	353.858
425.839	474.668
428.964	576.716
432.089	643.563
435.212	654.602
438.333	528.079
441.454	392.476
444.573	339.83
447.691	349.175
450.807	365.001
453.923	372.454
457.037	380.91
460.15	322.307
463.261	212.681
466.371	149
469.48	101.195
472.588	92.6371
475.695	80.4309
478.8	85.9709
481.904	103.579
485.007	108.141
488.108	115.495
491.208	125.656
494.307	141.431
497.405	173.013
500.502	199.973
503.597	259.628
506.691	313.684
509.784	347.267
512.874	386.522
515.964	346.446
519.053	330.735
522.141	280.496
525.227	291.032
528.312	264.179
531.396	264.537
534.479	213.28
537.559	222.063
540.639	189.298
543.718	176.194
546.796	156.36
549.873	152.362
552.948	132.393
556.022	109.498
559.093	109.099
562.165	105.715
565.235	83.4378
568.304	74.2933
571.372	67.9251
574.437	54.9358
577.503	52.2543
580.567	51.4615
583.63	57.2739
586.691	75.2095
589.75	92.2279
592.81	127.958
595.868	195.331
598.924	244.189
601.98	222.451
605.033	194.24
608.086	193.986
611.138	205.009
614.188	193.619
617.236	196.386
620.285	198.167
623.332	184.046
626.376	150.131
629.42	153.573
632.464	145.569
635.506	144.001
638.545	116.829
641.585	120.681
644.623	101.771
647.659	127.204
650.695	148.781
653.73	172.061
656.762	176.481
659.794	190.244
662.825	160.926
665.854	123.313
668.883	93.2401
671.91	61.4969
674.935	39.2601
677.96	36.5231
680.982	13.259
684.005	6.83133
687.027	6.93655
690.045	15.4938
693.064	1.63124
696.082	-1.9754
699.097	6.57544
702.113	1.0446
705.126	14.2634
708.139	10.5426
711.149	0.178253
714.16	9.40161
717.169	7.38071
720.176	6.25881
723.183	-0.472435
726.187	-5.39856
729.192	-0.0375671
732.194	-0.322372
735.196	-11.851
738.196	0.0102234
741.196	-0.300957
744.193	-3.41851
747.19	8.40892
750.185	6.22556
753.18	-3.37265
756.173	-1.81056
759.165	7.28751
762.155	0.57634
765.146	6.96645
768.133	5.89961
771.121	2.94049
774.107	3.72195
777.092	10.1077
780.075	0.477402
783.058	12.4439
786.039	10.2642
789.02	10.8894
791.998	11.486
794.975	13.9348
797.952	13.5212
800.927	-0.139725
803.902	5.97767
806.874	18.6553
809.845	9.65665
812.817	18.4991
815.786	6.62807
818.755	22.9187
821.721	12.9076
824.686	30.9962
827.652	25.6498
830.615	27.8317
833.576	36.6387
836.538	35.199
839.498	32.8793
842.458	44.6594
845.415	34.8619
848.37	41.9467
851.327	38.7319
854.28	43.0307
857.233	41.7003
860.184	46.9637
863.135	51.2918
866.084	50.9006
869.032	59.0131
871.98	82.2468
874.925	82.7054
877.87	93.5438
880.813	101.528
883.756	120.864
886.697	101.247
889.636	110.057
892.576	94.1647
895.513	112.396
898.45	110.618
901.385	102.139
904.318	96.4928
907.253	103.128
910.184	100.286
913.114	113.468
916.044	115.335
918.973	145.508
921.9	144.684
924.826	158.057
927.75	189.321
930.674	203.869
933.596	247.522
936.519	290.571
939.439	369.76
942.357	432.257
945.275	524.344
948.192	616.912
951.107	678.428
954.023	693.404
956.936	656.781
959.848	573.982
962.759	558.796
965.669	522.285
968.577	511.599
971.485	556.344
974.391	579.858
977.296	680.855
980.201	809.26
983.104	975.72
986.006	1071.85
988.907	1153.39
991.806	1073.06
994.704	946.927
997.602	845.96
1000.5	787.247
1003.39	764.942
1006.29	739.992
1009.18	720.981
1012.07	755.848
1014.96	847.057
1017.85	941.143
1020.74	1083.23
1023.63	1184.86
1026.51	1059.22
1029.4	891.187
1032.28	700.693
1035.16	537.668
1038.04	430.99
1040.92	361.561
1043.8	317.007
1046.68	293.624
1049.56	274.866
1052.43	244.375
1055.31	216.689
1058.18	214.131
1061.05	197.89
1063.93	204.886
1066.8	200.074
1069.67	195.309
1072.53	216.753
1075.4	233.297
1078.26	287.626
1081.13	305.028
1083.99	360.223
1086.85	389.205
1089.72	463.811
1092.58	603.206
1095.44	756.108
1098.29	834.306
1101.15	766.427
1104	592.304
1106.86	432.114
1109.71	337.383
1112.56	260.362
1115.42	231.949
1118.27	216.1
1121.11	199.107
1123.96	186.88
1126.81	195.095
1129.65	200.47
1132.5	223.432
1135.34	287.597
1138.18	325.405
1141.03	389.878
1143.87	424.873
1146.7	561.989
1149.54	809.66
1152.38	1005.13
1155.21	985.711
1158.05	702.119
1160.88	473.598
1163.71	286.374
1166.55	217.412
1169.37	176.049
1172.2	149.46
1175.03	118.994
1177.86	108.143
1180.68	94.4285
1183.51	71.9708
1186.33	81.837
1189.15	62.439
1191.98	56.7237
1194.8	54.0137
1197.61	43.4715
1200.43	41.7884
1203.25	44.0754
1206.06	26.7333
1208.88	31.9937
1211.69	19.5137
1214.51	15.9073
1217.32	19.228
1220.13	17.6114
1222.94	17.983
1225.74	13.3674
1228.55	25.7201
1231.36	17.0672
1234.16	22.4131
1236.97	14.6864
1239.77	18.9954
1242.57	16.2183
1245.37	21.4851
1248.17	24.7124
1250.97	20.8379
1253.77	22.0173
1256.56	23.1481
1259.36	19.2072
1262.15	18.2669
1264.94	16.3276
1267.74	10.3632
1270.53	12.4458
1273.32	16.5187
1276.11	47.7105
1278.89	91.8694
1281.68	52.7323
1284.46	23.7113
1287.25	12.7691
1290.03	8.85607
1292.81	9.96082
1295.59	12.088
1298.38	6.23252
1301.15	8.37981
1303.93	8.56228
1306.71	8.7696
1309.48	1.99549
1312.26	6.27509
1315.03	8.56134
1317.81	6.83592
1320.58	6.12164
1323.35	6.42334
1326.12	6.73781
1328.88	-2.07088
1331.65	6.35635
1334.42	4.61661
1337.18	-1.21086
1339.95	4.16365
1342.71	0.322601
1345.47	1.57926
1348.23	1.80616
1350.99	9.20795
1353.75	2.24552
1356.51	1.42108
1359.26	-1.47072
1362.02	5.89997
1364.77	4.00562
1367.53	1.06993
1370.28	8.40607
1373.03	6.48975
1375.78	10.7417
1378.53	31.4199
1381.28	113.69
1384.03	100.458
1386.77	25.6581
1389.52	2.19364
1392.26	6.4563
1395	-0.555191
1397.74	3.77338
1400.49	12.2015
1403.23	12.4154
1405.96	8.51965
1408.7	-0.527931
1411.44	0.725258
1414.17	3.01955
1416.91	6.36001
1419.64	-0.641464
1422.37	-10.7609
1425.11	-0.156921
1427.84	3.20102
1430.56	4.49347
1433.29	-2.54673
1436.02	7.07562
1438.74	2.10645
1441.47	1.29652
1444.19	0.501335
1446.92	-1.36178
1449.64	4.09276
1452.36	-0.95504
1455.08	-0.768677
1457.8	-2.69771
1460.52	-3.58573
1463.23	9.1678
1465.95	-5.38667
1468.66	-1.04424
1471.38	-0.90007
1474.09	-0.752525
1476.8	0.453453
1479.51	2.72015
1482.22	-0.26432
1484.93	-2.19194
1487.64	2.19152
1490.34	1.33063
1493.05	9.94725
1495.75	2.79211
1498.46	7.21892
1501.16	4.27863
1503.86	7.67171
1506.56	5.79117
1509.26	-2.43852
1511.96	2.03615
1514.65	1.2225
1517.35	0.409126
1520.05	-0.402138
1522.74	-0.150799
1525.43	4.38745
1528.13	0.360382
1530.82	-2.59893
1533.51	4.11641
1536.2	-2.08797
1538.88	4.60957
1541.57	5.92485
1544.25	-5.76184
1546.94	5.22166
1549.62	8.61657
1552.31	4.41673
1554.99	7.75868
1557.67	-0.795311
1560.35	-5.00547
1563.03	1.58
1565.71	7.07746
1568.38	-1.44637
1571.06	10.5082
1573.73	-0.161545
1576.41	2.10296
1579.08	0.0833931
1581.75	3.44657
1584.42	6.81549
1587.09	6.95934
1589.76	11.416
1592.43	-1.3548
1595.09	7.42958
1597.76	3.28951
1600.42	-0.856289
1603.09	-6.07733
1605.75	2.75579
1608.41	1.87781
1611.07	-2.24649
1613.73	0.147579
1616.39	2.55679
1619.05	1.70963
1621.7	3.04185
1624.36	2.18697
1627.01	6.80951
1629.67	1.55904
1632.32	6.18892
1634.97	9.71314
1637.62	3.29696
1640.27	2.33704
1642.92	1.39578
1645.57	3.77264
1648.22	-6.03063
1650.86	4.08132
1653.51	5.33648
1656.15	4.36388
1658.79	7.81638
1661.43	5.72095
1664.07	6.95031
1666.71	1.51842
1669.35	7.1755
1671.99	10.6123
1674.63	4.06697
1677.26	-0.270416
1679.9	5.38023
1682.53	6.57473
1685.16	5.5433
1687.79	4.51265
1690.43	10.131
1693.05	4.68758
1695.68	5.9006
1698.31	3.8124
1700.94	8.40707
1703.56	5.35963
1706.19	12.2789
1708.81	8.05999
1711.44	6.94468
1714.06	3.69714
1716.68	1.61656
1719.3	6.29182
1721.92	4.2042
1724.53	5.45455
1727.15	4.49099
1729.77	2.40087
1732.38	10.4157
1735	4.95008
1737.61	3.97217
1740.22	8.62473
1742.83	5.39089
1745.44	10.0517
1748.05	7.93055
1750.66	11.4506
1753.27	3.65862
1755.87	15.0906
1758.48	6.14024
1761.08	9.63058
1763.69	4.06354
1766.29	8.69043
1768.89	0.860172
1771.49	4.35887
1774.09	8.99417
1776.69	7.97035
1779.29	9.22453
1781.88	8.21562
1784.48	10.6176
1787.07	8.47781
1789.66	7.48542
1792.26	11.0491
1794.85	14.623
1797.44	11.3503
1800.03	11.5139
1802.62	3.65231
1805.21	9.54331
1807.79	11.9926
1810.38	5.23176
1812.96	11.1232
1815.55	6.65095
1818.13	4.47947
1820.71	6.91808
1823.29	9.36782
1825.87	9.50618
1828.45	10.8045
1831.03	10.9489
1833.61	12.2523
1836.18	13.5687
1838.76	11.3717
1841.33	7.99912
1843.91	5.78349
1846.48	8.23307
1849.05	2.49976
1851.62	9.62793
1854.19	1.52647
1856.76	8.6601
1859.33	5.25526
1861.89	10.0678
1864.46	9.01206
1867.02	7.96583
1869.59	6.90381
1872.15	4.6529
1874.71	9.46349
1877.27	14.282
1879.83	9.65645
1882.39	3.84777
1884.95	1.56719
1887.51	7.56121
1890.06	6.443
1892.62	4.1375
1895.17	6.55933
1897.73	7.8067
1900.28	9.06602
1902.83	-0.302063
1905.38	2.17118
1907.93	3.46241
1910.48	5.96339
1913.03	1.34588
1915.57	7.4465
1918.12	1.61606
1920.66	6.45182
1923.21	1.77511
1925.75	10.2482
1928.29	5.57027
1930.83	4.47651
1933.37	5.77738
1935.91	4.67479
1938.45	3.56623
1940.99	0.046524
1943.53	4.93795
1946.06	2.60923
1948.6	9.90831
1951.13	5.15884
1953.66	10.0397
1956.19	0.460232
1958.73	7.74659
1961.26	11.4168
1963.78	4.23619
1966.31	10.3111
1968.84	7.93819
1971.36	3.15199
1973.89	6.79737
1976.41	8.03415
1978.94	5.65856
1981.46	4.4861
1983.98	0.909554
1986.5	4.55283
1989.02	8.1967
1991.54	8.23312
1994.06	3.46322
1996.58	1.10101
1999.09	1.14717
2001.61	8.40901
2004.12	3.65355
2006.63	1.30801
2009.15	6.18023
2011.66	2.63834
2014.17	8.72308
2016.68	3.97309
2019.19	-0.78989
2021.69	0.475647
2024.2	4.16337
2026.71	4.23992
2029.21	12.7739
2031.72	-2.8418
2034.22	8.13339
2036.72	5.80753
2039.22	5.90283
2041.72	3.57307
2044.22	3.66924
2046.72	6.19999
2049.22	8.73755
2051.71	10.0594
2054.21	7.69758
2056.71	9.01884
2059.2	4.23635
2061.69	9.22964
2064.18	1.98728
2066.68	9.44339
2069.17	13.2275
2071.66	8.41891
2074.14	9.75064
2076.63	11.0812
2079.12	8.71502
2081.6	6.34129
2084.09	3.95772
2086.57	11.4489
2089.06	12.7624
2091.54	9.14468
2094.02	14.1954
2096.5	8.10913
2098.98	5.73149
2101.46	14.5361
2103.93	10.9226
2106.41	8.54863
2108.89	13.6581
2111.36	17.536
2113.84	10.1681
2116.31	6.53766
2118.78	17.9604
2121.25	14.3288
2123.72	13.2019
2126.19	10.8086
2128.66	7.14211
2131.13	9.78436
2133.59	17.4934
2136.06	11.2734
2138.53	8.84275
2140.99	7.67474
2143.45	7.77546
2145.92	14.235
2148.38	5.41076
2150.84	13.1401
2153.3	15.7734
2155.76	8.19167
2158.21	12.0929
2160.67	9.60396
2163.13	12.2201
2165.58	12.2746
2168.04	5.93192
2170.49	13.6592
2172.94	4.77156
2175.39	6.11389
2177.84	18.9743
2180.29	7.50037
2182.74	12.6672
2185.19	7.58212
2187.64	11.4677
2190.08	12.7996
2192.53	7.73623
2194.98	15.4805
2197.42	10.4273
2199.86	2.8105
2202.3	5.45484
2204.74	0.402355
2207.18	12.0557
2209.62	12.1567
2212.06	7.10946
2214.5	8.49948
2216.93	8.60831
2219.37	7.4262
2221.81	6.24152
2224.24	7.64561
2226.67	9.05295
2229.11	3.96683
2231.54	10.5769
2233.97	2.87382
2236.4	10.8029
2238.83	10.9159
2241.25	8.41227
2243.68	7.21392
2246.1	7.32372
2248.53	7.43291
2250.96	14.1126
2253.38	11.5949
2255.8	10.3891
2258.22	-0.0497169
2260.64	2.69158
2263.06	6.75727
2265.48	6.85326
2267.9	5.61929
2270.32	3.05121
2272.73	12.4197
2275.15	9.84302
2277.56	9.91782
2279.98	5.9984
2282.39	4.72823
2284.8	11.4321
2287.21	11.4814
2289.62	4.88214
2292.03	8.92325
2294.44	8.97262
2296.85	9.02721
2299.26	9.09118
2301.66	1.16388
2304.07	7.89822
2306.47	3.97895
2308.88	9.40399
2311.28	6.82755
2313.68	9.59912
2316.08	7.02537
2318.48	4.44958
2320.88	8.57978
2323.28	20.7864
2325.68	18.2218
2328.07	16.9975
2330.47	0.919464
2332.86	3.73124
2335.26	2.48872
2337.65	10.739
2340.04	9.50476
2342.43	13.716
2344.82	4.31011
2347.21	8.53851
2349.6	7.29676
2351.99	7.42297
2354.38	4.79593
2356.76	6.27512
2359.15	5.00297
2361.53	5.0817
2363.92	7.9314
2366.3	5.26412
2368.68	5.35446
2371.06	13.7444
2373.44	2.75878
2375.82	1.45514
2378.2	5.70042
2380.58	11.3284
2382.95	4.45414
2385.33	8.68445
2387.71	8.74518
2390.08	8.79925
2392.45	6.06208
2394.83	10.2831
2397.2	4.75162
2399.57	4.7883
2401.94	2.04254
2404.31	4.85642
2406.68	3.49754
2409.04	2.15222
2411.41	6.39994
2413.78	0.909657
2416.14	6.62011
2418.51	-0.211006
2420.87	-0.101025
2423.23	4.1886
2425.59	8.46254
2427.95	-1.30082
2430.31	7.24049
2432.67	5.92567
2435.03	3.19804
2437.39	6.12947
2439.75	7.64886
2442.1	3.4903
2444.46	3.58599
2446.81	5.10651
2449.16	2.35177
2451.52	6.73218
2453.87	3.96716
2456.22	6.92561
2458.57	2.71839
2460.92	-2.94034
2463.27	1.45937
2465.61	2.98602
2467.96	4.51447
2470.3	3.15399
2472.65	11.915
2474.99	6.21238
2477.34	3.39844
2479.68	7.83765
2482.02	6.46662
2484.36	3.63293
2486.7	9.53136
2489.04	6.68812
2491.38	8.21815
2493.72	3.90284
2496.05	12.7545
2498.39	5.50241
2500.72	7.03323
2503.06	7.09665
2505.39	8.6264
2507.72	11.6257
2510.06	5.79762
2512.39	10.2642
2514.72	5.8938
2517.04	5.93949
2519.37	4.51583
2521.7	7.52227
2524.03	4.62056
2526.35	10.5835
2528.68	3.23779
2531	3.28472
2533.33	1.85464
2535.65	6.35824
2537.97	0.47538
2540.29	4.98851
2542.61	10.999
2544.93	8.08326
2547.25	5.16584
2549.57	6.71741
2551.88	9.76798
2554.2	0.851551
2556.51	6.88835
2558.83	8.43603
2561.14	0.992111
2563.46	13.0621
2565.77	7.11727
2568.08	8.6866
2570.39	11.772
2572.7	11.8437
2575.01	7.37607
2577.31	8.94843
2579.62	4.45625
2581.93	12.0847
2584.23	1.49597
2586.54	7.59966
2588.84	7.6252
2591.15	12.1952
2593.45	7.6616
2595.75	4.64827
2598.05	3.16202
2600.35	3.18974
2602.65	7.79072
2604.95	3.23674
2607.24	9.36541
2609.54	0.219933
2611.84	12.4559
2614.13	6.35423
2616.42	9.42476
2618.72	7.91121
2621.01	10.9847
2623.3	12.5323
2625.59	7.9536
2627.88	18.7069
2630.17	8.00156
2632.46	15.7236
2634.75	8.08475
2637.04	8.13971
2639.32	11.2903
2641.61	9.8079
2643.89	8.32485
2646.18	14.5925
2648.46	8.44728
2650.74	8.50429
2653.02	13.2365
2655.3	13.2729
2657.58	8.61993
2659.86	8.64172
2662.14	13.3489
2664.42	3.97758
2666.69	11.8074
2668.97	16.5313
2671.24	19.6953
2673.52	13.4677
2675.79	11.9561
2678.06	13.6229
2680.33	9.0005
2682.61	13.8363
2684.88	9.16949
2687.15	10.8452
2689.41	12.524
2691.68	12.5947
2693.95	6.26233
2696.22	11.0591
2698.48	11.0861
2700.74	6.29859
2703.01	12.7416
2705.27	11.1523
2707.53	11.1689
2709.8	9.56992
2712.06	4.74186
2714.32	12.8195
2716.57	8.00506
2718.83	9.63066
2721.09	12.8827
2723.35	11.2725
2725.6	16.135
2727.86	12.8897
2730.11	9.63382
2732.37	11.2359
2734.62	1.47397
2736.87	7.94943
2739.12	12.801
2741.37	16.0454
2743.62	3.01654
2745.87	14.4077
2748.12	16.0401
2750.37	9.52697
2752.61	11.2064
2754.86	11.2269
2757.1	9.59611
2759.35	6.31331
2761.59	11.22
2763.83	9.57806
2766.08	14.5132
2768.32	6.29606
2770.56	7.93386
2772.8	9.58568
2775.04	6.29524
2777.27	12.9214
2779.51	12.946
2781.75	1.38425
2783.98	6.38563
2786.22	4.75247
2788.45	11.4424
2790.68	-0.208317
2792.92	3.14664
2795.15	8.18345
2797.38	13.224
2799.61	6.52784
2801.84	11.5724
2804.07	8.21127
2806.3	14.9437
2808.52	11.5715
2810.75	8.19008
2812.98	4.80007
2815.2	3.08625
2817.42	8.13618
2819.65	6.42447
2821.87	4.71099
2824.09	-0.394051
2826.31	4.67347
2828.53	8.04818
2830.75	1.22882
2832.97	8.00387
2835.19	7.97763
2837.41	7.95286
2839.62	4.51921
2841.84	11.3148
2844.05	4.4666
2846.27	6.15616
2848.48	6.13774
2850.69	9.54733
2852.9	7.83083
2855.12	2.68369
2857.33	0.959881
2859.54	7.83026
2861.74	13.0034
2863.95	11.2968
2866.16	9.59105
2868.37	9.60938
2870.57	0.960392
2872.78	7.90587
2874.98	0.966377
2877.18	6.19516
2879.39	2.72336
2881.59	4.48421
2883.79	8.00443
2885.99	1.01902
2888.19	6.29998
2890.39	6.31836
2892.59	8.09735
2894.78	4.58559
2896.98	6.37897
2899.18	11.7233
2901.37	9.98146
2903.57	11.7771
2905.76	4.67217
2907.95	10.028
2910.15	8.25283
2912.34	-0.694988
2914.53	6.44621
2916.72	2.84943
2918.91	2.83987
2921.09	1.03484
2923.28	2.82298
2925.47	2.8213
2927.65	8.23401
2929.84	4.6315
2932.02	-0.788395
2934.21	4.63429
2936.39	4.62424
2938.57	6.42138
2940.75	-0.867184
2942.94	2.74535
2945.12	9.99965
2947.29	6.32521
2949.47	4.47206
2951.65	11.7385
2953.83	4.41126
2956	8.03298
2958.18	4.34717
2960.36	2.48756
2962.53	11.6111
2964.7	4.2618
2966.88	2.40606
2969.05	7.88964
2971.22	6.03671
2973.39	9.69781
2975.56	13.3662
2977.73	7.83042
2979.9	7.81627
2982.06	11.5006
2984.23	-1.43113
2986.4	9.66306
2988.56	13.3792
2990.73	5.97639
2992.89	7.84738
2995.05	17.1623
2997.21	11.6064
2999.38	9.76924
3001.54	22.8839
3003.7	15.4504
3005.86	24.875
3008.01	2.38929
3010.17	11.8196
3012.33	19.3828
3014.49	11.8854
3016.64	11.9307
3018.8	13.8757
3020.95	15.8268
3023.1	17.777
3025.26	27.3399
3027.41	10.2238
3029.56	15.9692
3031.71	19.8136
3033.86	23.6574
3036.01	17.9239
3038.16	27.5053
3040.31	19.8662
3042.45	19.8799
3044.6	31.4255
3046.74	27.5933
3048.89	14.1225
3051.03	37.2575
3053.18	23.772
3055.32	31.5134
3057.46	39.2698
3059.6	33.4932
3061.74	35.4526
3063.88	23.8492
3066.02	39.3847
3068.16	31.6482
3070.3	39.445
3072.43	43.3664
3074.57	31.7256
3076.7	51.2416
3078.84	33.7388
3080.97	47.4373
3083.1	41.6221
3085.24	51.4646
3087.37	39.7895
3089.5	51.6354
3091.63	51.7409
3093.76	57.7578
3095.89	55.927
3098.02	52.1147
3100.14	44.3358
3102.27	66.2393
3104.4	62.4455
3106.52	54.6717
3108.65	62.7994
3110.77	68.9734
3112.89	67.1807
3115.01	61.3647
3117.14	69.5815
3119.26	83.8613
3121.38	80.0854
3123.5	84.3738
3125.62	76.5484
3127.73	91.0087
3129.85	85.2181
3131.97	85.5302
3134.08	79.707
3136.2	88.1904
3138.31	94.6521
3140.43	99.0703
3142.54	97.3102
3144.65	114.123
3146.76	124.781
3148.87	108.512
3150.98	123.32
3153.09	111.081
3155.2	117.565
3157.31	126.145
3159.42	120.12
3161.52	139.205
3163.63	143.671
3165.73	160.722
3167.84	148.375
3169.94	146.506
3172.05	155.238
3174.15	142.823
3176.25	166.252
3178.35	162.209
3180.45	164.489
3182.55	164.638
3184.65	171.135
3186.75	175.512
3188.84	162.864
3190.94	182.132
3193.04	158.958
3195.13	163.399
3197.23	174.294
3199.32	176.759
3201.41	172.925
3203.51	166.897
3205.6	158.731
3207.69	176.352
3209.78	176.813
3211.87	157.878
3213.96	171.298
3216.05	147.977
3218.13	154.922
3220.22	157.517
3222.31	153.593
3224.39	143.097
3226.48	139.136
3228.56	137.338
3230.64	139.912
3232.73	122.705
3234.81	129.64
3236.89	118.935
3238.97	112.642
3241.05	113
3243.13	117.804
3245.21	95.955
3247.29	98.4829
3249.36	94.3276
3251.44	99.0379
3253.52	94.8
3255.59	99.4838
3257.66	74.9736
3259.74	79.7207
3261.81	68.6982
3263.88	68.9501
3265.95	78.289
3268.03	65.1251
3270.1	63.0355
3272.17	63.386
3274.23	59.0218
3276.3	59.1595
3278.37	54.7487
3280.44	48.0303
3282.5	61.9281
3284.57	41.4417
3286.63	48.4714
3288.7	69.3057
3290.76	51.0616
3292.82	65.0215
3294.88	39.8189
3296.94	39.949
3299	49.3224
3301.06	51.8052
3303.12	45.0122
3305.18	49.7966
3307.24	38.3597
3309.3	40.8219
3311.35	47.9298
3313.41	34.1219
3315.46	38.92
3317.52	32.0722
3319.57	32.2214
3321.63	39.3743
3323.68	41.8888
3325.73	37.3853
3327.78	44.5995
3329.83	35.406
3331.88	45.0242
3333.93	26.4307
3335.98	43.1414
3338.02	38.6498
3340.07	31.737
3342.12	43.7472
3344.16	39.172
3346.21	39.3364
3348.25	29.9729
3350.3	20.6169
3352.34	54.0665
3354.38	30.4154
3356.42	32.9689
3358.46	33.1392
3360.5	26.14
3362.54	26.3082
3364.58	21.678
3366.62	33.819
3368.66	29.1887
3370.69	29.3559
3372.73	31.9172
3374.76	22.4429
3376.8	24.9899
3378.83	25.1278
3380.87	32.5016
3382.9	25.401
3384.93	30.3663
3386.96	25.6693
3388.99	20.965
3391.02	30.7675
3393.05	30.8996
3395.08	21.3531
3397.11	23.9198
3399.14	21.6397
3401.16	21.7766
3403.19	24.3309
3405.21	24.4573
3407.24	17.2948
3409.26	17.4201
3411.29	24.8358
3413.31	20.0926
3415.33	10.4755
3417.35	20.3393
3419.37	20.462
3421.39	25.4581
3423.41	8.51053
3425.43	18.3862
3427.45	18.5165
3429.46	16.2089
3431.48	18.7897
3433.5	14.0422
3435.51	16.6334
3437.53	21.6821
3439.54	19.3903
3441.55	17.0945
3443.57	24.6232
3445.58	14.9687
3447.59	10.2222
3449.6	15.3197
3451.61	20.4301
3453.62	20.6209
3455.63	8.44313
3457.64	13.5904
3459.64	16.2732
3461.65	16.4784
3463.66	21.6693
3465.66	11.8971
3467.67	12.0948
3469.67	4.77155
3471.67	12.4794
3473.68	15.1526
3475.68	7.79438
3477.68	7.97159
3479.68	18.2442
3481.68	15.9073
3483.68	11.0296
3485.68	13.7408
3487.68	13.9188
3489.67	9.01125
3491.67	11.7258
3493.67	19.5411
3495.66	12.0575
3497.66	22.4352
3499.65	7.25846
3501.64	9.96449
3503.64	17.7907
3505.63	17.9394
3507.62	15.5103
3509.61	20.7675
3511.6	20.8861
3513.59	15.8674
3515.58	15.9825
3517.57	8.38597
3519.56	5.92622
3521.54	11.178
3523.53	11.2891
3525.52	16.5505
3527.5	21.8167
3529.49	14.1977
3531.47	9.16924
3533.45	11.8808
3535.43	12.022
3537.42	17.3386
3539.4	17.5001
3541.38	15.0586
3543.36	17.7905
3545.34	15.3333
3547.32	7.67579
3549.29	15.5899
3551.27	20.904
3553.25	18.3898
3555.22	15.8973
3557.2	18.6112
3559.17	16.1251
3561.15	11.034
3563.12	21.5799
3565.09	8.66538
3567.07	14.0135
3569.04	19.3867
3571.01	16.9032
3572.98	22.2771
3574.95	19.7987
3576.92	27.8232
3578.88	22.7262
3580.85	20.2521
3582.82	25.6851
3584.79	25.8509
3586.75	26.0148
3588.72	18.2291
3590.68	21.0308
3592.64	26.4957
3594.61	18.6717
3596.57	18.8176
3598.53	16.2902
3600.49	11.0762
3602.45	21.899
3604.41	13.9976
3606.37	14.1152
3608.33	11.5444
3610.29	17.024
3612.25	6.37544
3614.2	9.1707
3616.16	3.87545
3618.12	12.0612
3620.07	-1.34801
3622.02	14.9312
3623.98	9.59404
3625.93	9.65683
3627.88	20.5358
3629.84	9.77682
3631.79	4.41648
3633.74	15.2919
3635.69	9.93723
3637.64	9.99958
3639.58	15.4883
3641.53	10.1464
3643.48	4.79699
3645.43	7.58929
3647.37	10.3968
3649.32	4.99
3651.26	5.04375
3653.21	10.5453
3655.15	13.3193
3657.09	16.0955
3659.03	16.1433
3660.98	10.7306
3662.92	16.2285
3664.86	8.07869
3666.8	-0.0765839
3668.74	13.6312
3670.67	16.4065
3672.61	2.7641
3674.55	13.7602
3676.49	11.0716
3678.42	0.152081
3680.36	13.9294
3682.29	11.2446
3684.23	14.063
3686.16	3.10977
3688.09	8.68794
3690.02	3.22292
3691.96	11.5847
3693.89	11.6446
3695.82	8.92274
3697.75	6.20184
3699.68	14.6011
3701.61	14.6641
3703.53	6.34513
3705.46	14.7772
3707.39	6.44387
3709.31	9.29243
3711.24	12.1462
3713.16	0.959068
3715.09	12.2388
3717.01	9.46014
3718.93	12.3092
3720.86	9.51739
3722.78	6.71666
3724.7	12.388
3726.62	9.57716
3728.54	9.59364
3730.46	3.94041
3732.38	12.4656
3734.29	9.64507
3736.21	9.66106
3738.13	9.67397
3740.04	9.68402
3741.96	6.84025
3743.87	3.99124
3745.79	12.5527
3747.7	6.84064
3749.62	12.5504
3751.53	15.4021
3753.44	12.5302
3755.35	3.92664
3757.26	6.76653
3759.17	3.87711
3761.08	9.57808
3762.99	0.953979
3764.9	6.65431
3766.81	6.62449
3768.71	12.3341
3770.62	9.44385
3772.52	15.1632
3774.43	6.52909
3776.33	9.37781
3778.24	12.233
3780.14	3.59159
3782.04	17.9655
3783.95	6.44397
3785.85	12.1987
3787.75	9.30536
3789.65	9.29144
3791.55	0.613388
3793.45	12.1627
3795.34	0.589672
3797.24	17.9611
3799.14	9.27406
3801.04	6.37602
3802.93	12.1894
3804.83	3.47518
3806.72	0.567333
3808.62	9.31499
3810.51	3.4867
3812.4	6.4089
3814.29	6.41259
3816.19	9.34366
3818.08	0.560085
3819.97	6.42487
3821.86	9.36386
3823.75	15.2449
3825.64	9.36818
3827.52	9.37292
3829.41	9.38147
3831.3	12.344
3833.18	3.50901
3835.07	6.47241
3836.95	15.3528
3838.84	6.49477
3840.72	6.5145
3842.61	9.50407
3844.49	15.4517
3846.37	9.52542
3848.25	6.5552
3850.13	9.52994
3852.01	6.56601
3853.89	9.53844
3855.77	6.57538
3857.65	0.631111
3859.53	6.57616
3861.41	9.55988
3863.28	-2.31611
3865.16	3.67243
3867.03	3.72983
3868.91	3.80142
3870.78	12.8187
3872.66	6.87602
3874.53	12.8916
3876.4	-2.00297
3878.27	4.0211
3880.14	7.06343
3882.01	7.12193
3883.89	4.19453
3885.75	7.25844
3887.62	10.3316
3889.49	13.4138
3891.36	10.5103
3893.23	4.6143
3895.09	4.73259
3896.96	10.8581
3898.82	7.97195
3900.69	14.1209
3902.55	14.2573
3904.42	8.36397
3906.28	5.48989
3908.14	8.65051
3910	5.7843
3911.87	11.998
3913.73	6.11829
3915.59	6.29864
3917.45	15.5876
3919.3	3.65495
3921.16	3.86581
3923.02	7.12716
3924.88	16.4947
3926.73	4.53453
3928.59	7.82273
3930.45	1.95383
3932.3	11.3746
3934.15	8.56471
3936.01	8.82392
3937.86	9.08941
3939.71	12.4405
3941.56	15.8097
3943.42	6.90282
3945.27	13.37
3947.12	1.37494
3948.97	14.0336
3950.81	14.3735
3952.66	11.6339
3954.51	15.0787
3956.36	15.4465
3958.2	12.726
3960.05	25.4839
3961.9	10.3967
3963.74	13.8939
3965.58	17.4011
3967.43	17.8193
3969.27	18.2452
3971.11	15.5871
3972.96	16.0426
3974.8	13.4113
3976.64	20.0951
3978.48	17.4871
3980.32	14.8888
3982.16	21.6065
3984	15.9349
3985.83	25.7861
3987.67	26.3459
3989.51	20.7232
3991.34	21.3231
3993.18	28.148
3995.01	25.686
3996.85	26.3491
3998.68	23.9252
