#Acq. time (s)=	45
#Accumulations=	2
#Range (cm-¹)=	100...4000
#Windows=	1
#Auto scanning=	Off
#Autofocus=	Off
#Macrospot=	Off
#AutoExposure=	Off
#Spike filter=	Multiple accum.
#Delay time (s)=	2
#Binning=	1
#Readout mode=	Signal
#DeNoise=	Off
#ICS correction=	On
#Dark correction=	Off
#Inst. Process=	Off
#Detector Gain=	Best Dynamic
#Detector ADC=	50 kHz EM
#Detector EM gain=	100
#Detector temperature (°C)=	-60.09
#Instrument=	LabRAM HR Evol
#Detector=	SIN-EM FIVIS
#Objective=	x100_VIS_LWD
#Grating=	150 (500nm)
#ND Filter=	100%
#Laser=	633nm_Edge
#Hole=	49.98
#Temperature=	0
#Range=	Visible
#StageXY=	75x50mm Scan+
#StageZ=	Z motor
#X (µm)=	0
#Y (µm)=	0
#Z (µm)=	16.6
#Full time(mm:ss)=	1:36
#Project=	21_11_22
#Sample=	BU04w
#Site=	
#Title=	BU04w-A-FF3-FI05-V_150 (500nm)_633nm_Edge_100%_x100_VIS_LWD_H50um_45sX2
#Remark=	
#Date=	22.11.2021 11:43
#Acquired=	22.11.2021 11:43:04
#Base:Fit=	16.12.2021 16:15:35
#Base:Edit=	16.12.2021 16:23:21
#Base:Edit=	16.12.2021 16:23:22
#Base:Edit=	16.12.2021 16:23:23
#Base:Edit=	16.12.2021 16:23:25
#Base:Edit=	16.12.2021 16:23:25
#Base:Sub=	16.12.2021 16:23:27
100.177	728.78
103.438	626.989
106.695	555.935
109.954	553.753
113.209	479.114
116.464	473.297
119.717	402.455
122.969	395.845
126.219	386.369
129.469	414.395
132.716	356.264
135.963	397.724
139.208	384.587
142.452	358.232
145.694	335.911
148.936	330.863
152.175	260.925
155.414	271.597
158.651	363.753
161.887	377.553
165.121	486.325
168.353	374.648
171.586	310.872
174.815	195.278
178.045	139.072
181.272	95.3664
184.5	85.0881
187.724	99.7308
190.947	97.0582
194.17	35.2729
197.39	31.9486
200.611	36.5131
203.829	38.6028
207.045	19.6313
210.262	0.69635
213.475	12.3517
216.688	-0.701965
219.9	40.6134
223.11	32.3624
226.32	108.842
229.527	175.487
232.733	233.711
235.939	362.355
239.142	403.523
242.344	227.153
245.546	129.192
248.745	93.8229
251.943	78.3967
255.141	84.8098
258.336	53.3924
261.53	76.1219
264.723	83.7225
267.916	31.6446
271.106	35.6082
274.294	19.7101
277.483	45.5938
280.669	90.3911
283.854	104.801
287.038	92.6562
290.221	69.0988
293.402	33.1961
296.582	16.3057
299.76	0.400574
302.938	-0.36322
306.114	7.37134
309.288	62.3983
312.461	75.8469
315.634	114.813
318.805	252.872
321.974	445.799
325.142	646.251
328.309	825.88
331.475	700.02
334.639	507.148
337.802	375.617
340.963	227.16
344.123	133.413
347.282	127.277
350.441	66.5384
353.597	82.9777
356.752	112.562
359.906	72.4416
363.058	130.181
366.209	117.334
369.36	149.631
372.509	102.067
375.656	64.8245
378.802	55.8292
381.947	47.7656
385.09	8.96594
388.232	21.9815
391.373	23.8942
394.512	7.1615
397.652	21.5132
400.789	51.2198
403.925	43.1249
407.059	71.8297
410.192	57.133
413.324	54.5662
416.455	132.154
419.584	122.992
422.712	146.602
425.839	212.449
428.964	240.649
432.089	287.605
435.212	366.476
438.333	294.422
441.454	292.153
444.573	226.871
447.691	196.374
450.807	168.703
453.923	220.707
457.037	213.818
460.15	215.513
463.261	192.234
466.371	144.034
469.48	73.4727
472.588	32.9233
475.695	45.6009
478.8	51.8407
481.904	68.2432
485.007	61.3436
488.108	99.1589
491.208	117.426
494.307	74.22
497.405	120.412
500.502	105.14
503.597	156.135
506.691	174.464
509.784	196.564
512.874	222.473
515.964	220.395
519.053	210.06
522.141	168.042
525.227	144.707
528.312	170.143
531.396	158.214
534.479	151.033
537.559	188.018
540.639	125.998
543.718	157.074
546.796	108.786
549.873	89.3885
552.948	105.057
556.022	98.8847
559.093	86.7382
562.165	79.9685
565.235	74.0828
568.304	56.7169
571.372	43.9624
574.437	71.5012
577.503	43.5306
580.567	45.6358
583.63	91.8229
586.691	43.6047
589.75	65.584
592.81	76.5507
595.868	77.2816
598.924	93.1686
601.98	131.749
605.033	134.141
608.086	111.336
611.138	107.3
614.188	134.162
617.236	89.201
620.285	105.953
623.332	95.6296
626.376	100.394
629.42	99.0789
632.464	81.4979
635.506	84.3765
638.545	90.7813
641.585	80.021
644.623	61.4412
647.659	70.3799
650.695	58.5245
653.73	84.9739
656.762	106.597
659.794	123.475
662.825	101.93
665.854	72.112
668.883	63.8056
671.91	58.6403
674.935	37.1543
677.96	45.3158
680.982	17.105
684.005	31.9961
687.027	23.6215
690.045	28.4992
693.064	25.9773
696.082	31.8736
699.097	19.001
702.113	21.076
705.126	50.3459
708.139	14.6971
711.149	26.8253
714.16	30.9031
717.169	14.4776
720.176	-1.10791
723.183	14.4287
726.187	8.11337
729.192	4.51462
732.194	29.0123
735.196	1.96957
738.196	14.2404
741.196	28.3782
744.193	10.7579
747.19	-3.0322
750.185	-2.81259
753.18	22.7605
756.173	14.6825
759.165	19.9946
762.155	30.1802
765.146	1.31949
768.133	7.08252
771.121	22.2125
774.107	9.25549
777.092	32.8089
780.075	4.56546
783.058	18.5202
786.039	18.2751
789.02	27.4107
791.998	1.58688
794.975	4.88937
797.952	15.6452
800.927	9.28387
803.902	29.2462
806.874	2.9462
809.845	18.0975
812.817	34.9612
815.786	22.5994
818.755	12.0724
821.721	3.42053
824.686	37.826
827.652	11.3422
830.615	25.2555
833.576	32.0067
836.538	27.6686
839.498	23.5338
842.458	32.7364
845.415	23.9966
848.37	24.7188
851.327	44.2627
854.28	37.5745
857.233	45.0202
860.184	46.86
863.135	58.138
866.084	33.5405
869.032	52.3814
871.98	66.3894
874.925	41.3845
877.87	58.8981
880.813	60.266
883.756	77.6748
886.697	42.7864
889.636	48.6149
892.576	75.2378
895.513	52.4823
898.45	43.7626
901.385	42.4564
904.318	61.9037
907.253	50.1378
910.184	40.2189
913.114	64.2518
916.044	73.1926
918.973	62.66
921.9	86.9764
924.826	88.036
927.75	96.7006
930.674	99.1269
933.596	123.065
936.519	144.642
939.439	158.975
942.357	223.505
945.275	251.351
948.192	304.112
951.107	345.624
954.023	349.093
956.936	357.222
959.848	287.773
962.759	292.667
965.669	304.996
968.577	232.029
971.485	250.827
974.391	269.476
977.296	294.556
980.201	325.989
983.104	390.814
986.006	509.092
988.907	514.148
991.806	524.875
994.704	482.966
997.602	451.731
1000.5	364.354
1003.39	351.557
1006.29	356.108
1009.18	367.525
1012.07	304.084
1014.96	358.901
1017.85	414.664
1020.74	504.036
1023.63	568.076
1026.51	522.423
1029.4	511.218
1032.28	430.937
1035.16	296.761
1038.04	222.878
1040.92	224.903
1043.8	205.676
1046.68	147.771
1049.56	138.852
1052.43	137.577
1055.31	125.553
1058.18	102.71
1061.05	121.461
1063.93	110.948
1066.8	100.155
1069.67	101.104
1072.53	98.1493
1075.4	104.84
1078.26	117.27
1081.13	136.445
1083.99	147.849
1086.85	161.182
1089.72	203.707
1092.58	258.737
1095.44	308.928
1098.29	443.209
1101.15	451.689
1104	379.045
1106.86	269.161
1109.71	263.38
1112.56	157.428
1115.42	118.646
1118.27	93.3812
1121.11	109.68
1123.96	100.564
1126.81	104.08
1129.65	99.9246
1132.5	129.931
1135.34	140.469
1138.18	170.566
1141.03	167.461
1143.87	199.532
1146.7	228.47
1149.54	321.553
1152.38	482.397
1155.21	543.595
1158.05	480.442
1160.88	329.505
1163.71	234.378
1166.55	167.995
1169.37	91.9146
1172.2	79.6764
1175.03	81.1461
1177.86	74.7525
1180.68	63.6072
1183.51	48.6442
1186.33	39.7915
1189.15	41.7814
1191.98	35.0169
1194.8	23.6176
1197.61	20.9882
1200.43	18.589
1203.25	23.235
1206.06	31.8593
1208.88	-2.67078
1211.69	42.4892
1214.51	37.5762
1217.32	3.97302
1220.13	24.8577
1222.94	5.07135
1225.74	5.13223
1228.55	27.1593
1231.36	24.1519
1234.16	26.0552
1236.97	16.8236
1239.77	30.6053
1242.57	28.1096
1245.37	19.4337
1248.17	15.6728
1250.97	28.9353
1253.77	25.044
1256.56	53.2589
1259.36	34.8995
1262.15	45.674
1264.94	26.218
1267.74	35.0157
1270.53	24.5781
1273.32	59.3322
1276.11	32.7143
1278.89	178.732
1281.68	331.475
1284.46	90.4121
1287.25	21.9701
1290.03	11.6935
1292.81	32.4909
1295.59	2.4267
1298.38	36.3873
1301.15	31.4114
1303.93	18.6158
1306.71	-5.07111
1309.48	23.4186
1312.26	15.0892
1315.03	24.8307
1317.81	5.45502
1320.58	20.3322
1323.35	18.1449
1326.12	34.2263
1328.88	17.9329
1331.65	34.0885
1334.42	14.5636
1337.18	2.0882
1339.95	28.3102
1342.71	14.5647
1345.47	15.0521
1348.23	6.27493
1350.99	14.8932
1353.75	10.1347
1356.51	14.5345
1359.26	14.7609
1362.02	53.9633
1364.77	41.6829
1367.53	36.5122
1370.28	47.7548
1373.03	55.8875
1375.78	80.4785
1378.53	80.3926
1381.28	144.978
1384.03	536.967
1386.77	247.356
1389.52	67.663
1392.26	11.2618
1395	31.8884
1397.74	33.3413
1400.49	28.5161
1403.23	38.1008
1405.96	51.859
1408.7	36.8301
1411.44	23.8705
1414.17	1.63715
1416.91	25.9083
1419.64	10.9019
1422.37	-4.09937
1425.11	-0.434631
1427.84	15.684
1430.56	25.642
1433.29	3.31296
1436.02	9.07669
1438.74	32.5927
1441.47	16.3975
1444.19	-2.86795
1446.92	13.3296
1449.64	17.9063
1452.36	18.1822
1455.08	18.402
1457.8	12.2207
1460.52	-16.0702
1463.23	20.6825
1465.95	10.14
1468.66	30.0225
1471.38	10.0247
1474.09	2.64987
1476.8	11.0784
1479.51	2.78171
1482.22	-7.62708
1484.93	21.9284
1487.64	16.8792
1490.34	8.72971
1493.05	11.1476
1495.75	18.9137
1498.46	23.5269
1501.16	45.1083
1503.86	0.190552
1506.56	3.87149
1509.26	18.2223
1511.96	14.5843
1514.65	-0.678345
1517.35	30.8478
1520.05	14.5598
1522.74	4.61328
1525.43	11.805
1528.13	6.10037
1530.82	17.6112
1533.51	10.9525
1536.2	24.6201
1538.88	4.73389
1541.57	19.3618
1544.25	18.6896
1546.94	10.2343
1549.62	28.6762
1552.31	10.1965
1554.99	17.4933
1557.67	22.5586
1560.35	10.4557
1563.03	-7.02368
1565.71	20.7957
1568.38	29.173
1571.06	22.4514
1573.73	6.06061
1576.41	20.9568
1579.08	5.86963
1581.75	10.1659
1584.42	22.0386
1587.09	29.6398
1589.76	-3.64749
1592.43	24.5152
1595.09	16.105
1597.76	31.488
1600.42	10.1942
1603.09	17.053
1605.75	19.6362
1608.41	8.2627
1611.07	15.3684
1613.73	31.2978
1616.39	10.3411
1619.05	23.1565
1621.7	6.51389
1624.36	20.4431
1627.01	22.3506
1629.67	24.2592
1632.32	29.4359
1634.97	35.6082
1637.62	42.798
1640.27	38.5526
1642.92	24.5143
1645.57	27.0622
1648.22	4.09644
1650.86	30.8932
1653.51	29.9954
1656.15	29.0148
1658.79	5.79996
1661.43	26.899
1664.07	51.3256
1666.71	8.05618
1669.35	18.0145
1671.99	24.6346
1674.63	29.0356
1677.26	5.63766
1679.9	25.5521
1682.53	5.40979
1685.16	17.3574
1687.79	24.8664
1690.43	29.0939
1693.05	19.0034
1695.68	10.1286
1698.31	4.72168
1700.94	2.88995
1703.56	14.1074
1706.19	23.9464
1708.81	26.0067
1711.44	17.4482
1714.06	21.8564
1716.68	16.6431
1719.3	14.0749
1721.92	33.4462
1724.53	33.6737
1727.15	9.44531
1729.77	17.696
1732.38	23.7202
1735	11.7458
1737.61	10.9824
1740.22	14.7247
1742.83	12.8301
1745.44	22.2216
1748.05	11.2156
1750.66	15.9694
1753.27	27.48
1755.87	27.6508
1758.48	13.0032
1761.08	13.0059
1763.69	8.48416
1766.29	9.65033
1768.89	16.5017
1771.49	14.3059
1774.09	3.04971
1776.69	17.9296
1779.29	1.12228
1781.88	11.6003
1784.48	16.4339
1787.07	20.1771
1789.66	1.24731
1792.26	17.6085
1794.85	7.77066
1797.44	12.7899
1800.03	12.1818
1802.62	20.7242
1805.21	18.9837
1807.79	42.4515
1810.38	19.8697
1812.96	13.3604
1815.55	11.4471
1818.13	38.4056
1820.71	22.6264
1823.29	24.2127
1825.87	30.4311
1828.45	20.4417
1831.03	26.709
1833.61	20.1882
1836.18	10.2334
1838.76	-2.22052
1841.33	21.4124
1843.91	29.8932
1846.48	11.5069
1849.05	15.2686
1851.62	13.21
1854.19	25.0241
1856.76	6.55667
1859.33	7.99789
1861.89	9.51666
1864.46	9.83502
1867.02	18.4761
1869.59	18.7949
1872.15	8.4444
1874.71	34.5617
1877.27	15.9055
1879.83	-0.467407
1882.39	20.9578
1884.95	24.6017
1887.51	4.63007
1890.06	-4.8829
1892.62	18.6716
1895.17	24.4819
1897.73	30.3571
1900.28	20.9514
1902.83	-10.7579
1905.38	12.0588
1907.93	20.684
1910.48	11.6794
1913.03	12.2639
1915.57	26.0361
1918.12	11.0812
1920.66	17.0063
1923.21	26.8472
1925.75	29.5719
1928.29	13.1494
1930.83	12.2637
1933.37	14.9613
1935.91	22.4255
1938.45	16.6549
1940.99	22.8535
1943.53	18.1989
1946.06	25.5341
1948.6	17.2063
1951.13	24.453
1953.66	26.846
1956.19	19.5771
1958.73	-3.38297
1961.26	39.924
1963.78	9.68558
1966.31	21.6115
1968.84	38.2701
1971.36	31.9904
1973.89	16.0623
1976.41	23.0345
1978.94	26.3886
1981.46	16.4901
1983.98	17.4373
1986.5	23.2078
1989.02	18.1724
1991.54	15.5515
1994.06	-1.47507
1996.58	3.16138
1999.09	23.4614
2001.61	14.9357
2004.12	19.673
2006.63	14.8503
2009.15	20.8596
2011.66	6.47672
2014.17	7.70868
2016.68	12.5686
2019.19	14.9355
2021.69	7.71014
2024.2	24.6835
2026.71	10.3448
2029.21	-1.55728
2031.72	10.7556
2034.22	-7.10315
2036.72	22.2132
2039.22	11.6004
2041.72	13.1125
2044.22	18.2859
2046.72	12.5515
2049.22	16.5535
2051.71	22.9802
2054.21	23.0934
2056.71	18.5395
2059.2	28.6653
2061.69	15.5718
2064.18	18.3695
2066.68	29.7747
2069.17	25.1964
2071.66	37.811
2074.14	18.4782
2076.63	21.2355
2079.12	14.1221
2081.6	26.7072
2084.09	10.868
2086.57	20.9034
2089.06	12.3561
2091.54	27.4253
2094.02	27.7124
2096.5	13.2093
2098.98	30.9364
2101.46	12.6888
2103.93	40.4681
2106.41	11.0271
2108.89	13.9762
2111.36	28.2076
2113.84	32.5148
2116.31	41.8506
2118.78	16.0622
2121.25	29.1588
2123.72	20.8679
2126.19	10.014
2128.66	20.5697
2131.13	12.1542
2133.59	13.8096
2136.06	19.2392
2138.53	-4.53256
2140.99	28.7917
2143.45	35.4768
2145.92	25.5673
2148.38	25.7829
2150.84	22.1002
2153.3	47.7319
2155.76	14.6253
2158.21	15.9344
2160.67	14.6473
2163.13	18.4232
2165.58	31.0976
2168.04	16.8857
2170.49	24.4608
2172.94	30.8459
2175.39	37.2255
2177.84	15.4083
2180.29	29.3163
2182.74	38.0919
2185.19	22.4506
2187.64	15.8564
2190.08	31.0757
2192.53	15.6268
2194.98	24.515
2197.42	24.5349
2199.86	10.5064
2202.3	27.3076
2204.74	30.0548
2207.18	16.135
2209.62	15.1068
2212.06	12.8235
2214.5	16.9872
2216.93	7.01852
2219.37	20.3092
2221.81	16.8106
2224.24	28.853
2226.67	9.7775
2229.11	11.4438
2231.54	20.9178
2233.97	18.6909
2236.4	26.8885
2238.83	24.657
2241.25	26.3294
2243.68	13.6257
2246.1	14.002
2248.53	24.8729
2250.96	22.6159
2253.38	15.069
2255.8	6.19174
2258.22	26.3606
2260.64	33.3466
2263.06	32.3631
2265.48	14.0982
2267.9	35.505
2270.32	33.02
2272.73	34.4668
2275.15	18.6013
2277.56	21.293
2279.98	5.32108
2282.39	34.4816
2284.8	19.699
2287.21	16.8377
2289.62	19.3303
2292.03	31.1097
2294.44	12.2807
2296.85	14.7901
2299.26	9.39792
2301.66	2.68265
2304.07	32.0303
2306.47	9.48141
2308.88	2.96634
2311.28	4.52457
2313.68	16.8059
2316.08	22.4805
2318.48	13.4601
2320.88	15.1372
2323.28	39.6628
2325.68	17.1933
2328.07	18.9266
2330.47	9.87915
2332.86	19.7966
2335.26	10.7872
2337.65	35.6792
2340.04	26.6839
2342.43	20.4405
2344.82	22.3652
2347.21	28.5024
2349.6	14.016
2351.99	4.98074
2354.38	9.56796
2356.76	18.1918
2359.15	24.0652
2361.53	15.9211
2363.92	5.1351
2366.3	15.0341
2368.68	22.1824
2371.06	32.0895
2373.44	25.3778
2375.82	28.3497
2378.2	6.35364
2380.58	27.2372
2382.95	13.3859
2385.33	9.13885
2387.71	24.3603
2390.08	-2.21597
2392.45	5.91431
2394.83	22.3949
2397.2	19.2962
2399.57	23.1638
2401.94	10.3454
2404.31	23.8872
2406.68	31.8898
2409.04	20.5672
2411.41	22.0333
2413.78	2.75436
2416.14	16.0067
2418.51	19.9852
2420.87	14.9839
2423.23	10.9175
2425.59	19.2669
2427.95	23.7773
2430.31	12.807
2432.67	8.91006
2435.03	7.88373
2437.39	25.3031
2439.75	5.87717
2442.1	19.0479
2444.46	32.2569
2446.81	1.3519
2449.16	25.998
2451.52	22.1416
2453.87	8.2186
2456.22	25.7813
2458.57	29.0594
2460.92	30.8893
2463.27	19.7836
2465.61	2.84766
2467.96	29.1375
2470.3	20.7877
2472.65	18.1736
2474.99	32.9541
2477.34	33.2983
2479.68	39.4332
2482.02	23.7274
2484.36	31.2492
2486.7	27.0495
2489.04	11.1783
2491.38	37.608
2493.72	24.6172
2496.05	39.4539
2498.39	17.6339
2500.72	29.4846
2503.06	16.3823
2505.39	31.1427
2507.72	25.3132
2510.06	26.7971
2512.39	28.2466
2514.72	25.2503
2517.04	14.8722
2519.37	8.97647
2521.7	28.2089
2524.03	34.1541
2526.35	16.4095
2528.68	11.98
2531	16.4195
2533.33	29.8295
2535.65	16.5786
2537.97	28.5726
2540.29	19.7911
2542.61	25.8793
2544.93	26.0273
2547.25	15.7928
2549.57	15.9483
2551.88	47.5096
2554.2	22.256
2556.51	20.8332
2558.83	1.39447
2561.14	19.5454
2563.46	0.171112
2565.77	16.9386
2568.08	20.1791
2570.39	18.9513
2572.7	31.3006
2575.01	30.045
2577.31	28.7409
2579.62	7.66998
2581.93	38.072
2584.23	21.3226
2586.54	24.2803
2588.84	21.0961
2591.15	17.7372
2593.45	51.0718
2595.75	37.3205
2598.05	34.3227
2600.35	15.98
2602.65	21.9884
2604.95	24.9251
2607.24	29.3704
2609.54	10.8989
2611.84	21.3275
2614.13	14.9827
2616.42	4.03217
2618.72	23.7376
2621.01	11.2561
2623.3	23.3126
2625.59	13.9593
2627.88	27.6178
2630.17	21.4834
2632.46	10.8384
2634.75	21.7642
2637.04	12.8204
2639.32	16.3036
2641.61	16.643
2643.89	7.74548
2646.18	32.9684
2648.46	16.2504
2650.74	32.1473
2653.02	30.9841
2655.3	10.7979
2657.58	35.7696
2659.86	-0.170227
2662.14	15.3782
2664.42	21.502
2666.69	36.9748
2668.97	26.0178
2671.24	-8.4776
2673.52	8.94861
2675.79	20.3049
2678.06	9.9873
2680.33	1.43866
2682.61	8.45905
2684.88	18.6888
2687.15	27.3779
2689.41	26.4969
2691.68	9.45862
2693.95	27.5601
2696.22	11.3021
2698.48	38.6427
2700.74	14.6944
2703.01	29.2015
2705.27	38.8652
2707.53	22.7937
2709.8	8.2583
2712.06	25.9315
2714.32	21.0936
2716.57	22.8928
2718.83	32.5707
2721.09	8.32349
2723.35	42.2959
2725.6	24.3205
2727.86	27.4022
2730.11	7.69305
2732.37	17.0833
2734.62	36.3177
2736.87	16.468
2739.12	17.7204
2741.37	19.1372
2743.62	22.1844
2745.87	26.927
2748.12	18.69
2750.37	30.1271
2752.61	12.5985
2754.86	37.2858
2757.1	6.18481
2759.35	15.9237
2761.59	15.7235
2763.83	14.0225
2766.08	7.4422
2768.32	2.52185
2770.56	8.99371
2772.8	37.0385
2775.04	19.0005
2777.27	30.765
2779.51	22.713
2781.75	24.7976
2783.98	20.1796
2786.22	23.9056
2788.45	30.9404
2790.68	16.2737
2792.92	19.9194
2795.15	16.8491
2797.38	25.3892
2799.61	10.4587
2801.84	35.7492
2804.07	15.621
2806.3	20.6652
2808.52	22.3195
2810.75	13.8256
2812.98	20.4919
2815.2	13.5468
2817.42	3.22217
2819.65	23.3683
2821.87	18.1497
2824.09	29.907
2826.31	29.8064
2828.53	9.29272
2830.75	10.8221
2832.97	14.0329
2835.19	29.1304
2837.41	5.09589
2839.62	-0.223206
2841.84	13.2181
2844.05	13.0439
2846.27	24.9124
2848.48	21.4021
2850.69	16.2294
2852.9	14.5599
2855.12	9.51575
2857.33	-2.40863
2859.54	20.0132
2861.74	2.96301
2863.95	32.4981
2866.16	20.7247
2868.37	31.4004
2870.57	9.16272
2872.78	14.6141
2874.98	6.19458
2877.18	1.24695
2879.39	20.7393
2881.59	12.38
2883.79	11.028
2885.99	23.728
2888.19	34.6581
2890.39	5.13019
2892.59	10.73
2894.78	11.0455
2896.98	29.1871
2899.18	19.0458
2901.37	17.6887
2903.57	48.1918
2905.76	12.8745
2907.95	29.1508
2910.15	22.2227
2912.34	20.4554
2914.53	9.72601
2916.72	22.2397
2918.91	15.1389
2921.09	17.0115
2923.28	26.0886
2925.47	31.669
2927.65	17.4657
2929.84	24.9019
2932.02	21.5331
2934.21	28.8777
2936.39	12.5945
2938.57	25.2216
2940.75	25.0977
2942.94	1.36694
2945.12	23.0323
2947.29	17.282
2949.47	20.6766
2951.65	16.8036
2953.83	14.7304
2956	29.0866
2958.18	26.9967
2960.36	21.2693
2962.53	17.3902
2964.7	9.85187
2966.88	0.522156
2969.05	37.0724
2971.22	22.2668
2973.39	9.28424
2975.56	31.2462
2977.73	20.0854
2979.9	40.2493
2982.06	36.5327
2984.23	29.1971
2986.4	12.6268
2988.56	27.5577
2990.73	11.0152
2992.89	39.0674
2995.05	29.9414
2997.21	24.6021
2999.38	32.3418
3001.54	19.577
3003.7	21.7933
3005.86	39.043
3008.01	56.3235
3010.17	51.0547
3012.33	17.3664
3014.49	36.5961
3016.64	29.4565
3018.8	-0.396851
3020.95	30.3646
3023.1	38.3342
3025.26	30.9922
3027.41	54.0244
3029.56	40.7988
3031.71	44.6977
3033.86	27.4596
3036.01	21.6001
3038.16	38.6292
3040.31	46.3797
3042.45	42.4708
3044.6	51.9571
3046.74	53.7399
3048.89	49.7355
3051.03	43.787
3053.18	55.1901
3055.32	58.9489
3057.46	45.3173
3059.6	52.9095
3061.74	48.8947
3063.88	64.2537
3066.02	69.949
3068.16	56.2267
3070.3	50.2557
3072.43	40.3854
3074.57	57.78
3076.7	44.0392
3078.84	69.2872
3080.97	57.4784
3083.1	57.3724
3085.24	63.2825
3087.37	82.9318
3089.5	55.6947
3091.63	42.1953
3093.76	62.1584
3095.89	82.272
3098.02	82.6991
3100.14	65.327
3102.27	93.4968
3104.4	74.2326
3106.52	92.7046
3108.65	93.343
3110.77	92.0494
3112.89	58.7914
3115.01	85.4177
3117.14	94.1389
3119.26	98.8596
3121.38	83.5616
3123.5	86.3882
3125.62	113.562
3127.73	90.2038
3129.85	85.1012
3131.97	90.2515
3134.08	76.996
3136.2	98.4816
3138.31	103.594
3140.43	135.393
3142.54	130.151
3144.65	102.077
3146.76	129.729
3148.87	107.691
3150.98	143.595
3153.09	164.864
3155.2	154.933
3157.31	144.92
3159.42	124.435
3161.52	158.339
3163.63	144.128
3165.73	161.26
3167.84	182.593
3169.94	168.132
3172.05	139.151
3174.15	181.602
3176.25	194.356
3178.35	156.284
3180.45	183.675
3182.55	162.328
3184.65	183.296
3186.75	191.535
3188.84	178.34
3190.94	156.981
3193.04	173.903
3195.13	212.158
3197.23	212.404
3199.32	187.343
3201.41	228.799
3203.51	206.048
3205.6	155.452
3207.69	164.976
3209.78	202.473
3211.87	201.347
3213.96	178.662
3216.05	140.813
3218.13	169.994
3220.22	188.302
3222.31	180.566
3224.39	157.491
3226.48	180.327
3228.56	176.885
3230.64	221.688
3232.73	202.92
3234.81	216.906
3236.89	162.502
3238.97	163.343
3241.05	224.184
3243.13	138.627
3245.21	135.348
3247.29	169.56
3249.36	157.034
3251.44	182.076
3253.52	160.141
3255.59	160.325
3257.66	178.505
3259.74	163.455
3261.81	170.859
3263.88	221.346
3265.95	145.553
3268.03	165.72
3270.1	159.208
3272.17	176.756
3274.23	188.633
3276.3	170.355
3278.37	179.69
3280.44	147.751
3282.5	179.94
3284.57	189.25
3286.63	129.673
3288.7	157.308
3290.76	152.758
3292.82	175.793
3294.88	120.477
3296.94	127.342
3299	159.676
3301.06	171.489
3303.12	150.703
3305.18	148.488
3307.24	160.163
3309.3	185.747
3311.35	174.162
3313.41	160.172
3315.46	146.312
3317.52	123.005
3319.57	123.129
3321.63	134.934
3323.68	146.942
3325.73	119.152
3327.78	175.775
3329.83	192.614
3331.88	174.676
3333.93	119.071
3335.98	169.308
3338.02	137.061
3340.07	168.172
3342.12	177.938
3344.16	168.607
3346.21	166.393
3348.25	144.881
3350.3	161.63
3352.34	180.679
3354.38	185.449
3356.42	154.761
3358.46	140.68
3360.5	138.501
3362.54	165.094
3364.58	167.685
3366.62	146.287
3368.66	153.673
3370.69	175.513
3372.73	156.379
3374.76	166.022
3376.8	192.443
3378.83	156.196
3380.87	156.069
3382.9	175.219
3384.93	201.621
3386.96	174.864
3388.99	164.973
3391.02	128.4
3393.05	162.002
3395.08	188.494
3397.11	159.358
3399.14	147.169
3401.16	154.283
3403.19	149.104
3405.21	163.344
3407.24	150.906
3409.26	172.478
3411.29	147.715
3413.31	203.311
3415.33	149.372
3417.35	178.24
3419.37	182.727
3421.39	175.002
3423.41	142.864
3425.43	169.289
3427.45	171.451
3429.46	193.207
3431.48	131.98
3433.5	175.858
3435.51	158.708
3437.53	119.556
3439.54	166.185
3441.55	168.741
3443.57	171.389
3445.58	139.781
3447.59	169.772
3449.6	135.693
3451.61	173.108
3453.62	146.515
3455.63	105.1
3457.64	160.398
3459.64	161.281
3461.65	201.999
3463.66	105.787
3465.66	154.056
3467.67	139.963
3469.67	150.796
3471.67	123.989
3473.68	116.698
3475.68	160.136
3477.68	148.238
3479.68	123.683
3481.68	200.133
3483.68	122.365
3485.68	158.423
3487.68	136.167
3489.67	118.906
3491.67	132.142
3493.67	142.809
3495.66	148.281
3497.66	133.284
3499.65	105.404
3501.64	126.033
3503.64	128.625
3505.63	118.433
3507.62	154.219
3509.61	141.092
3511.6	115.009
3513.59	137.711
3515.58	109.026
3517.57	88.0143
3519.56	92.7026
3521.54	102.522
3523.53	102.082
3525.52	106.866
3527.5	119.4
3529.49	98.2529
3531.47	103.204
3533.45	80.0464
3535.43	98.2526
3537.42	126.986
3539.4	96.4052
3541.38	52.6005
3543.36	99.3515
3545.34	96.8212
3547.32	86.4501
3549.29	83.7716
3551.27	80.9354
3553.25	75.0138
3555.22	82.4594
3557.2	97.821
3559.17	92.446
3561.15	81.9205
3563.12	55.8188
3565.09	53.226
3567.07	79.4796
3569.04	64.2094
3571.01	66.9799
3572.98	90.7777
3574.95	54.3917
3576.92	75.7799
3578.88	57.8834
3580.85	79.5095
3582.82	66.9717
3584.79	94.0242
3586.75	81.4648
3588.72	60.9018
3590.68	53.5386
3592.64	91.3151
3594.61	68.0047
3596.57	65.9532
3598.53	47.8185
3600.49	82.9532
3602.45	64.7047
3604.41	51.7382
3606.37	65.4689
3608.33	73.8101
3610.29	49.8518
3612.25	44.6797
3614.2	39.5897
3616.16	53.1724
3618.12	45.276
3620.07	75.0119
3622.02	34.325
3623.98	31.2581
3625.93	63.299
3627.88	27.7665
3629.84	46.2585
3631.79	40.2849
3633.74	37.0991
3635.69	28.5992
3637.64	14.8064
3639.58	60.7662
3641.53	47.3328
3643.48	42.098
3645.43	34.1549
3647.37	18.249
3649.32	55.7327
3651.26	28.3485
3653.21	52.7082
3655.15	41.5391
3657.09	33.1072
3659.03	21.9141
3660.98	48.9039
3662.92	7.58856
3664.86	12.7603
3666.8	18.0149
3668.74	28.7621
3670.67	23.0439
3672.61	6.39453
3674.55	14.5724
3676.49	11.877
3678.42	17.5139
3680.36	20.5002
3682.29	1.60461
3684.23	13.0466
3686.16	21.8783
3688.09	3.11963
3690.02	28.5582
3691.96	26.4119
3693.89	18.5842
3695.82	27.291
3697.75	8.42188
3699.68	17.2712
3701.61	9.474
3703.53	7.0517
3705.46	18.8045
3707.39	27.7899
3709.31	11.5682
3711.24	34.5558
3713.16	-1.3924
3715.09	4.61932
3717.01	13.3971
3718.93	5.22437
3720.86	13.9306
3722.78	28.2606
3724.7	28.4244
3726.62	25.7097
3728.54	34.3478
3730.46	8.99353
3732.38	3.5459
3734.29	12.2599
3736.21	12.4703
3738.13	12.6408
3740.04	29.8613
3741.96	-1.39661
3743.87	10.0873
3745.79	1.56171
3747.7	12.9707
3749.62	15.7603
3751.53	21.3363
3753.44	29.7209
3755.35	3.69751
3757.26	-2.36371
3759.17	2.98486
3761.08	5.43121
3762.99	13.6163
3764.9	16.0383
3766.81	-10.1749
3768.71	6.70862
3770.62	3.58008
3772.52	3.35901
3774.43	-5.49188
3776.33	17.2498
3778.24	8.48004
3780.14	-11.7239
3782.04	19.9272
3783.95	-5.89063
3785.85	17.2484
3787.75	25.9459
3789.65	2.84296
3791.55	-0.0446777
3793.45	17.4109
3795.34	3.17517
3797.24	17.9401
3799.14	-2.05225
3801.04	9.87799
3802.93	24.7595
3804.83	4.82153
3806.72	16.9109
3808.62	5.70142
3810.51	6.08362
3812.4	6.40424
3814.29	6.71436
3816.19	12.8615
3818.08	27.8206
3819.97	7.57269
3821.86	16.6079
3823.75	5.03833
3825.64	13.9319
3827.52	8.19379
3829.41	14.2791
3831.3	2.77271
3833.18	5.99927
3835.07	-5.58026
3836.95	21.2014
3838.84	-2.31567
3840.72	12.7732
3842.61	7.21204
3844.49	-1.63684
3846.37	10.1016
3848.25	24.6093
3850.13	6.55585
3852.01	9.26776
3853.89	-0.0662231
3855.77	23.4001
3857.65	16.9278
3859.53	10.3786
3861.41	27.7844
3863.28	6.62628
3865.16	-2.16199
3867.03	4.22064
3868.91	4.90088
3870.78	17.1654
3872.66	13.7384
3874.53	-10.4333
3876.4	-4.72791
3878.27	6.95032
3880.14	15.6634
3882.01	0.480347
3883.89	12.2651
3885.75	3.15259
3887.62	18.0341
3889.49	-5.99689
3891.36	11.9837
3893.23	9.12964
3895.09	12.5597
3896.96	3.73444
3898.82	21.9536
3900.69	-7.93359
3902.55	-1.7323
3904.42	19.4611
3906.28	7.58899
3908.14	19.7191
3910	16.8891
3911.87	-0.941284
3913.73	14.4372
3915.59	-9.43805
3917.45	15.2427
3919.3	3.63361
3921.16	7.32458
3923.02	-7.25354
3924.88	14.6348
3926.73	33.4753
3928.59	30.9317
3930.45	3.90308
3932.3	10.3548
3934.15	28.9185
3936.01	10.7616
3937.86	1.71826
3939.71	8.18213
3941.56	2.43945
3943.42	6.07227
3945.27	15.7158
3947.12	6.92163
3948.97	13.4601
3950.81	13.7214
3952.66	7.76569
3954.51	11.017
3956.36	-4.27429
3958.2	14.3341
3960.05	-1.21295
3961.9	20.3896
3963.74	1.7345
3965.58	29.4543
3967.43	1.3205
3969.27	19.5667
3971.11	0.684326
3972.96	3.52759
3974.8	18.7903
3976.64	9.22076
3978.48	12.0112
3980.32	14.7023
3982.16	8.03003
3984	-4.80682
3985.83	13.4055
3987.67	16.0589
3989.51	6.39984
3991.34	6.14941
3993.18	2.90015
3995.01	18.3345
3996.85	-6.43945
3998.68	2.97357
