#Acq. time (s)=	45
#Accumulations=	2
#Range (cm-¹)=	100...4000
#Windows=	1
#Auto scanning=	Off
#Autofocus=	Off
#Macrospot=	Off
#AutoExposure=	Off
#Spike filter=	Multiple accum.
#Delay time (s)=	2
#Binning=	1
#Readout mode=	Signal
#DeNoise=	Off
#ICS correction=	On
#Dark correction=	Off
#Inst. Process=	Off
#Detector Gain=	Best Dynamic
#Detector ADC=	50 kHz EM
#Detector EM gain=	100
#Detector temperature (°C)=	-60.09
#Instrument=	LabRAM HR Evol
#Detector=	SIN-EM FIVIS
#Objective=	x100_VIS_LWD
#Grating=	150 (500nm)
#ND Filter=	100%
#Laser=	633nm_Edge
#Hole=	49.98
#Temperature=	0
#Range=	Visible
#StageXY=	75x50mm Scan+
#StageZ=	Z motor
#X (µm)=	0
#Y (µm)=	0
#Z (µm)=	16.6
#Full time(mm:ss)=	1:34
#Project=	21_11_22
#Sample=	BU04w
#Site=	
#Title=	BU04w-A-FF3-FI05-L_150 (500nm)_633nm_Edge_100%_x100_VIS_LWD_H50um_45sX2
#Remark=	
#Date=	22.11.2021 11:45
#Acquired=	22.11.2021 11:45:51
#Base:Fit=	16.12.2021 16:15:35
#Base:Edit=	16.12.2021 16:23:09
#Base:Edit=	16.12.2021 16:23:10
#Base:Edit=	16.12.2021 16:23:12
#Base:Edit=	16.12.2021 16:23:14
#Base:Sub=	16.12.2021 16:23:17
100.177	1064.14
103.438	1007.74
106.695	927.909
109.954	889.414
113.209	798.574
116.464	861.659
119.717	802.446
122.969	715.856
126.219	729.661
129.469	688.331
132.716	720.601
135.963	735.825
139.208	731.852
142.452	868.852
145.694	697.121
148.936	649.881
152.175	625.954
155.414	702.92
158.651	797.29
161.887	971.516
165.121	1064.54
168.353	974.477
171.586	708.956
174.815	452.944
178.045	282.218
181.272	237.156
184.5	137.384
187.724	171.792
190.947	161.126
194.17	99.0885
197.39	102.285
200.611	103.01
203.829	71.8824
207.045	9.2099
210.262	2.92725
213.475	33.965
216.688	40.3569
219.9	58.2418
223.11	131.468
226.32	264.582
229.527	395.316
232.733	632.815
235.939	969.164
239.142	934.678
242.344	707.485
245.546	381.431
248.745	236.697
251.943	173.698
255.141	189.545
258.336	229.326
261.53	183.811
264.723	169.726
267.916	119.74
271.106	95.5092
274.294	110.267
277.483	127.024
280.669	178.817
283.854	211.604
287.038	188.463
290.221	171.919
293.402	103.241
296.582	41.3408
299.76	23.0811
302.938	89.981
306.114	66.0587
309.288	167.938
312.461	190.45
315.634	382.025
318.805	648.064
321.974	1128.54
325.142	1705.2
328.309	2098.66
331.475	1845.3
334.639	1378.71
337.802	914.112
340.963	634.493
344.123	392.649
347.282	251.628
350.441	188.992
353.597	191.249
356.752	158.642
359.906	221.103
363.058	315.479
366.209	317.616
369.36	291.607
372.509	220.57
375.656	159.868
378.802	116.221
381.947	62.2952
385.09	69.6401
388.232	-18.3095
391.373	7.41058
394.512	66.2012
397.652	45.375
400.789	92.6327
403.925	111.478
407.059	121.956
410.192	184.306
413.324	193.7
416.455	256.717
419.584	292.639
422.712	441.643
425.839	576.864
428.964	702.198
432.089	938.55
435.212	980.062
438.333	921.555
441.454	727.765
444.573	559.697
447.691	521.379
450.807	486.809
453.923	500.206
457.037	566.045
460.15	583.509
463.261	417.606
466.371	280.209
469.48	196.915
472.588	135.344
475.695	115.894
478.8	127.307
481.904	145.124
485.007	132.187
488.108	177.011
491.208	148.251
494.307	154.016
497.405	182.989
500.502	233.484
503.597	308.349
506.691	396.244
509.784	427.326
512.874	534.128
515.964	532.716
519.053	542.771
522.141	475.445
525.227	412.749
528.312	372.574
531.396	370.927
534.479	327.131
537.559	328.323
540.639	287.785
543.718	288.49
546.796	286.122
549.873	203.065
552.948	137.156
556.022	155.07
559.093	127.254
562.165	173.62
565.235	124.596
568.304	82.9472
571.372	136.229
574.437	90.5673
577.503	82.4277
580.567	54.6966
583.63	61.8257
586.691	62.4186
589.75	73.4386
592.81	144.36
595.868	232.935
598.924	279.91
601.98	315.273
605.033	293.061
608.086	270.818
611.138	226.283
614.188	187.315
617.236	236.622
620.285	245.614
623.332	197.486
626.376	180.336
629.42	178.569
632.464	153.854
635.506	158.93
638.545	167.448
641.585	161.562
644.623	165.633
647.659	121.044
650.695	162.888
653.73	200.584
656.762	265.28
659.794	260.497
662.825	246.325
665.854	239.769
668.883	111.932
671.91	105.012
674.935	57.6431
677.96	59.4506
680.982	25.8118
684.005	6.38782
687.027	5.66895
690.045	19.1664
693.064	-11.1936
696.082	17.3591
699.097	23.4299
702.113	34.1506
705.126	37.3091
708.139	1.80353
711.149	12.1646
714.16	9.69739
717.169	14.0008
720.176	-7.19696
723.183	-19.7995
726.187	9.56732
729.192	28.4439
732.194	14.463
735.196	0.492798
738.196	-8.80222
741.196	8.1015
744.193	21.2493
747.19	12.0619
750.185	-4.57602
753.18	12.5646
756.173	-15.1432
759.165	12.516
762.155	9.62976
765.146	5.05194
768.133	8.9646
771.121	-3.07333
774.107	-8.56375
777.092	14.9409
780.075	9.20398
783.058	24.9722
786.039	31.2321
789.02	-12.5156
791.998	3.00934
794.975	24.0877
797.952	8.27109
800.927	31.8986
803.902	24.3147
806.874	30.7693
809.845	25.9079
812.817	46.2795
815.786	20.4897
818.755	45.3602
821.721	50.4505
824.686	54.5422
827.652	53.9247
830.615	49.7602
833.576	48.7719
836.538	32.0327
839.498	51.9601
842.458	35.695
845.415	76.3402
848.37	73.1103
851.327	58.6618
854.28	64.8815
857.233	79.6187
860.184	51.0777
863.135	91.3225
866.084	72.1425
869.032	102.082
871.98	129.076
874.925	139.785
877.87	147.498
880.813	117.221
883.756	158.926
886.697	157.799
889.636	168.889
892.576	162.797
895.513	133.881
898.45	145.485
901.385	188.07
904.318	146.356
907.253	140.605
910.184	152.692
913.114	177.959
916.044	183.429
918.973	175.144
921.9	200.783
924.826	246.431
927.75	261.198
930.674	280.191
933.596	351.701
936.519	432.429
939.439	496.78
942.357	551.041
945.275	682.213
948.192	842.581
951.107	949.307
954.023	1004.82
956.936	1044.07
959.848	986.547
962.759	856.897
965.669	842.4
968.577	726.26
971.485	760.162
974.391	759.237
977.296	940.187
980.201	1044.58
983.104	1163.92
986.006	1406.47
988.907	1493.42
991.806	1579.14
994.704	1418.97
997.602	1290.79
1000.5	1146.8
1003.39	1098.52
1006.29	1008.69
1009.18	985.032
1012.07	1027.06
1014.96	1042.44
1017.85	1255.29
1020.74	1424.68
1023.63	1543.39
1026.51	1623.57
1029.4	1432.89
1032.28	1208.21
1035.16	901.488
1038.04	704.639
1040.92	595.831
1043.8	554.232
1046.68	468.113
1049.56	428.828
1052.43	397.063
1055.31	347.656
1058.18	302.843
1061.05	330.619
1063.93	293.132
1066.8	282.456
1069.67	266.067
1072.53	296.262
1075.4	326.351
1078.26	385.413
1081.13	396.844
1083.99	472.247
1086.85	559.205
1089.72	617.272
1092.58	770.106
1095.44	905.481
1098.29	1205.15
1101.15	1296.72
1104	1076.07
1106.86	807.94
1109.71	607.726
1112.56	502.174
1115.42	401.988
1118.27	330.68
1121.11	297.771
1123.96	250.968
1126.81	286.931
1129.65	297.765
1132.5	320.284
1135.34	374.24
1138.18	419.402
1141.03	489.349
1143.87	592.572
1146.7	715.237
1149.54	949.523
1152.38	1337.16
1155.21	1590.53
1158.05	1408.12
1160.88	909.453
1163.71	635.835
1166.55	409.031
1169.37	294.491
1172.2	278.163
1175.03	227.553
1177.86	188.741
1180.68	181.43
1183.51	139.055
1186.33	113.604
1189.15	125.382
1191.98	129.388
1194.8	67.248
1197.61	96.9363
1200.43	97.5815
1203.25	70.0105
1206.06	91.5011
1208.88	75.8043
1211.69	59.9904
1214.51	74.892
1217.32	58.2221
1220.13	43.5119
1222.94	78.5105
1225.74	66.7881
1228.55	52.9728
1231.36	57.0376
1234.16	37.9205
1236.97	50.8311
1239.77	39.4724
1242.57	60.1642
1245.37	41.4029
1248.17	45.7092
1250.97	42.7876
1253.77	40.8899
1256.56	68.0536
1259.36	56.7148
1262.15	81.5528
1264.94	62.025
1267.74	75.7889
1270.53	46.1336
1273.32	61.698
1276.11	46.0714
1278.89	63.5518
1281.68	42.9249
1284.46	41.444
1287.25	56.0428
1290.03	37.6801
1292.81	32.4116
1295.59	30.2698
1298.38	39.1832
1301.15	14.1584
1303.93	32.2887
1306.71	47.5707
1309.48	14.9694
1312.26	11.5905
1315.03	33.3288
1317.81	44.0997
1320.58	34.8009
1323.35	36.6271
1326.12	24.362
1328.88	30.3013
1331.65	2.74258
1334.42	33.9921
1337.18	33.7257
1339.95	-5.41647
1342.71	25.7153
1345.47	5.67581
1348.23	11.161
1350.99	17.6603
1353.75	24.118
1356.51	22.2875
1359.26	31.6838
1362.02	37.9208
1364.77	36.858
1367.53	42.9026
1370.28	48.915
1373.03	66.2003
1375.78	113.294
1378.53	103.865
1381.28	104.693
1384.03	98.3246
1386.77	26.281
1389.52	47.6353
1392.26	44.4911
1395	8.58887
1397.74	33.5602
1400.49	3.97864
1403.23	6.25775
1405.96	20.9323
1408.7	34.6361
1411.44	20.5564
1414.17	17.8472
1416.91	46.1862
1419.64	-21.6496
1422.37	-0.51889
1425.11	10.3271
1427.84	17.0278
1430.56	-2.21375
1433.29	1.36746
1436.02	31.022
1438.74	-0.844635
1441.47	24.6358
1444.19	4.25104
1446.92	7.7963
1449.64	19.6156
1452.36	-2.23712
1455.08	6.27176
1457.8	14.6844
1460.52	-2.15982
1463.23	10.3338
1465.95	34.3324
1468.66	-5.73703
1471.38	1.45132
1474.09	4.46399
1476.8	33.7785
1479.51	1.23538
1482.22	11.7232
1484.93	15.9716
1487.64	9.76779
1490.34	24.649
1493.05	-17.2149
1495.75	7.28381
1498.46	-1.91177
1501.16	5.83267
1503.86	27.3382
1506.56	10.8664
1509.26	7.13531
1511.96	-6.14877
1514.65	5.03021
1517.35	7.75809
1520.05	29.7178
1522.74	5.83942
1525.43	-5.22388
1528.13	-3.5376
1530.82	13.2453
1533.51	33.3874
1536.2	21.1642
1538.88	23.8405
1541.57	15.7289
1544.25	17.1239
1546.94	17.2205
1549.62	2.02161
1552.31	12.6369
1554.99	36.0257
1557.67	38.7939
1560.35	26.5648
1563.03	19.7511
1565.71	22.6317
1568.38	16.8754
1571.06	30.5121
1573.73	12.922
1576.41	16.9355
1579.08	18.9634
1581.75	18.8465
1584.42	25.2318
1587.09	-2.80344
1589.76	31.6525
1592.43	28.4836
1595.09	-0.503235
1597.76	22.3272
1600.42	33.32
1603.09	22.825
1605.75	18.8395
1608.41	36.6249
1611.07	51.2877
1613.73	35.7053
1616.39	16.8675
1619.05	32.9038
1621.7	32.605
1624.36	30.1017
1627.01	26.481
1629.67	14.0512
1632.32	21.3466
1634.97	71.5307
1637.62	65.447
1640.27	26.8857
1642.92	35.9599
1645.57	66.0829
1648.22	33.0956
1650.86	36.5647
1653.51	23.3919
1656.15	14.5563
1658.79	26.718
1661.43	58.8103
1664.07	60.9641
1666.71	66.3913
1669.35	31.8895
1671.99	38.4093
1674.63	43.8192
1677.26	21.4239
1679.9	12.4073
1682.53	38.7189
1685.16	18.4088
1687.79	8.08725
1690.43	15.5344
1693.05	26.3742
1695.68	14.082
1698.31	45.1328
1700.94	12.2305
1703.56	20.1161
1706.19	35.4979
1708.81	29.7256
1711.44	18.7951
1714.06	26.4515
1716.68	30.0978
1719.3	29.7437
1721.92	8.76895
1724.53	26.8183
1727.15	28.2974
1729.77	15.1789
1732.38	26.7495
1735	20.3321
1737.61	25.1354
1740.22	6.29083
1742.83	39.2773
1745.44	17.0212
1748.05	18.3647
1750.66	0.440491
1753.27	10.734
1755.87	19.8706
1758.48	24.3798
1761.08	26.5605
1763.69	17.4245
1766.29	12.8445
1768.89	8.28412
1771.49	13.936
1774.09	10.5334
1776.69	21.937
1779.29	-2.88443
1781.88	-14.0576
1784.48	27.0617
1787.07	23.924
1789.66	15.1918
1792.26	5.28442
1794.85	15.9239
1797.44	16.3265
1800.03	6.51825
1802.62	13.8573
1805.21	-0.565186
1807.79	17.0806
1810.38	9.36954
1812.96	12.0053
1815.55	31.9384
1818.13	12.6999
1820.71	26.8758
1823.29	13.3771
1825.87	18.372
1828.45	44.2542
1831.03	16.8401
1833.61	13.7429
1836.18	8.38812
1838.76	12.1847
1841.33	15.9531
1843.91	10.3668
1846.48	40.9591
1849.05	3.77151
1851.62	32.0605
1854.19	-8.85593
1856.76	25.3004
1859.33	-1.43784
1861.89	25.8354
1864.46	12.0185
1867.02	20.6136
1869.59	17.3479
1872.15	23.4286
1874.71	20.0234
1877.27	9.55197
1879.83	-28.1343
1882.39	14.4673
1884.95	16.8578
1887.51	20.4568
1890.06	25.0529
1892.62	17.7881
1895.17	28.2452
1897.73	21.0363
1900.28	36.3967
1902.83	3.45926
1905.38	1.35434
1907.93	0.429047
1910.48	26.9905
1913.03	0.206757
1915.57	19.8909
1918.12	50.2433
1920.66	1.19138
1923.21	20.5229
1925.75	26.7793
1928.29	25.8659
1930.83	10.5645
1933.37	13.2099
1935.91	25.4206
1938.45	11.1879
1940.99	26.941
1943.53	22.2279
1946.06	17.4667
1948.6	7.86609
1951.13	24.6747
1953.66	18.5616
1956.19	2.78168
1958.73	27.9474
1961.26	30.202
1963.78	-19.4011
1966.31	12.9339
1968.84	21.0713
1971.36	13.5012
1973.89	21.5754
1976.41	24.8437
1978.94	13.6618
1981.46	7.28595
1983.98	8.14514
1986.5	11.423
1989.02	-12.9388
1991.54	15.6193
1994.06	24.955
1996.58	-2.95102
1999.09	10.0554
2001.61	-8.16779
2004.12	10.9183
2006.63	16.8462
2009.15	13.1607
2011.66	7.13376
2014.17	9.50226
2016.68	21.5236
2019.19	9.36078
2021.69	11.7059
2024.2	25.0009
2026.71	38.3564
2029.21	37.2863
2031.72	10.907
2034.22	26.875
2036.72	16.2152
2039.22	15.2463
2041.72	-3.91019
2044.22	13.3465
2046.72	5.13214
2049.22	4.21503
2051.71	37.3938
2054.21	16.7259
2056.71	20.665
2059.2	25.8633
2061.69	12.7247
2064.18	36.2965
2066.68	13.3515
2069.17	17.3031
2071.66	47.0663
2074.14	8.01953
2076.63	35.3443
2079.12	15.8724
2081.6	28.4091
2084.09	22.3936
2086.57	22.4958
2089.06	2.76175
2091.54	48.7011
2094.02	26.6691
2096.5	18.3233
2098.98	16.1536
2101.46	52.5316
2103.93	23.0831
2106.41	24.7345
2108.89	22.679
2111.36	11.9015
2113.84	68.72
2116.31	24.1876
2118.78	43.5397
2121.25	28.9899
2123.72	38.2984
2126.19	26.1785
2128.66	25.359
2131.13	30.8238
2133.59	38.7945
2136.06	8.72
2138.53	41.9988
2140.99	39.757
2143.45	55.3108
2145.92	31.3664
2148.38	28.9838
2150.84	37.9922
2153.3	34.2261
2155.76	39.3414
2158.21	26.5429
2160.67	22.6302
2163.13	14.8269
2165.58	23.5822
2168.04	22.0669
2170.49	15.4943
2172.94	38.4307
2175.39	8.90393
2177.84	3.63995
2180.29	2.09476
2182.74	29.9817
2185.19	50.0833
2187.64	22.9163
2190.08	20.1252
2192.53	13.5545
2194.98	27.4834
2197.42	19.7412
2199.86	27.4403
2202.3	17.2407
2204.74	30.1934
2207.18	16.2164
2209.62	35.7236
2212.06	28.2604
2214.5	19.496
2216.93	28.854
2219.37	11.1024
2221.81	26.9666
2224.24	32.4989
2226.67	27.6603
2229.11	13.7136
2231.54	34.8568
2233.97	22.1826
2236.4	27.7321
2238.83	7.17358
2241.25	12.702
2243.68	18.2675
2246.1	14.6737
2248.53	33.3777
2250.96	35.0292
2253.38	3.76382
2255.8	40.9398
2258.22	36.0461
2260.64	-5.87634
2263.06	31.3979
2265.48	14.4001
2267.9	21.1702
2270.32	5.34521
2272.73	35.9005
2275.15	26.6015
2277.56	18.5899
2279.98	29.123
2282.39	15.6453
2284.8	10.0742
2287.21	17.7536
2289.62	17.4879
2292.03	15.8605
2294.44	20.8829
2296.85	4.66306
2299.26	24.4784
2301.66	28.3395
2304.07	14.9698
2306.47	11.0121
2308.88	25.7947
2311.28	23.3073
2313.68	10.1294
2316.08	30.4795
2318.48	14.7152
2320.88	21.716
2323.28	-4.8988
2325.68	14.2672
2328.07	30.7824
2330.47	48.7114
2332.86	19.4345
2335.26	38.8278
2337.65	4.04388
2340.04	60.1753
2342.43	25.3799
2344.82	81.8141
2347.21	36.1444
2349.6	31.2185
2351.99	37.262
2354.38	33.6277
2356.76	54.6108
2359.15	32.9539
2361.53	42.6531
2363.92	37.353
2366.3	44.4654
2368.68	32.2334
2371.06	29.6343
2373.44	9.00403
2375.82	36.8483
2378.2	31.4484
2380.58	23.105
2382.95	17.5069
2385.33	24.2906
2387.71	4.64893
2390.08	29.4491
2392.45	17.9917
2394.83	26.0128
2397.2	26.9699
2399.57	27.9344
2401.94	9.43091
2404.31	22.8462
2406.68	-8.23907
2409.04	30.4302
2411.41	29.0378
2413.78	2.73145
2416.14	28.5473
2418.51	11.575
2420.87	12.1519
2423.23	50.1818
2425.59	23.2938
2427.95	9.44623
2430.31	-4.41791
2432.67	1.49261
2435.03	7.47894
2437.39	19.1926
2439.75	12.477
2442.1	22.7721
2444.46	4.64996
2446.81	13.5451
2449.16	9.6333
2451.52	29.9981
2453.87	61.8263
2456.22	10.6389
2458.57	26.7643
2460.92	28.543
2463.27	36.0972
2465.61	34.9876
2467.96	19.4165
2470.3	28.3395
2472.65	18.442
2474.99	-3.05157
2477.34	18.9509
2479.68	13.3913
2482.02	25.2266
2484.36	18.1267
2486.7	12.3849
2489.04	38.7416
2491.38	5.24438
2493.72	19.927
2496.05	43.473
2498.39	40.6293
2500.72	21.6309
2503.06	-6.23438
2505.39	21.6476
2507.72	15.7266
2510.06	5.34467
2512.39	31.7184
2514.72	34.5228
2517.04	37.3227
2519.37	34.3074
2521.7	23.947
2524.03	10.5936
2526.35	-2.82098
2528.68	17.8069
2531	20.6821
2533.33	17.71
2535.65	11.7895
2537.97	4.3963
2540.29	7.41144
2542.61	17.8796
2544.93	1.56012
2547.25	16.5891
2549.57	-1.24121
2551.88	36.2133
2554.2	25.8427
2556.51	-4.11346
2558.83	13.8228
2561.14	22.9151
2563.46	3.47626
2565.77	33.7287
2568.08	30.9061
2570.39	7.01678
2572.7	17.7858
2575.01	10.4073
2577.31	48.378
2579.62	15.1348
2581.93	30.2984
2584.23	24.0769
2586.54	33.0178
2588.84	28.2166
2591.15	26.2572
2593.45	39.7256
2595.75	3.04431
2598.05	22.7859
2600.35	25.6859
2602.65	27.0303
2604.95	6.97809
2607.24	40.3302
2609.54	-13.3796
2611.84	6.09778
2614.13	-8.00861
2616.42	6.92706
2618.72	3.57245
2621.01	17.0024
2623.3	27.4252
2625.59	7.24506
2627.88	49.9405
2630.17	28.3953
2632.46	31.5197
2634.75	13.1809
2637.04	24.2086
2639.32	32.3097
2641.61	21.818
2643.89	28.3774
2646.18	17.9467
2648.46	2.72235
2650.74	18.563
2653.02	26.6932
2655.3	-1.36255
2657.58	37.5691
2659.86	18.7342
2662.14	18.5793
2664.42	23.0489
2666.69	32.1641
2668.97	3.89441
2671.24	-4.04089
2673.52	54.1585
2675.79	2.66003
2678.06	36.4438
2680.33	28.0117
2682.61	-12.4042
2684.88	16.8447
2687.15	17.5934
2689.41	13.5164
2691.68	49.1653
2693.95	22.5195
2696.22	17.3662
2698.48	14.1974
2700.74	27.0763
2703.01	-5.05566
2705.27	27.0198
2707.53	43.0603
2709.8	20.4144
2712.06	21.9003
2714.32	0.852417
2716.57	33.2838
2718.83	42.9007
2721.09	4.03021
2723.35	15.2421
2725.6	24.7289
2727.86	17.9899
2730.11	29.0268
2732.37	-12.0261
2734.62	5.47302
2736.87	27.7627
2739.12	20.7802
2741.37	33.4974
2743.62	33.2101
2745.87	13.4485
2748.12	23.0604
2750.37	8.33527
2752.61	-1.06213
2754.86	10.4741
2757.1	21.8871
2759.35	16.8124
2761.59	34.579
2763.83	3.27069
2766.08	21.282
2768.32	11.3876
2770.56	30.9744
2772.8	4.58508
2775.04	22.7816
2777.27	-1.83984
2779.51	21.485
2781.75	20.2537
2783.98	35.5519
2786.22	12.6869
2788.45	34.697
2790.68	1.67035
2792.92	30.3594
2795.15	18.9213
2797.38	-11.1203
2799.61	15.8414
2801.84	24.2974
2804.07	44.4958
2806.3	4.05011
2808.52	14.0684
2810.75	5.5152
2812.98	0.297302
2815.2	15.2424
2817.42	20.0767
2819.65	30.0184
2821.87	14.582
2824.09	29.6727
2826.31	29.5181
2828.53	17.4382
2830.75	20.6141
2832.97	11.8647
2835.19	1.36621
2837.41	19.8295
2839.62	-9.40155
2841.84	19.3243
2844.05	12.2708
2846.27	30.9283
2848.48	13.6981
2850.69	35.8687
2852.9	6.77753
2855.12	27.4457
2857.33	32.7098
2859.54	8.7135
2861.74	29.5374
2863.95	24.6144
2866.16	14.5692
2868.37	23.5171
2870.57	11.6773
2872.78	6.7276
2874.98	15.6943
2877.18	0.330444
2879.39	19.8438
2881.59	13.2581
2883.79	18.9426
2885.99	5.39325
2888.19	19.8363
2890.39	11.4266
2892.59	8.25183
2894.78	-19.6553
2896.98	9.08691
2899.18	25.5356
2901.37	22.4562
2903.57	33.4325
2905.76	28.3857
2907.95	14.3874
2910.15	16.3836
2912.34	32.4818
2914.53	0.27832
2916.72	7.39545
2918.91	11.043
2921.09	7.5257
2923.28	18.3951
2925.47	14.9771
2927.65	9.79132
2929.84	0.984314
2932.02	31.9813
2934.21	19.4255
2936.39	8.57465
2938.57	17.5579
2940.75	13.7773
2942.94	15.4864
2945.12	2.56152
2947.29	25.9055
2949.47	31.1008
2951.65	12.619
2953.83	12.342
2956	35.8035
2958.18	15.4122
2960.36	15.1407
2962.53	5.74634
2964.7	40.3191
2966.88	36.5087
2969.05	49.2271
2971.22	23.408
2973.39	32.4908
2975.56	2.94257
2977.73	15.7045
2979.9	39.5538
2982.06	32.1571
2984.23	17.4484
2986.4	28.6484
2988.56	26.9623
2990.73	53.1327
2992.89	42.2767
2995.05	22.0358
2997.21	35.3743
2999.38	28.2621
3001.54	37.9887
3003.7	36.5646
3005.86	37.036
3008.01	33.7209
3010.17	36.0152
3012.33	66.4381
3014.49	72.6165
3016.64	20.2395
3018.8	54.8787
3020.95	72.5466
3023.1	52.1511
3025.26	73.4627
3027.41	52.7546
3029.56	72.0358
3031.71	95.1353
3033.86	45.4572
3036.01	30.0651
3038.16	60.5337
3040.31	83.7164
3042.45	62.5883
3044.6	54.8146
3046.74	70.0978
3048.89	85.395
3051.03	79.5018
3053.18	54.3012
3055.32	69.681
3057.46	81.2244
3059.6	63.7288
3061.74	137.214
3063.88	106.169
3066.02	98.359
3068.16	84.6973
3070.3	61.299
3072.43	115.659
3074.57	96.1784
3076.7	107.849
3078.84	137.105
3080.97	111.74
3083.1	123.456
3085.24	141.245
3087.37	119.927
3089.5	149.698
3091.63	175.707
3093.76	146.806
3095.89	125.802
3098.02	157.99
3100.14	105.276
3102.27	143.537
3104.4	195.902
3106.52	176.984
3108.65	221.727
3110.77	176.949
3112.89	197.988
3115.01	184.972
3117.14	145.884
3119.26	181.021
3121.38	182.185
3123.5	211.644
3125.62	212.965
3127.73	200.161
3129.85	250.408
3131.97	219.489
3134.08	280.304
3136.2	206.223
3138.31	275.426
3140.43	256.362
3142.54	241.255
3144.65	215.652
3146.76	291.315
3148.87	271.839
3150.98	301.951
3153.09	304.865
3155.2	284.862
3157.31	356.579
3159.42	399.251
3161.52	335.307
3163.63	298.438
3165.73	294.913
3167.84	339.671
3169.94	380.249
3172.05	349.639
3174.15	417.805
3176.25	386.527
3178.35	388.902
3180.45	359.42
3182.55	374.283
3184.65	370.038
3186.75	446.327
3188.84	388.731
3190.94	501.365
3193.04	488.929
3195.13	429.745
3197.23	396.305
3199.32	463.347
3201.41	381.626
3203.51	487.707
3205.6	397.09
3207.69	420.205
3209.78	430.435
3211.87	477.435
3213.96	405.841
3216.05	444.543
3218.13	405.121
3220.22	448.028
3222.31	408.339
3224.39	436.156
3226.48	389.763
3228.56	459.302
3230.64	366.465
3232.73	363.613
3234.81	364.844
3236.89	403.663
3238.97	414.027
3241.05	429.044
3243.13	388.572
3245.21	288.143
3247.29	311.694
3249.36	368.963
3251.44	293.746
3253.52	319.233
3255.59	339.953
3257.66	360.747
3259.74	321.457
3261.81	322.564
3263.88	314.829
3265.95	300.581
3268.03	292.085
3270.1	295.003
3272.17	224.323
3274.23	252.44
3276.3	282.349
3278.37	296.552
3280.44	255.736
3282.5	283.62
3284.57	277.145
3286.63	238.493
3288.7	271
3290.76	252.92
3292.82	255.481
3294.88	283.378
3296.94	195.959
3299	265.471
3301.06	219.804
3303.12	210.803
3305.18	257.469
3307.24	239.29
3309.3	297.615
3311.35	263.075
3313.41	277.221
3315.46	231.085
3317.52	254.606
3319.57	236.409
3321.63	236.86
3323.68	225.841
3325.73	247.488
3327.78	241.251
3329.83	246.664
3331.88	198.527
3333.93	260.954
3335.98	198.482
3338.02	270.51
3340.07	252.333
3342.12	188.985
3344.16	260.481
3346.21	287.048
3348.25	256.3
3350.3	218.683
3352.34	280.808
3354.38	266.805
3356.42	193.515
3358.46	234.598
3360.5	259.027
3362.54	245.317
3364.58	226.656
3366.62	229.511
3368.66	232.406
3370.69	280.984
3372.73	271.781
3374.76	216.744
3376.8	190.413
3378.83	212.213
3380.87	238.857
3382.9	205.157
3384.93	289.741
3386.96	212.482
3388.99	239.079
3391.02	258.379
3393.05	212.363
3395.08	197.914
3397.11	217.477
3399.14	224.952
3401.16	271.162
3403.19	212.803
3405.21	212.688
3407.24	210.197
3409.26	190.65
3411.29	239.068
3413.31	255.954
3415.33	221.708
3417.35	280.034
3419.37	250.643
3421.39	245.574
3423.41	311.188
3425.43	269.574
3427.45	271.995
3429.46	262.277
3431.48	267.285
3433.5	174.558
3435.51	240.834
3437.53	246.07
3439.54	217.072
3441.55	217.465
3443.57	240.061
3445.58	203.881
3447.59	234.232
3449.6	230.085
3451.61	230.872
3453.62	224.418
3455.63	200.743
3457.64	244.113
3459.64	220.616
3461.65	229.408
3463.66	198.362
3465.66	199.671
3467.67	183.474
3469.67	189.681
3471.67	213.439
3473.68	236.664
3475.68	210.138
3477.68	203.66
3479.68	179.492
3481.68	241.162
3483.68	166.285
3485.68	162.146
3487.68	178.27
3489.67	194.407
3491.67	192.77
3493.67	173.226
3495.66	176.467
3497.66	161.784
3499.65	228.829
3501.64	216.576
3503.64	165.709
3505.63	204.531
3507.62	202.143
3509.61	155.912
3511.6	189.125
3513.59	163.287
3515.58	175.953
3517.57	170.615
3519.56	165.281
3521.54	183.07
3523.53	103.154
3525.52	159.646
3527.5	149.28
3529.49	118.071
3531.47	203.15
3533.45	146.833
3535.43	139.579
3537.42	153.151
3539.4	117.731
3541.38	92.3636
3543.36	152.395
3545.34	160.564
3547.32	121.96
3549.29	109.184
3551.27	145.611
3553.25	134.716
3555.22	126.836
3557.2	113.861
3559.17	106.158
3561.15	95.9106
3563.12	117.017
3565.09	83.4471
3567.07	99.5726
3569.04	100.321
3571.01	48.454
3572.98	140.645
3574.95	86.2542
3576.92	113.239
3578.88	129.891
3580.85	141.402
3582.82	84.4419
3584.79	119.765
3586.75	126.081
3588.72	105.901
3590.68	80.3506
3592.64	86.6016
3594.61	103.512
3596.57	91.1716
3598.53	116.077
3600.49	92.8287
3602.45	80.2504
3604.41	75.6439
3606.37	103.109
3608.33	58.1025
3610.29	61.2906
3612.25	123.665
3614.2	86.649
3616.16	62.8292
3618.12	71.4202
3620.07	44.7592
3622.02	69.1602
3623.98	69.066
3625.93	77.0445
3627.88	68.8149
3629.84	57.8163
3631.79	73.7316
3633.74	65.3914
3635.69	38.2094
3637.64	38.2243
3639.58	73.6317
3641.53	36.0816
3643.48	50.1264
3645.43	26.1727
3647.37	40.4862
3649.32	75.4907
3651.26	37.4916
3653.21	34.8788
3655.15	7.60675
3657.09	43.0456
3659.03	23.9296
3660.98	42.9883
3662.92	18.3014
3664.86	34.6575
3666.8	48.3799
3668.74	-3.48083
3670.67	48.4829
3672.61	4.73456
3674.55	26.8698
3676.49	24.4529
3678.42	24.8879
3680.36	47.3826
3682.29	23.3004
3684.23	37.8085
3686.16	19.3973
3688.09	34.0519
3690.02	21.1193
3691.96	8.17712
3693.89	22.7841
3695.82	40.0974
3697.75	29.8677
3699.68	25.1103
3701.61	0.88385
3703.53	1.51202
3705.46	27.5065
3707.39	42.378
3709.31	6.83997
3711.24	32.9002
3713.16	33.7448
3715.09	17.5599
3717.01	23.7959
3718.93	32.8035
3720.86	33.3248
3722.78	33.8001
3724.7	34.2141
3726.62	48.7225
3728.54	20.8071
3730.46	41.0316
3732.38	13.1605
3734.29	30.6431
3736.21	39.6377
3738.13	-11.1461
3740.04	3.43787
3741.96	26.5363
3743.87	15.4508
3745.79	21.4244
3747.7	27.3531
3749.62	33.2248
3751.53	21.8609
3753.44	10.4227
3755.35	30.3901
3757.26	30.2609
3759.17	21.4907
3761.08	6.94202
3762.99	23.9116
3764.9	20.7878
3766.81	32.0269
3768.71	26.1686
3770.62	23.2337
3772.52	28.9471
3774.43	11.6754
3776.33	46.0954
3778.24	34.6477
3780.14	17.5178
3782.04	14.837
3783.95	0.719727
3785.85	24.0449
3787.75	-1.69092
3789.65	15.7709
3791.55	24.6165
3793.45	24.9194
3795.34	-0.709961
3797.24	51.8776
3799.14	29.1906
3801.04	12.2996
3802.93	9.9184
3804.83	10.4911
3806.72	22.7522
3808.62	32.1199
3810.51	32.6881
3812.4	21.5013
3814.29	19.0507
3816.19	28.2825
3818.08	14.0952
3819.97	2.77161
3821.86	6.06409
3823.75	35.7516
3825.64	15.3842
3827.52	21.5399
3829.41	30.7019
3831.3	-4.25623
3833.18	28.5909
3835.07	43.7272
3836.95	41.0934
3838.84	20.6517
3840.72	15.1342
3842.61	21.5352
3844.49	24.6503
3846.37	15.7025
3848.25	36.2169
3850.13	24.1746
3852.01	26.9552
3853.89	8.76294
3855.77	26.3403
3857.65	13.9655
3859.53	4.47992
3861.41	33.814
3863.28	12.6939
3865.16	-7.94501
3867.03	10.4016
3868.91	23.0804
3870.78	23.46
3872.66	14.074
3874.53	4.85315
3876.4	31.4915
3878.27	28.2402
3880.14	1.07983
3882.01	24.7752
3883.89	27.5876
3885.75	27.4553
3887.62	15.381
3889.49	6.31738
3891.36	6.29669
3893.23	-2.58063
3895.09	9.83539
3896.96	10.0008
3898.82	34.2104
3900.69	19.3525
3902.55	13.4816
3904.42	4.48438
3906.28	13.6729
3908.14	28.7661
3910	10.7734
3911.87	14.0457
3913.73	2.12561
3915.59	14.5238
3917.45	14.8929
3919.3	9.27917
3921.16	6.81982
3923.02	13.463
3924.88	26.1425
3926.73	32.6953
3928.59	-3.54547
3930.45	18.1876
3932.3	45.9465
3934.15	9.29211
3936.01	12.4307
3937.86	30.8372
3939.71	31.0429
3941.56	12.8856
3943.42	13.3049
3945.27	32.0276
3947.12	4.59729
3948.97	23.2928
3950.81	1.77423
3952.66	1.7926
3954.51	11.0184
3956.36	7.88751
3958.2	4.62616
3960.05	13.6053
3961.9	19.4951
3963.74	0.595459
3965.58	28.0606
3967.43	2.76093
3969.27	20.7316
3971.11	35.6656
3972.96	10.3266
3974.8	19.0958
3976.64	27.8323
3978.48	17.9078
3980.32	4.7688
3982.16	-8.4375
3984	-6.10608
3985.83	17.9639
3987.67	7.8584
3989.51	-5.26056
3991.34	15.8355
3993.18	18.427
3995.01	14.8757
3996.85	17.668
3998.68	1.8645
