#Acq. time (s)=	45
#Accumulations=	2
#Range (cm-¹)=	100...4000
#Windows=	1
#Auto scanning=	Off
#Autofocus=	Off
#Macrospot=	Off
#AutoExposure=	Off
#Spike filter=	Multiple accum.
#Delay time (s)=	2
#Binning=	1
#Readout mode=	Signal
#DeNoise=	Off
#ICS correction=	On
#Dark correction=	Off
#Inst. Process=	Off
#Detector Gain=	Best Dynamic
#Detector ADC=	50 kHz HS
#Detector temperature (°C)=	-60.09
#Instrument=	LabRAM HR Evol
#Detector=	SIN-EM FIVIS
#Objective=	x100_VIS_LWD
#Grating=	150 (500nm)
#ND Filter=	100%
#Laser=	633nm_Edge
#Hole=	49.98
#Temperature=	0
#Range=	Visible
#StageXY=	75x50mm Scan+
#StageZ=	Z motor
#X (µm)=	0
#Y (µm)=	0
#Z (µm)=	-18
#Full time(mm:ss)=	1:34
#Project=	21_11_22
#Sample=	BU04w
#Site=	
#Title=	BU04w-A-FF3-FI07-V_150 (500nm)_633nm_Edge_100%_x100_VIS_LWD_H50um_45sX2
#Remark=	
#Date=	22.11.2021 12:42
#Acquired=	22.11.2021 12:42:14
#Base:Fit=	16.12.2021 16:15:35
#Base:Edit=	16.12.2021 16:24:21
#Base:Edit=	16.12.2021 16:24:24
#Base:Edit=	16.12.2021 16:24:24
#Base:Edit=	16.12.2021 16:24:25
#Base:Edit=	16.12.2021 16:24:26
#Base:Sub=	16.12.2021 16:24:28
100.177	356.714
103.438	355.365
106.695	325.744
109.954	304.996
113.209	289.279
116.464	283.364
119.717	263.32
122.969	265.544
126.219	246.945
129.469	262.09
132.716	243.932
135.963	267.139
139.208	262.76
142.452	227.052
145.694	204.039
148.936	196.526
152.175	172.03
155.414	216.712
158.651	297.046
161.887	370.942
165.121	328.145
168.353	203.979
171.586	122.102
174.815	93.0795
178.045	67.0549
181.272	55.5599
184.5	37.4546
187.724	44.3925
190.947	29.4216
194.17	34.7008
197.39	18.1777
200.611	-0.0302582
203.829	24.0133
207.045	5.19823
210.262	13.2219
213.475	6.10916
216.688	22.9784
219.9	37.0839
223.11	69.3981
226.32	119.845
229.527	204.478
232.733	300.618
235.939	311.215
239.142	215.476
242.344	146.533
245.546	96.8969
248.745	72.9382
251.943	78.4928
255.141	100.248
258.336	88.9101
261.53	106.133
264.723	69.3727
267.916	52.6395
271.106	63.5111
274.294	57.3969
277.483	94.9912
280.669	97.5243
283.854	127.587
287.038	114.081
290.221	90.1832
293.402	51.1724
296.582	34.0402
299.76	34.0143
302.938	40.6507
306.114	32.1916
309.288	78.616
312.461	129.778
315.634	198.894
318.805	357.666
321.974	600.52
325.142	752.784
328.309	677.678
331.475	492.37
334.639	335.381
337.802	217.123
340.963	163.996
344.123	61.8762
347.282	70.0706
350.441	63.235
353.597	69.5662
356.752	87.2047
359.906	102.955
363.058	103.652
366.209	108.128
369.36	103.233
372.509	55.1613
375.656	21.2173
378.802	4.24252
381.947	17.3067
385.09	0.460068
388.232	-0.327286
391.373	13.0341
394.512	42.4406
397.652	44.7071
400.789	58.4132
403.925	56.9977
407.059	67.8701
410.192	78.7528
413.324	103.772
416.455	138.19
419.584	168.024
422.712	219.466
425.839	287.737
428.964	358.289
432.089	427.705
435.212	384.738
438.333	328.658
441.454	258.616
444.573	220.649
447.691	189.3
450.807	220.762
453.923	202.624
457.037	195.801
460.15	155.498
463.261	105.115
466.371	78.193
469.48	55.9366
472.588	56.1227
475.695	55.4389
478.8	65.9736
481.904	72.7424
485.007	67.3949
488.108	84.4047
491.208	78.1276
494.307	66.2713
497.405	100.982
500.502	117.08
503.597	125.76
506.691	170.793
509.784	169.217
512.874	185.403
515.964	181.994
519.053	172.118
522.141	165.096
525.227	146.847
528.312	134.23
531.396	137.578
534.479	141.912
537.559	118.015
540.639	118.446
543.718	103.74
546.796	78.5498
549.873	80.5557
552.948	90.1795
556.022	80.8575
559.093	64.781
562.165	56.1351
565.235	61.6109
568.304	41.5606
571.372	43.1331
574.437	26.7981
577.503	37.6635
580.567	44.7561
583.63	50.9516
586.691	62.7345
589.75	93.2009
592.81	155.411
595.868	203.586
598.924	241.651
601.98	226.83
605.033	180.366
608.086	164.634
611.138	140.528
614.188	165.029
617.236	147.565
620.285	133.754
623.332	135.937
626.376	124.974
629.42	120.347
632.464	129.736
635.506	137.093
638.545	102.816
641.585	105.227
644.623	116.895
647.659	121.116
650.695	133.736
653.73	140.57
656.762	170.786
659.794	143.79
662.825	134.613
665.854	105.882
668.883	68.8117
671.91	58.984
674.935	48.4152
677.96	27.5014
680.982	23.3671
684.005	24.8979
687.027	19.9103
690.045	6.56729
693.064	19.4044
696.082	12.5973
699.097	7.63179
702.113	14.8351
705.126	17.3318
708.139	8.51019
711.149	-0.37915
714.16	4.65823
717.169	18.201
720.176	17.5988
723.183	16.0965
726.187	21.0705
729.192	16.6139
732.194	1.84602
735.196	16.1176
738.196	18.1931
741.196	3.44652
744.193	4.59689
747.19	21.6283
750.185	20.9165
753.18	3.48605
756.173	20.5197
759.165	21.8209
762.155	13.8597
765.146	3.13359
768.133	24.2149
771.121	8.7997
774.107	6.48044
777.092	7.87515
780.075	10.1715
783.058	12.4288
786.039	19.3647
789.02	15.921
791.998	26.5874
794.975	2.32288
797.952	14.8028
800.927	19.6833
803.902	12.2776
806.874	7.67407
809.845	20.9593
812.817	18.1785
815.786	23.8358
818.755	20.0669
821.721	20.983
824.686	24.6896
827.652	11.5455
830.615	33.054
833.576	5.14825
836.538	36.141
839.498	24.2291
842.458	32.9713
845.415	27.6177
848.37	20.415
851.327	19.782
854.28	13.5185
857.233	32.6535
860.184	35.8303
863.135	33.3525
866.084	34.6435
869.032	35.9313
871.98	53.2694
874.925	44.9777
877.87	52.7473
880.813	70.9447
883.756	61.5958
886.697	68.3321
889.636	60.7967
892.576	60.8218
895.513	57.0323
898.45	58.8491
901.385	50.1779
904.318	42.4531
907.253	55.5143
910.184	36.4561
913.114	65.4812
916.044	66.2251
918.973	66.1415
921.9	79.2421
924.826	82.1037
927.75	97.2158
930.674	100.27
933.596	124.906
936.519	149.788
939.439	172.979
942.357	217.074
945.275	243.345
948.192	293.517
951.107	307.733
954.023	330.519
956.936	330.412
959.848	297.697
962.759	278.227
965.669	287.309
968.577	305.049
971.485	351.458
974.391	379.561
977.296	432.417
980.201	512.801
983.104	633.257
986.006	679.656
988.907	719.228
991.806	663.025
994.704	591.589
997.602	544.23
1000.5	493.212
1003.39	445.19
1006.29	445.965
1009.18	438.309
1012.07	460.557
1014.96	506.692
1017.85	549.005
1020.74	622.982
1023.63	623.745
1026.51	603.635
1029.4	480.988
1032.28	371.49
1035.16	263.694
1038.04	226.831
1040.92	189.846
1043.8	165.291
1046.68	167.764
1049.56	128.495
1052.43	147.248
1055.31	134.958
1058.18	108.026
1061.05	116.936
1063.93	110.248
1066.8	116.06
1069.67	118.997
1072.53	120.955
1075.4	153.947
1078.26	171.349
1081.13	194.538
1083.99	210.922
1086.85	213.729
1089.72	240.837
1092.58	285.326
1095.44	380.156
1098.29	389.709
1101.15	364.466
1104	269.665
1106.86	200.264
1109.71	126.779
1112.56	117.385
1115.42	102.359
1118.27	97.9931
1121.11	87.682
1123.96	84.1165
1126.81	89.3118
1129.65	106.298
1132.5	122.327
1135.34	115.895
1138.18	162.353
1141.03	201.124
1143.87	226.124
1146.7	267.745
1149.54	361.671
1152.38	445.682
1155.21	390.722
1158.05	285.393
1160.88	201.667
1163.71	125.732
1166.55	89.2626
1169.37	80.3336
1172.2	64.5537
1175.03	56.6308
1177.86	39.9095
1180.68	44.768
1183.51	28.1591
1186.33	25.3196
1189.15	29.3522
1191.98	23.6325
1194.8	27.7713
1197.61	27.0211
1200.43	6.7729
1203.25	13.0075
1206.06	13.3809
1208.88	4.93735
1211.69	1.37834
1214.51	2.78723
1217.32	3.22797
1220.13	-4.25477
1222.94	5.1514
1225.74	7.61993
1228.55	-1.90637
1231.36	11.5469
1234.16	6.95482
1236.97	6.34558
1239.77	2.67528
1242.57	2.97752
1245.37	5.26506
1248.17	7.51997
1250.97	7.71249
1253.77	4.88019
1256.56	6.02397
1259.36	15.2168
1262.15	5.18159
1264.94	15.3399
1267.74	2.31299
1270.53	4.38396
1273.32	25.5366
1276.11	75.7817
1278.89	118.874
1281.68	56.6222
1284.46	4.54356
1287.25	9.61916
1290.03	2.70583
1292.81	3.82116
1295.59	1.97435
1298.38	-2.85076
1301.15	4.32878
1303.93	-2.43195
1306.71	3.84267
1309.48	10.1729
1312.26	-0.463852
1315.03	2.93517
1317.81	2.32997
1320.58	-2.29413
1323.35	-10.9601
1326.12	2.61803
1328.88	-10.1085
1331.65	-9.6776
1334.42	-8.25745
1337.18	-9.89535
1339.95	-6.4498
1342.71	-6.1051
1345.47	5.48205
1348.23	-1.36048
1350.99	-7.19566
1353.75	9.52413
1356.51	-8.66989
1359.26	2.89339
1362.02	-5.08234
1364.77	0.274544
1367.53	-0.556221
1370.28	-2.42082
1373.03	1.87398
1375.78	21.5823
1378.53	53.6018
1381.28	192.383
1384.03	115.537
1386.77	32.571
1389.52	-2.13321
1392.26	4.2431
1395	-4.75043
1397.74	3.78902
1400.49	4.08894
1403.23	13.6511
1405.96	4.7114
1408.7	0.918106
1411.44	-9.06015
1414.17	8.82414
1416.91	-3.20915
1419.64	4.38407
1422.37	-2.49603
1425.11	0.988159
1427.84	-13.1788
1430.56	-5.53555
1433.29	8.36612
1436.02	-2.71806
1438.74	-6.52541
1441.47	2.18507
1444.19	-4.75035
1446.92	-10.6846
1449.64	-7.22236
1452.36	4.6113
1455.08	6.9953
1457.8	-7.44628
1460.52	-0.904778
1463.23	-2.77927
1465.95	3.73582
1468.66	-9.70258
1471.38	1.00813
1474.09	-2.97082
1476.8	-7.98392
1479.51	-4.58225
1482.22	-2.23129
1484.93	4.33688
1487.64	1.46569
1490.34	3.86461
1493.05	1.01969
1495.75	-2.86305
1498.46	-6.75417
1501.16	4.1384
1503.86	-5.01595
1506.56	0.62793
1509.26	1.00787
1511.96	-13.4597
1514.65	-5.64745
1517.35	-3.12531
1520.05	-0.586288
1522.74	0.890717
1525.43	2.38797
1528.13	0.658737
1530.82	3.23177
1533.51	-1.69655
1536.2	3.02198
1538.88	0.164406
1541.57	0.539696
1544.25	-3.45789
1546.94	1.14176
1549.62	1.38107
1552.31	-1.65993
1554.99	3.90498
1557.67	12.6874
1560.35	-3.34187
1563.03	2.22785
1565.71	-2.99796
1568.38	1.48116
1571.06	-1.58794
1573.73	9.34884
1576.41	0.914619
1579.08	2.21015
1581.75	3.50716
1584.42	8.0436
1587.09	3.97495
1589.76	6.37468
1592.43	6.6354
1595.09	14.4553
1597.76	-2.50854
1600.42	11.8103
1603.09	9.96891
1605.75	7.05133
1608.41	-2.34281
1611.07	4.52101
1613.73	2.74156
1616.39	-4.47318
1619.05	11.1933
1621.7	7.25132
1624.36	5.47877
1627.01	4.79206
1629.67	1.90266
1632.32	3.3947
1634.97	12.5785
1637.62	15.1387
1640.27	-1.16986
1642.92	14.5831
1645.57	14.8807
1648.22	5.20119
1650.86	11.0023
1653.51	7.93902
1656.15	4.85289
1658.79	8.4023
1661.43	8.61852
1664.07	11.0507
1666.71	0.162888
1669.35	10.3448
1671.99	4.99683
1674.63	8.52052
1677.26	2.04531
1679.9	6.67361
1682.53	9.04975
1685.16	18.0572
1687.79	6.01428
1690.43	11.7046
1693.05	15.1951
1695.68	5.42801
1698.31	4.54967
1700.94	-5.13883
1703.56	7.54295
1706.19	0.156807
1708.81	15.0692
1711.44	5.04683
1714.06	0.76989
1716.68	7.737
1719.3	13.7025
1721.92	5.028
1724.53	14.2266
1727.15	8.91512
1729.77	3.58861
1732.38	11.7302
1735	21.0072
1737.61	10.0367
1740.22	15.9433
1742.83	6.07123
1745.44	15.3686
1748.05	7.71719
1750.66	19.259
1753.27	4.79122
1755.87	8.40504
1758.48	6.33829
1761.08	12.1812
1763.69	6.70316
1766.29	11.4214
1768.89	1.41844
1771.49	-0.655487
1774.09	16.5421
1776.69	11.0843
1779.29	12.4457
1781.88	11.5486
1784.48	8.38097
1787.07	1.80248
1789.66	3.20277
1792.26	5.74221
1794.85	13.9984
1797.44	15.4205
1800.03	7.70861
1802.62	12.5776
1805.21	3.69167
1807.79	-0.636726
1810.38	8.81149
1812.96	21.7334
1815.55	15.0833
1818.13	11.8854
1820.71	9.82435
1823.29	4.29874
1825.87	14.9702
1828.45	15.2333
1831.03	18.985
1833.61	9.95705
1836.18	5.57575
1838.76	10.4709
1841.33	18.865
1843.91	8.59624
1846.48	15.8244
1849.05	11.3674
1851.62	19.7759
1854.19	5.91616
1856.76	9.64048
1859.33	13.3722
1861.89	15.9532
1864.46	15.0079
1867.02	10.5523
1869.59	15.4816
1872.15	12.1573
1874.71	4.09935
1877.27	16.0852
1879.83	6.82906
1882.39	20.0051
1884.95	11.9088
1887.51	9.71927
1890.06	7.4913
1892.62	15.8953
1895.17	18.3853
1897.73	7.88246
1900.28	8.03812
1902.83	18.8882
1905.38	13.185
1907.93	7.46929
1910.48	1.7728
1913.03	22.2488
1915.57	10.6349
1918.12	9.69714
1920.66	11.023
1923.21	11.2228
1925.75	12.6264
1928.29	6.84982
1930.83	7.05063
1933.37	4.84985
1935.91	7.43803
1938.45	-1.98943
1940.99	11.4007
1943.53	13.9748
1946.06	4.5082
1948.6	13.0888
1951.13	13.2288
1953.66	10.9509
1956.19	3.847
1958.73	6.37708
1961.26	14.9304
1963.78	4.19389
1966.31	4.30047
1968.84	11.6212
1971.36	10.4971
1973.89	5.7568
1976.41	16.6746
1978.94	8.32549
1981.46	1.18171
1983.98	4.87153
1986.5	4.95322
1989.02	7.44328
1991.54	13.5406
1994.06	7.6181
1996.58	4.1051
1999.09	4.20527
2001.61	7.91623
2004.12	8.02807
2006.63	15.3672
2009.15	9.47805
2011.66	9.61464
2014.17	4.92944
2016.68	7.47004
2019.19	14.8148
2021.69	16.1471
2024.2	6.64542
2026.71	1.96667
2029.21	12.9865
2031.72	11.9505
2034.22	2.45384
2036.72	7.46635
2039.22	13.7026
2041.72	1.75372
2044.22	3.14278
2046.72	14.2658
2049.22	7.15638
2051.71	12.2126
2054.21	18.452
2056.71	12.54
2059.2	5.39792
2061.69	5.5795
2064.18	11.8843
2066.68	12.0763
2069.17	15.9403
2071.66	9.98292
2074.14	8.9334
2076.63	11.5691
2079.12	4.34711
2081.6	13.1428
2084.09	14.5363
2086.57	14.6871
2089.06	14.8273
2091.54	5.09397
2094.02	7.73567
2096.5	4.19885
2098.98	11.8235
2101.46	13.2562
2103.93	13.4537
2106.41	18.6399
2108.89	15.1115
2111.36	7.82949
2113.84	19.3056
2116.31	13.269
2118.78	18.5114
2121.25	7.42192
2123.72	6.36841
2126.19	11.6138
2128.66	11.8174
2131.13	12.0152
2133.59	8.40807
2136.06	11.1239
2138.53	10.0338
2140.99	1.3148
2143.45	12.9245
2145.92	2.90579
2148.38	11.9722
2150.84	13.3891
2153.3	0.768669
2155.76	17.4868
2158.21	12.5033
2160.67	10.0629
2163.13	7.61207
2165.58	11.5426
2168.04	6.51752
2170.49	1.49992
2172.94	11.8436
2175.39	14.5151
2177.84	14.6212
2180.29	19.8269
2182.74	5.82687
2185.19	0.773598
2187.64	2.1347
2190.08	11.1856
2192.53	7.44473
2194.98	13.9507
2197.42	12.7897
2199.86	7.79079
2202.3	10.4935
2204.74	17.0613
2207.18	8.22208
2209.62	4.52164
2212.06	2.10717
2214.5	7.4254
2216.93	5.01915
2219.37	1.31628
2221.81	13.1379
2224.24	12.028
2226.67	3.12805
2229.11	11.0976
2231.54	9.97927
2233.97	19.2795
2236.4	2.51521
2238.83	10.5221
2241.25	6.77806
2243.68	9.57438
2246.1	7.1343
2248.53	9.93717
2250.96	11.4306
2253.38	6.34447
2255.8	9.15185
2258.22	6.6968
2260.64	5.55202
2263.06	8.36388
2265.48	11.1709
2267.9	11.3249
2270.32	4.83842
2272.73	-0.338036
2275.15	17.0484
2277.56	7.87442
2279.98	14.6355
2282.39	4.1006
2284.8	5.52211
2287.21	9.59727
2289.62	4.36578
2292.03	0.45916
2294.44	4.53595
2296.85	15.2768
2299.26	0.739838
2301.66	15.4999
2304.07	8.9631
2306.47	11.7689
2308.88	-5.4394
2311.28	13.4147
2313.68	6.88987
2316.08	9.73714
2318.48	16.6227
2320.88	2.03347
2323.28	15.6434
2325.68	3.71664
2328.07	6.58784
2330.47	8.11909
2332.86	5.6075
2335.26	-0.974457
2337.65	8.70296
2340.04	-0.609825
2342.43	11.8292
2344.82	2.50032
2347.21	10.9092
2349.6	5.64661
2351.99	3.10974
2354.38	15.6536
2356.76	7.5965
2359.15	3.64365
2361.53	5.15614
2363.92	12.208
2366.3	-0.0548935
2368.68	7.00506
2371.06	4.39084
2373.44	5.92359
2375.82	10.2309
2378.2	3.44542
2380.58	0.794472
2382.95	9.25507
2385.33	2.41335
2387.71	2.52026
2390.08	4.00958
2392.45	11.0555
2394.83	11.1436
2397.2	14.0008
2399.57	7.11599
2401.94	3.01746
2404.31	-1.09237
2406.68	-3.8056
2409.04	4.63586
2411.41	4.76539
2413.78	-7.63169
2416.14	10.7302
2418.51	5.42992
2420.87	8.44676
2423.23	2.96899
2425.59	4.48195
2427.95	8.86579
2430.31	4.80376
2432.67	0.737053
2435.03	5.14883
2437.39	3.91549
2439.75	-2.99814
2442.1	2.84806
2444.46	8.71128
2446.81	6.04556
2449.16	6.22561
2451.52	4.97694
2453.87	5.14969
2456.22	8.18877
2458.57	8.36839
2460.92	9.98243
2463.27	-2.78943
2465.61	7.45716
2467.96	9.06937
2470.3	16.4618
2472.65	12.2931
2474.99	0.872494
2477.34	9.73486
2479.68	4.09195
2482.02	12.9726
2484.36	2.94097
2486.7	5.99487
2489.04	0.30183
2491.38	9.19935
2493.72	10.8046
2496.05	16.8106
2498.39	9.63399
2500.72	5.37392
2503.06	11.3773
2505.39	5.63469
2507.72	4.28893
2510.06	5.87916
2512.39	7.46657
2514.72	10.5254
2517.04	9.1643
2519.37	1.90996
2521.7	6.46091
2524.03	12.4942
2526.35	11.1371
2528.68	-0.578571
2531	5.45894
2533.33	8.55064
2535.65	4.2319
2537.97	4.36307
2540.29	7.46962
2542.61	3.14153
2544.93	-1.19501
2547.25	1.92307
2549.57	8.02916
2551.88	12.6555
2554.2	5.31759
2556.51	2.44728
2558.83	4.0659
2561.14	5.7018
2563.46	5.83784
2565.77	2.97663
2568.08	9.14313
2570.39	7.79084
2572.7	0.392406
2575.01	6.5798
2577.31	0.665348
2579.62	5.33823
2581.93	10.0124
2584.23	5.56726
2586.54	8.70846
2588.84	14.8839
2591.15	-1.76202
2593.45	5.93563
2595.75	10.6051
2598.05	6.15638
2600.35	4.73716
2602.65	9.41349
2604.95	15.6183
2607.24	6.55511
2609.54	11.2337
2611.84	6.72754
2614.13	5.28126
2616.42	3.83214
2618.72	-3.73365
2621.01	2.46825
2623.3	8.68012
2625.59	1.10828
2627.88	8.86575
2630.17	7.44258
2632.46	7.56683
2634.75	6.15995
2637.04	4.76489
2639.32	-1.25082
2641.61	14.343
2643.89	12.9649
2646.18	11.5869
2648.46	10.1918
2650.74	11.9032
2653.02	2.71827
2655.3	7.50845
2657.58	10.7383
2659.86	1.47247
2662.14	15.6357
2664.42	17.2956
2666.69	-2.96227
2668.97	4.9664
2671.24	9.77291
2673.52	9.90471
2675.79	8.48603
2678.06	7.10428
2680.33	4.16444
2682.61	4.34967
2684.88	6.12276
2687.15	6.31266
2689.41	3.30873
2691.68	1.86934
2693.95	10.0262
2696.22	8.49802
2698.48	10.2157
2700.74	13.5423
2703.01	12.0495
2705.27	7.33117
2707.53	7.43206
2709.8	13.9711
2712.06	4.396
2714.32	10.9474
2716.57	7.84068
2718.83	11.1708
2721.09	8.03776
2723.35	4.8899
2725.6	9.83179
2727.86	6.66574
2730.11	11.6049
2732.37	14.9093
2734.62	10.104
2736.87	10.1592
2739.12	5.3344
2741.37	2.15019
2743.62	2.21732
2745.87	15.3216
2748.12	12.1508
2750.37	12.2509
2752.61	14.0378
2754.86	10.8823
2757.1	1.14915
2759.35	12.7039
2761.59	11.1353
2763.83	9.58128
2766.08	9.67451
2768.32	13.062
2770.56	11.4982
2772.8	6.64954
2775.04	6.7494
2777.27	15.1243
2779.51	10.2821
2781.75	10.4236
2783.98	0.592564
2786.22	9.03197
2788.45	9.16315
2790.68	9.29113
2792.92	9.41555
2795.15	14.5589
2797.38	4.61386
2799.61	6.39341
2801.84	8.16825
2804.07	3.21128
2806.3	4.97502
2808.52	5.05296
2810.75	3.44029
2812.98	8.57732
2815.2	5.26003
2817.42	0.24765
2819.65	13.8485
2821.87	5.44974
2824.09	5.51731
2826.31	5.58459
2828.53	3.94976
2830.75	10.8078
2832.97	12.5706
2835.19	9.2259
2837.41	7.58157
2839.62	9.34349
2841.84	7.69699
2844.05	4.34297
2846.27	4.40874
2848.48	2.76315
2850.69	13.102
2852.9	9.76329
2855.12	11.5707
2857.33	9.94677
2859.54	1.43463
2861.74	8.411
2863.95	6.78825
2866.16	8.6227
2868.37	7.00037
2870.57	14.0367
2872.78	1.99825
2874.98	14.2635
2877.18	5.67356
2879.39	11.0127
2881.59	7.63773
2883.79	6.00463
2885.99	9.6287
2888.19	13.2588
2890.39	6.34068
2892.59	13.496
2894.78	6.55101
2896.98	1.36447
2899.18	-2.07006
2901.37	6.90384
2903.57	26.5608
2905.76	8.87937
2907.95	7.19261
2910.15	9.0687
2912.34	12.7171
2914.53	12.7925
2916.72	0.321213
2918.91	7.56443
2921.09	4.04832
2923.28	-4.87206
2925.47	9.60434
2927.65	13.3038
2929.84	6.1764
2932.02	2.64828
2934.21	9.96404
2936.39	4.59546
2938.57	10.0965
2940.75	6.51718
2942.94	-0.702778
2945.12	12.0799
2947.29	4.83215
2949.47	3.04633
2951.65	14.0281
2953.83	10.4209
2956	1.32756
2958.18	10.4987
2960.36	3.2224
2962.53	6.92117
2964.7	12.4586
2966.88	10.6767
2969.05	7.05775
2971.22	8.94424
2973.39	10.8353
2975.56	16.4107
2977.73	12.7849
2979.9	9.15202
2982.06	1.82774
2984.23	12.9751
2986.4	3.79934
2988.56	2.01552
2990.73	9.50579
2992.89	15.1642
2995.05	7.80929
2997.21	9.7585
2999.38	6.11796
3001.54	9.94602
3003.7	-3.06082
3005.86	15.7757
3008.01	10.2485
3010.17	17.8735
3012.33	14.1991
3014.49	16.195
3016.64	10.6375
3018.8	5.06479
3020.95	14.6544
3023.1	10.9594
3025.26	16.7623
3027.41	13.0354
3029.56	9.2939
3031.71	13.1843
3033.86	3.67843
3036.01	9.46889
3038.16	13.3418
3040.31	9.57561
3042.45	17.3129
3044.6	17.367
3046.74	7.79588
3048.89	13.6167
3051.03	11.7351
3053.18	23.3562
3055.32	17.6236
3057.46	19.6126
3059.6	25.4708
3061.74	13.9111
3063.88	13.9599
3066.02	21.7691
3068.16	23.7661
3070.3	17.9939
3072.43	21.9363
3074.57	18.1024
3076.7	25.9535
3078.84	26.0188
3080.97	24.1305
3083.1	30.0548
3085.24	22.3165
3087.37	22.3961
3089.5	20.5294
3091.63	28.4843
3093.76	32.5372
3095.89	20.8525
3098.02	42.6753
3100.14	32.9417
3102.27	41.0032
3104.4	41.1684
3106.52	31.4046
3108.65	35.5429
3110.77	35.7149
3112.89	35.8905
3115.01	46.0715
3117.14	46.2657
3119.26	40.4266
3121.38	38.608
3123.5	44.8607
3125.62	49.1238
3127.73	39.2151
3129.85	43.5007
3131.97	49.8571
3134.08	56.2384
3136.2	44.2158
3138.31	58.8163
3140.43	40.5507
3142.54	42.8159
3144.65	71.9408
3146.76	57.6972
3148.87	62.0644
3150.98	49.799
3153.09	58.2802
3155.2	50.1128
3157.31	77.3992
3159.42	83.8628
3161.52	71.5071
3163.63	61.2122
3165.73	69.7674
3167.84	90.9518
3169.94	74.291
3172.05	78.7089
3174.15	76.7644
3176.25	87.4592
3178.35	81.2405
3180.45	94.0452
3182.55	83.5605
3184.65	87.8898
3186.75	87.9781
3188.84	85.9071
3190.94	77.5229
3193.04	92.5085
3195.13	88.3879
3197.23	82.1688
3199.32	88.7697
3201.41	86.9127
3203.51	91.4424
3205.6	85.2872
3207.69	85.5813
3209.78	96.6305
3211.87	77.5375
3213.96	82.1488
3216.05	67.3007
3218.13	95.7871
3220.22	87.3942
3222.31	70.2562
3224.39	70.5159
3226.48	64.2201
3228.56	68.8527
3230.64	64.707
3232.73	71.5616
3234.81	73.9962
3236.89	63.1916
3238.97	76.7063
3241.05	50.3817
3243.13	57.2775
3245.21	57.557
3247.29	60.01
3249.36	46.8346
3251.44	49.2312
3253.52	38.1877
3255.59	60.7506
3257.66	42.9246
3259.74	43.1078
3261.81	43.2874
3263.88	34.4512
3265.95	23.3431
3268.03	21.3529
3270.1	32.8346
3272.17	30.8192
3274.23	35.5263
3276.3	24.2016
3278.37	26.5971
3280.44	31.2798
3282.5	26.807
3284.57	29.2077
3286.63	27.0194
3288.7	22.5262
3290.76	20.3235
3292.82	29.6281
3294.88	20.5074
3296.94	27.5191
3299	29.9311
3301.06	20.811
3303.12	23.2219
3305.18	34.9101
3307.24	23.4349
3309.3	9.6138
3311.35	18.9917
3313.41	21.4067
3315.46	28.4942
3317.52	21.6111
3319.57	19.3928
3321.63	21.839
3323.68	33.6547
3325.73	19.7579
3327.78	22.2384
3329.83	24.7211
3331.88	22.5488
3333.93	15.6658
3335.98	32.3363
3338.02	15.9901
3340.07	23.2173
3342.12	6.76715
3344.16	16.3521
3346.21	28.3316
3348.25	14.1786
3350.3	14.2873
3352.34	31.0443
3354.38	24.0133
3356.42	19.3783
3358.46	7.56969
3360.5	14.8505
3362.54	14.9766
3364.58	27.0691
3366.62	15.2114
3368.66	24.931
3370.69	20.2585
3372.73	8.3509
3374.76	25.3
3376.8	13.3635
3378.83	11.049
3380.87	11.1429
3382.9	3.9938
3384.93	13.7413
3386.96	16.2493
3388.99	26.0128
3391.02	4.33067
3393.05	6.8336
3395.08	26.3032
3397.11	9.44772
3399.14	4.69712
3401.16	14.4982
3403.19	21.8699
3405.21	17.0993
3407.24	9.89725
3409.26	7.55075
3411.29	0.328453
3413.31	7.70792
3415.33	5.35355
3417.35	15.1788
3419.37	10.3893
3421.39	5.59462
3423.41	17.8642
3425.43	13.0711
3427.45	13.1637
3429.46	20.5864
3431.48	13.3629
3433.5	8.57902
3435.51	8.68761
3437.53	6.35211
3439.54	11.3702
3441.55	6.5843
3443.57	11.6184
3445.58	11.7571
3447.59	2.05815
3449.6	14.5153
3451.61	14.6642
3453.62	14.8244
3455.63	10.0424
3457.64	10.2147
3459.64	7.90631
3461.65	0.615189
3463.66	10.746
3465.66	0.937973
3467.67	1.10016
3469.67	8.77456
3471.67	1.41465
3473.68	4.05342
3475.68	1.69344
3477.68	-0.675491
3479.68	4.51981
3481.68	7.20142
3483.68	9.88873
3485.68	7.51241
3487.68	10.2042
3489.67	10.3595
3491.67	5.42443
3493.67	5.56995
3495.66	13.3634
3497.66	8.3989
3499.65	16.2053
3501.64	6.10432
3503.64	8.7853
3505.63	1.21691
3507.62	14.1512
3509.61	9.11953
3511.6	14.3474
3513.59	14.442
3515.58	6.82791
3517.57	1.77793
3519.56	9.57895
3521.54	9.66912
3523.53	7.18878
3525.52	7.28493
3527.5	9.95687
3529.49	7.46662
3531.47	7.57341
3533.45	12.8526
3535.43	12.9875
3537.42	5.38246
3539.4	-2.23409
3541.38	8.24773
3543.36	10.9685
3545.34	11.0946
3547.32	11.2175
3549.29	8.73638
3551.27	6.24188
3553.25	3.71543
3555.22	9.01124
3557.2	6.51352
3559.17	11.8268
3561.15	6.73136
3563.12	6.84717
3565.09	6.96731
3567.07	12.3183
3569.04	20.313
3571.01	9.9848
3572.98	4.87953
3574.95	15.5058
3576.92	7.77996
3578.88	13.1888
3580.85	15.9837
3582.82	26.7025
3584.79	18.9642
3586.75	19.1369
3588.72	21.9571
3590.68	11.5197
3592.64	9.02143
3594.61	11.8366
3596.57	9.33095
3598.53	4.14494
3600.49	12.2957
3602.45	9.76833
3604.41	9.91048
3606.37	7.3653
3608.33	2.12645
3610.29	10.3069
3612.25	2.36552
3614.2	-0.202667
3616.16	2.60376
3618.12	0.0236549
3620.07	5.53006
3622.02	2.92585
3623.98	0.308487
3625.93	5.79709
3627.88	5.88092
3629.84	3.25615
3631.79	6.03324
3633.74	6.10998
3635.69	3.48565
3637.64	3.57419
3639.58	6.38108
3641.53	6.49144
3643.48	12.0358
3645.43	9.43897
3647.37	9.5704
3649.32	-1.24919
3651.26	7.00547
3653.21	1.64839
3655.15	1.7296
3657.09	9.99165
3659.03	-0.836746
3660.98	-3.48854
3662.92	4.77328
3664.86	10.3149
3666.8	4.93592
3668.74	7.75375
3670.67	-0.371544
3672.61	7.91589
3674.55	-0.206905
3676.49	10.8474
3678.42	-0.0205193
3680.36	2.82527
3682.29	0.183403
3684.23	3.04555
3686.16	14.1913
3688.09	6.04224
3690.02	11.6931
3691.96	9.05538
3693.89	-1.9149
3695.82	-4.59192
3697.75	9.40771
3699.68	9.52609
3701.61	9.64697
3703.53	6.96554
3705.46	4.28886
3707.39	1.60353
3709.31	10.1163
3711.24	7.42736
3713.16	10.3491
3715.09	2.0171
3717.01	4.92538
3718.93	5.017
3720.86	10.7495
3722.78	8.01626
3724.7	-0.380489
3726.62	16.6699
3728.54	11.0953
3730.46	5.51042
3732.38	8.43113
3734.29	8.51505
3736.21	2.91345
3738.13	0.143562
3740.04	14.4522
3741.96	8.83035
3743.87	6.0513
3745.79	6.11888
3747.7	3.32649
3749.62	9.10122
3751.53	9.15769
3753.44	9.20996
3755.35	9.25756
3757.26	6.43738
3759.17	9.34045
3761.08	0.782707
3762.99	6.54789
3764.9	3.71477
3766.81	9.48152
3768.71	6.65358
3770.62	3.82601
3772.52	3.86763
3774.43	6.77914
3776.33	6.81984
3778.24	9.73862
3780.14	1.16109
3782.04	21.3549
3783.95	9.90209
3785.85	4.19508
3787.75	1.36051
3789.65	-1.48167
3791.55	10.1153
3793.45	7.28163
3795.34	7.34186
3797.24	21.8872
3799.14	7.46822
3801.04	4.63059
3802.93	10.5038
3804.83	10.5748
3806.72	-1.00053
3808.62	4.88931
3810.51	2.03276
3812.4	7.93147
3814.29	5.06717
3816.19	5.12317
3818.08	2.24882
3819.97	8.16619
3821.86	5.28434
3823.75	8.27102
3825.64	8.31565
3827.52	2.47799
3829.41	5.46925
3831.3	5.52194
3833.18	8.52554
3835.07	8.57815
3836.95	11.584
3838.84	8.67448
3840.72	-0.154987
3842.61	11.7534
3844.49	-0.069912
3846.37	14.7974
3848.25	8.88011
3850.13	2.96464
3852.01	8.9282
3853.89	11.9141
3855.77	-2.92645
3857.65	8.97158
3859.53	0.0584297
3861.41	8.98987
3863.28	6.03535
3865.16	6.08005
3867.03	15.0782
3868.91	0.248936
3870.78	9.25677
3872.66	9.27203
3874.53	3.32246
3876.4	9.32324
3878.27	6.3601
3880.14	3.39656
3882.01	3.42414
3883.89	9.43953
3885.75	3.48847
3887.62	3.52495
3889.49	6.5604
3891.36	9.60318
3893.23	0.65617
3895.09	6.7264
3896.96	0.771225
3898.82	15.8662
3900.69	-2.13152
3902.55	6.96124
3904.42	7.01748
3906.28	1.04499
3908.14	7.13654
3910	10.223
3911.87	4.24973
3913.73	-1.7353
3915.59	-1.66552
3917.45	13.5731
3919.3	7.59814
3921.16	4.65736
3923.02	7.79733
3924.88	1.80136
3926.73	7.99339
3928.59	1.98311
3930.45	8.18829
3932.3	5.22198
3934.15	8.36898
3936.01	-3.79632
3937.86	11.6156
3939.71	5.58249
3941.56	14.9022
3943.42	2.72809
3945.27	-0.242188
3947.12	6.02818
3948.97	9.22557
3950.81	9.33862
3952.66	9.45231
3954.51	9.5659
3956.36	0.406178
3958.2	6.70269
3960.05	9.90659
3961.9	10.0202
3963.74	7.03924
3965.58	4.05504
3967.43	7.26692
3969.27	10.4781
3971.11	10.5973
3972.96	13.8222
3974.8	13.952
3976.64	14.0843
3978.48	1.81171
3980.32	5.04561
3982.16	11.3821
3984	8.42053
3985.83	2.36431
3987.67	11.8158
3989.51	18.1753
3991.34	5.93804
3993.18	12.3194
3995.01	6.29992
3996.85	9.60105
3998.68	9.80653
