#Acq. time (s)=	45
#Accumulations=	2
#Range (cm-¹)=	100...4000
#Windows=	1
#Auto scanning=	Off
#Autofocus=	Off
#Macrospot=	Off
#AutoExposure=	Off
#Spike filter=	Multiple accum.
#Delay time (s)=	2
#Binning=	1
#Readout mode=	Signal
#DeNoise=	Off
#ICS correction=	On
#Dark correction=	Off
#Inst. Process=	Off
#Detector Gain=	Best Dynamic
#Detector ADC=	50 kHz HS
#Detector temperature (°C)=	-60.09
#Instrument=	LabRAM HR Evol
#Detector=	SIN-EM FIVIS
#Objective=	x100_VIS_LWD
#Grating=	150 (500nm)
#ND Filter=	100%
#Laser=	633nm_Edge
#Hole=	49.98
#Temperature=	0
#Range=	Visible
#StageXY=	75x50mm Scan+
#StageZ=	Z motor
#X (µm)=	0
#Y (µm)=	0
#Z (µm)=	-8.5
#Full time(mm:ss)=	1:35
#Project=	21_11_22
#Sample=	BU04w
#Site=	
#Title=	BU04w-A-FF3-FI06-L_150 (500nm)_633nm_Edge_100%_x100_VIS_LWD_H50um_45sX2
#Remark=	
#Date=	22.11.2021 11:04
#Acquired=	22.11.2021 11:04:57
#Base:Fit=	16.12.2021 16:15:35
#Base:Edit=	16.12.2021 16:23:41
#Base:Edit=	16.12.2021 16:23:42
#Base:Edit=	16.12.2021 16:23:42
#Base:Edit=	16.12.2021 16:23:43
#Base:Edit=	16.12.2021 16:23:44
#Base:Edit=	16.12.2021 16:23:44
#Base:Edit=	16.12.2021 16:23:45
#Base:Sub=	16.12.2021 16:23:47
100.177	357.327
103.438	327.484
106.695	313.038
109.954	310.156
113.209	282.518
116.464	266.388
119.717	267.449
122.969	234.222
126.219	246.894
129.469	230.031
132.716	238.024
135.963	230.766
139.208	230.193
142.452	242.157
145.694	222.655
148.936	187.87
152.175	189.56
155.414	175.082
158.651	228.641
161.887	278.483
165.121	326.486
168.353	303.569
171.586	210.662
174.815	133.073
178.045	109.157
181.272	83.3522
184.5	67.0985
187.724	49.9286
190.947	48.0632
194.17	49.1272
197.39	33.0666
200.611	20.954
203.829	14.7348
207.045	18.0435
210.262	1.33652
213.475	12.3297
216.688	3.33481
219.9	13.4274
223.11	28.2968
226.32	45.9915
229.527	91.1958
232.733	175.445
235.939	253.953
239.142	259.243
242.344	187.604
245.546	98.1548
248.745	59.0186
251.943	37.9409
255.141	35.8642
258.336	42.3817
261.53	55.5616
264.723	20.3845
267.916	11.8049
271.106	27.9154
274.294	3.26726
277.483	11.8337
280.669	40.2974
283.854	56.4156
287.038	56.4104
290.221	28.9079
293.402	11.8274
296.582	4.24651
299.76	-4.26503
302.938	6.14726
306.114	7.09097
309.288	21.2817
312.461	50.5839
315.634	82.7068
318.805	154.452
321.974	260.216
325.142	455.595
328.309	581.096
331.475	541.589
334.639	364.339
337.802	227.675
340.963	138.197
344.123	106.248
347.282	62.0157
350.441	47.0373
353.597	34.8507
356.752	46.2037
359.906	47.1807
363.058	65.0811
366.209	73.5545
369.36	69.8076
372.509	56.6724
375.656	53.8541
378.802	39.7982
381.947	21.9964
385.09	3.33443
388.232	12.8807
391.373	19.664
394.512	16.168
397.652	35.2487
400.789	21.537
403.925	40.6841
407.059	31.599
410.192	49.8424
413.324	56.7341
416.455	69.2336
419.584	87.4789
422.712	110.341
425.839	142.525
428.964	177.205
432.089	236.323
435.212	241.538
438.333	244.829
441.454	211.427
444.573	161.161
447.691	125.993
450.807	136.791
453.923	141.981
457.037	159.337
460.15	154.327
463.261	126.098
466.371	93.3243
469.48	62.4226
472.588	54.8828
475.695	41.7994
478.8	57.6184
481.904	58.4965
485.007	58.4347
488.108	45.32
491.208	51.7728
494.307	61.9616
497.405	76.7825
500.502	96.2825
503.597	98.0969
506.691	117.611
509.784	133.411
512.874	164.176
515.964	155.747
519.053	159.516
522.141	139.028
525.227	121.325
528.312	112.054
531.396	106.549
534.479	95.4199
537.559	101.177
540.639	105.928
543.718	85.1908
546.796	74.7312
549.873	65.0873
552.948	70.5906
556.022	50.549
559.093	55.8943
562.165	57.357
565.235	41.8189
568.304	34.7218
571.372	28.5364
574.437	45.8046
577.503	34.8528
580.567	28.6237
583.63	33.6747
586.691	32.178
589.75	38.1854
592.81	35.8563
595.868	69.8697
598.924	76.0023
601.98	97.1634
605.033	92.2837
608.086	69.6582
611.138	79.7354
614.188	58.9736
617.236	71.9583
620.285	79.3208
623.332	65.134
626.376	55.6223
629.42	57.2479
632.464	56.9115
635.506	55.5355
638.545	47.4737
641.585	43.125
644.623	46.2187
647.659	41.8421
650.695	42.1398
653.73	57.3885
656.762	65.071
659.794	83.0303
662.825	76.6124
665.854	71.1705
668.883	56.4055
671.91	47.3721
674.935	24.5021
677.96	16.4887
680.982	30.8529
684.005	18.2296
687.027	14.0082
690.045	12.6324
693.064	13.1417
696.082	15.5212
699.097	7.58183
702.113	7.11951
705.126	1.94329
708.139	19.2922
711.149	14.9854
714.16	19.9295
717.169	3.30257
720.176	15.7769
723.183	6.67402
726.187	15.344
729.192	-1.35307
732.194	6.3343
735.196	2.77029
738.196	6.68867
741.196	14.3418
744.193	13.5804
747.19	0.708183
750.185	15.8285
753.18	17.0023
756.173	9.76216
759.165	14.7325
762.155	5.76464
765.146	8.96759
768.133	5.64904
771.121	4.1881
774.107	12.111
777.092	-2.52481
780.075	10.0546
783.058	2.85577
786.039	2.21641
789.02	9.10432
791.998	1.83285
794.975	-4.52589
797.952	2.29504
800.927	5.30612
803.902	7.35292
806.874	15.0277
809.845	6.68669
812.817	-0.739944
815.786	18.1438
818.755	7.86968
821.721	16.3631
824.686	16.3977
827.652	11.7517
830.615	20.2401
833.576	12.9288
836.538	9.38648
839.498	12.4372
842.458	16.4919
845.415	19.5728
848.37	21.7494
851.327	10.8042
854.28	13.9361
857.233	10.4984
860.184	28.7276
863.135	12.0969
866.084	19.038
869.032	29.7782
871.98	31.98
874.925	36.9791
877.87	34.3607
880.813	35.5246
883.756	33.8159
886.697	38.7191
889.636	34.1072
892.576	31.3731
895.513	34.3159
898.45	31.5118
901.385	30.5556
904.318	36.2057
907.253	39.0072
910.184	35.181
913.114	47.3809
916.044	36.9841
918.973	40.7833
921.9	50.238
924.826	56.0015
927.75	58.0358
930.674	68.6358
933.596	90.496
936.519	101.243
939.439	113.05
942.357	146.657
945.275	177.552
948.192	222.855
951.107	261.664
954.023	251.995
956.936	260.364
959.848	249.557
962.759	219.534
965.669	210.406
968.577	184.966
971.485	169.941
974.391	189.389
977.296	204.882
980.201	246.127
983.104	287.264
986.006	345.539
988.907	396.99
991.806	390.929
994.704	383.896
997.602	328.229
1000.5	302.28
1003.39	255.43
1006.29	262.089
1009.18	261.21
1012.07	262.455
1014.96	284.698
1017.85	308.842
1020.74	370.318
1023.63	406.251
1026.51	430.896
1029.4	395.263
1032.28	330.775
1035.16	247.92
1038.04	188.907
1040.92	160.55
1043.8	129.203
1046.68	121.953
1049.56	105.883
1052.43	91.6808
1055.31	75.4846
1058.18	87.3785
1061.05	79.8096
1063.93	69.278
1066.8	67.4014
1069.67	72.3501
1072.53	67.5813
1075.4	85.1218
1078.26	83.2168
1081.13	101.67
1083.99	122.046
1086.85	121.086
1089.72	154.085
1092.58	190.915
1095.44	220.961
1098.29	318.701
1101.15	331.265
1104	304.23
1106.86	232.929
1109.71	171.096
1112.56	129.777
1115.42	97.2752
1118.27	87.0322
1121.11	88.3632
1123.96	69.1937
1126.81	79.2352
1129.65	66.881
1132.5	73.0581
1135.34	85.1372
1138.18	93.3019
1141.03	120.167
1143.87	140.149
1146.7	176.789
1149.54	217.477
1152.38	305.353
1155.21	395.122
1158.05	384.316
1160.88	292.698
1163.71	169.53
1166.55	100.649
1169.37	78.9913
1172.2	65.2103
1175.03	49.4898
1177.86	55.3134
1180.68	29.8857
1183.51	28.9334
1186.33	32.9263
1189.15	22.2963
1191.98	17.5338
1194.8	21.6256
1197.61	28.652
1200.43	22.0473
1203.25	17.4337
1206.06	14.7777
1208.88	20.0133
1211.69	16.3818
1214.51	4.86339
1217.32	17.0722
1220.13	12.4734
1222.94	6.86301
1225.74	16.1853
1228.55	11.5464
1231.36	4.86246
1234.16	8.16893
1236.97	19.5158
1239.77	4.67933
1242.57	13.967
1245.37	8.10584
1248.17	14.3268
1250.97	16.4773
1253.77	-2.58637
1256.56	11.6418
1259.36	11.7009
1262.15	16.7716
1264.94	16.8013
1267.74	20.8645
1270.53	15.8374
1273.32	20.8566
1276.11	9.78702
1278.89	12.7828
1281.68	10.7652
1284.46	6.76441
1287.25	12.7916
1290.03	-1.179
1292.81	15.8698
1295.59	9.94802
1298.38	8.03864
1301.15	10.1349
1303.93	9.27168
1306.71	2.43275
1309.48	11.6357
1312.26	7.87193
1315.03	11.1309
1317.81	4.34454
1320.58	10.6482
1323.35	11.9357
1326.12	7.17091
1328.88	14.5536
1331.65	6.72746
1334.42	4.95205
1337.18	3.16568
1339.95	9.52796
1342.71	12.804
1345.47	7.88421
1348.23	10.1151
1350.99	9.26881
1353.75	1.2254
1356.51	12.6653
1359.26	11.7729
1362.02	13.9447
1364.77	5.81602
1367.53	21.3072
1370.28	-0.204071
1373.03	32.7354
1375.78	56.4246
1378.53	53.398
1381.28	50.369
1384.03	33.9942
1386.77	20.7056
1389.52	20.7605
1392.26	12.6358
1395	2.47312
1397.74	8.79512
1400.49	10.9915
1403.23	0.851173
1405.96	-2.0915
1408.7	-2.97272
1411.44	2.33722
1414.17	10.7622
1416.91	11.9811
1419.64	9.05994
1422.37	4.06818
1425.11	0.107574
1427.84	4.44068
1430.56	3.59225
1433.29	6.89883
1436.02	0.830215
1438.74	6.22636
1441.47	2.21814
1444.19	3.45324
1446.92	4.66774
1449.64	4.81101
1452.36	3.8821
1455.08	-2.3083
1457.8	7.22659
1460.52	5.20182
1463.23	9.46383
1465.95	6.36605
1468.66	7.46307
1471.38	6.4624
1474.09	8.61509
1476.8	5.53172
1479.51	4.56113
1482.22	-6.91318
1484.93	-1.57739
1487.64	10.0772
1490.34	1.7767
1493.05	11.3647
1495.75	7.29236
1498.46	7.42791
1501.16	11.7994
1503.86	11.956
1506.56	5.77638
1509.26	3.83124
1511.96	8.24415
1514.65	6.31049
1517.35	2.2472
1520.05	4.57166
1522.74	3.69889
1525.43	2.83489
1528.13	7.31004
1530.82	-4.28402
1533.51	12.0469
1536.2	5.79208
1538.88	3.80029
1541.57	8.28403
1544.25	9.49327
1546.94	16.0677
1549.62	12.877
1552.31	7.49159
1554.99	8.55792
1557.67	9.60959
1560.35	6.36415
1563.03	13.9138
1565.71	2.03767
1568.38	13.8871
1571.06	3.09656
1573.73	8.47259
1576.41	12.7787
1579.08	11.7353
1581.75	-3.30093
1584.42	8.58203
1587.09	15.0906
1589.76	9.76168
1592.43	11.9833
1595.09	19.608
1597.76	17.5488
1600.42	12.2489
1603.09	21.0067
1605.75	7.07664
1608.41	9.38168
1611.07	26.8908
1613.73	16.2373
1616.39	14.2652
1619.05	11.2053
1621.7	13.5936
1624.36	24.7443
1627.01	27.1608
1629.67	15.301
1632.32	20.9992
1634.97	12.357
1637.62	26.8481
1640.27	20.2886
1642.92	14.8608
1645.57	19.382
1648.22	18.3617
1650.86	17.3299
1653.51	26.2633
1656.15	21.8838
1658.79	23.0308
1661.43	19.7353
1664.07	13.1103
1666.71	13.1276
1669.35	9.8167
1671.99	23.1387
1674.63	8.73371
1677.26	16.4931
1679.9	22.0473
1682.53	6.50459
1685.16	19.7698
1687.79	16.4107
1690.43	14.1711
1693.05	14.1618
1695.68	10.8545
1698.31	13.1141
1700.94	4.3482
1703.56	6.83103
1706.19	11.4899
1708.81	3.88433
1711.44	4.87111
1714.06	13.7951
1716.68	2.72868
1719.3	7.36469
1721.92	6.32976
1724.53	5.26677
1727.15	6.48248
1729.77	-0.156967
1732.38	3.2998
1735	10.1329
1737.61	4.59423
1740.22	9.18415
1742.83	11.5261
1745.44	15.0015
1748.05	3.7802
1750.66	4.96697
1753.27	14.0654
1755.87	8.45489
1758.48	8.47903
1761.08	6.2262
1763.69	3.97349
1766.29	5.12269
1768.89	4.01054
1771.49	4.03365
1774.09	2.92493
1776.69	5.22934
1779.29	0.741112
1781.88	4.20647
1784.48	0.86145
1787.07	4.34404
1789.66	11.2697
1792.26	10.2257
1794.85	8.04189
1797.44	15.0008
1800.03	7.11697
1802.62	6.08447
1805.21	7.34883
1807.79	9.75203
1810.38	5.24111
1812.96	11.0846
1815.55	6.56469
1818.13	10.1183
1820.71	5.5826
1823.29	13.7698
1825.87	5.76349
1828.45	10.4925
1831.03	3.63197
1833.61	2.56144
1836.18	2.6656
1838.76	6.23645
1841.33	8.64163
1843.91	9.87927
1846.48	5.27549
1849.05	-1.67969
1851.62	8.90601
1854.19	1.91462
1856.76	10.1713
1859.33	10.2372
1861.89	5.62491
1864.46	5.69645
1867.02	10.4901
1869.59	8.21052
1872.15	7.09149
1874.71	16.5678
1877.27	7.187
1879.83	4.86515
1882.39	8.45084
1884.95	0.209129
1887.51	8.51298
1890.06	8.51133
1892.62	13.2316
1895.17	3.76245
1897.73	3.76358
1900.28	2.59932
1902.83	6.20654
1905.38	3.91079
1907.93	6.35472
1910.48	1.71055
1913.03	7.77795
1915.57	1.96447
1918.12	5.65618
1920.66	5.65807
1923.21	-2.63906
1925.75	1.01404
1928.29	13.0536
1930.83	8.34059
1933.37	4.81541
1935.91	-4.72525
1938.45	6.1346
1940.99	9.78951
1943.53	5.02232
1946.06	9.86992
1948.6	0.270523
1951.13	6.30714
1953.66	5.11154
1956.19	7.526
1958.73	2.70639
1961.26	8.7299
1963.78	9.9278
1966.31	3.89012
1968.84	13.5036
1971.36	11.0573
1973.89	7.40479
1976.41	9.77776
1978.94	12.1491
1981.46	8.49966
1983.98	8.46425
1986.5	6.02614
1989.02	2.39053
1991.54	10.7814
1994.06	2.34351
1996.58	5.93282
1999.09	9.52951
2001.61	1.10998
2004.12	-3.69685
2006.63	5.93727
2009.15	-2.46735
2011.66	1.16938
2014.17	18.0493
2016.68	10.8546
2019.19	6.04718
2021.69	7.27316
2024.2	6.1062
2026.71	9.77283
2029.21	12.2456
2031.72	-3.39278
2034.22	14.8226
2036.72	8.85149
2039.22	16.2049
2041.72	6.58955
2044.22	10.318
2046.72	3.11649
2049.22	10.5086
2051.71	11.8199
2054.21	8.20996
2056.71	9.51898
2059.2	7.17058
2061.69	7.26399
2064.18	4.90846
2066.68	13.5862
2069.17	11.2262
2071.66	10.0903
2074.14	1.57346
2076.63	9.03929
2079.12	17.7492
2081.6	14.1349
2084.09	3.09665
2086.57	-1.78954
2089.06	10.6151
2091.54	13.1653
2094.02	8.30035
2096.5	10.8816
2098.98	18.4322
2101.46	2.39295
2103.93	6.22995
2106.41	16.3118
2108.89	13.95
2111.36	4.09021
2113.84	7.97584
2116.31	13.1275
2118.78	10.7627
2121.25	8.38828
2123.72	11.0397
2126.19	7.39068
2128.66	3.72608
2131.13	12.6905
2133.59	3.94576
2136.06	7.84957
2138.53	2.87437
2140.99	15.6703
2143.45	6.87305
2145.92	9.50417
2148.38	10.8565
2150.84	16.0217
2153.3	23.7405
2155.76	12.3103
2158.21	14.9106
2160.67	9.83839
2163.13	11.1436
2165.58	14.9961
2168.04	7.33512
2170.49	6.07601
2172.94	11.2286
2175.39	9.98477
2177.84	3.61253
2180.29	6.17871
2182.74	6.18254
2185.19	7.44936
2187.64	8.73254
2190.08	8.74587
2192.53	12.6126
2194.98	13.9215
2197.42	2.43554
2199.86	10.1826
2202.3	5.11791
2204.74	5.19156
2207.18	7.84364
2209.62	4.07708
2212.06	4.17381
2214.5	24.905
2216.93	13.4196
2219.37	16.1294
2221.81	13.6694
2224.24	4.72214
2226.67	10.027
2229.11	3.65099
2231.54	11.5699
2233.97	11.6928
2236.4	15.7282
2238.83	6.71368
2241.25	5.51993
2243.68	6.94591
2246.1	5.7543
2248.53	11.1217
2250.96	9.9288
2253.38	15.3087
2255.8	10.1628
2258.22	16.8864
2260.64	-5.43916
2263.06	5.23569
2265.48	11.9503
2267.9	1.44201
2270.32	6.8204
2272.73	-1.07322
2275.15	16.2474
2277.56	14.98
2279.98	5.72366
2282.39	16.3949
2284.8	15.0877
2287.21	9.78008
2289.62	0.486191
2292.03	9.81377
2294.44	1.84295
2296.85	11.1819
2299.26	9.89125
2301.66	3.27384
2304.07	4.66238
2306.47	-7.27119
2308.88	3.48103
2311.28	8.92024
2313.68	7.68433
2316.08	5.11804
2318.48	5.23623
2320.88	-4.05064
2323.28	-1.26109
2325.68	4.23986
2328.07	9.75475
2330.47	0.435745
2332.86	1.91809
2335.26	8.82285
2337.65	14.3961
2340.04	6.40076
2342.43	11.999
2344.82	10.8022
2347.21	2.79198
2349.6	13.8865
2351.99	9.94624
2354.38	16.9603
2356.76	4.72833
2359.15	10.3542
2361.53	9.05594
2363.92	16.0554
2366.3	6.5014
2368.68	6.60049
2371.06	9.46278
2373.44	12.3275
2375.82	12.4236
2378.2	13.9089
2380.58	13.9805
2382.95	7.09955
2385.33	9.92254
2387.71	9.96574
2390.08	14.1711
2392.45	12.7968
2394.83	7.24554
2397.2	4.46008
2399.57	10.0272
2401.94	5.85428
2404.31	5.84172
2406.68	10.0094
2409.04	10.0315
2411.41	14.282
2413.78	3.23387
2416.14	7.60365
2418.51	-3.3365
2420.87	9.45101
2423.23	13.7547
2425.59	10.986
2427.95	15.3232
2430.31	12.6251
2432.67	5.69307
2435.03	0.164978
2437.39	-2.54097
2439.75	11.7581
2442.1	4.79392
2444.46	4.92056
2446.81	9.32183
2449.16	8.03068
2451.52	12.4505
2453.87	8.29054
2456.22	11.2834
2458.57	7.11236
2460.92	8.67376
2463.27	10.2417
2465.61	8.92525
2467.96	9.0439
2470.3	1.93236
2472.65	15.0534
2474.99	13.7236
2477.34	3.69212
2479.68	13.9662
2482.02	9.71521
2484.36	6.90411
2486.7	8.4458
2489.04	7.07417
2491.38	7.15608
2493.72	4.31411
2496.05	13.1829
2498.39	-5.77743
2500.72	14.8175
2503.06	9.02607
2505.39	4.68841
2507.72	20.922
2510.06	1.86083
2512.39	18.1032
2514.72	6.36881
2517.04	9.36038
2519.37	9.41828
2521.7	13.9125
2524.03	6.58868
2526.35	6.64095
2528.68	18.5365
2531	6.7513
2533.33	17.1943
2535.65	9.85537
2537.97	3.99136
2540.29	-1.88206
2542.61	-1.81387
2544.93	8.68398
2547.25	11.7574
2549.57	5.87123
2551.88	13.4278
2554.2	0.0473099
2556.51	12.089
2558.83	7.65755
2561.14	15.2432
2563.46	6.31794
2565.77	6.41245
2568.08	11.0231
2570.39	12.6378
2572.7	14.2546
2575.01	11.3339
2577.31	5.37005
2579.62	6.95938
2581.93	3.9904
2584.23	14.6544
2586.54	4.06429
2588.84	14.7268
2591.15	13.2043
2593.45	-1.97191
2595.75	8.71387
2598.05	5.72552
2600.35	13.387
2602.65	2.7485
2604.95	11.9342
2607.24	11.9635
2609.54	8.93633
2611.84	10.4694
2614.13	7.42321
2616.42	7.43196
2618.72	4.38948
2621.01	7.46019
2623.3	4.41297
2625.59	9.03193
2627.88	2.92401
2630.17	7.57447
2632.46	9.17972
2634.75	10.7987
2637.04	10.9042
2639.32	12.5728
2641.61	9.59836
2643.89	9.71912
2646.18	11.3974
2648.46	2.19406
2650.74	5.40554
2653.02	17.9778
2655.3	-2.22188
2657.58	2.50158
2659.86	19.7247
2662.14	7.26421
2664.42	11.9829
2666.69	18.2635
2668.97	7.35419
2671.24	8.96912
2673.52	4.3421
2675.79	10.7374
2678.06	10.9144
2680.33	20.6165
2682.61	11.3154
2684.88	5.14705
2687.15	3.7239
2689.41	11.8544
2691.68	8.80396
2693.95	4.13992
2696.22	5.74446
2698.48	10.6155
2700.74	15.4983
2703.01	12.3497
2705.27	14.0105
2707.53	14.0646
2709.8	9.2776
2712.06	1.25539
2714.32	10.979
2716.57	7.82914
2718.83	3.01913
2721.09	14.3983
2723.35	9.58203
2725.6	11.2254
2727.86	8.00116
2730.11	-4.97858
2732.37	12.8681
2734.62	12.8731
2736.87	16.1125
2739.12	9.59567
2741.37	12.8616
2743.62	11.2485
2745.87	16.1596
2748.12	11.307
2750.37	6.46444
2752.61	11.4862
2754.86	14.8355
2757.1	6.6992
2759.35	1.81094
2761.59	3.46138
2763.83	8.4217
2766.08	11.7571
2768.32	18.3954
2770.56	-6.27045
2772.8	11.902
2775.04	3.71713
2777.27	12.0557
2779.51	15.4539
2781.75	5.63673
2783.98	12.3831
2786.22	9.17756
2788.45	12.6205
2790.68	7.72476
2792.92	21.1971
2795.15	7.91748
2797.38	11.345
2799.61	9.74709
2801.84	8.13185
2804.07	16.5998
2806.3	14.9718
2808.52	15.0214
2810.75	11.6915
2812.98	11.7292
2815.2	16.8198
2817.42	11.7722
2819.65	5.02774
2821.87	11.8271
2824.09	5.07932
2826.31	20.38
2828.53	15.3208
2830.75	5.15143
2832.97	1.76672
2835.19	6.88223
2837.41	6.8987
2839.62	18.8464
2841.84	-6.71146
2844.05	13.7831
2846.27	6.99082
2848.48	8.73502
2850.69	15.6273
2852.9	10.554
2855.12	12.3426
2857.33	12.4186
2859.54	5.60957
2861.74	3.96452
2863.95	14.3996
2866.16	7.60059
2868.37	11.1615
2870.57	16.4641
2872.78	14.8371
2874.98	6.25468
2877.18	8.09567
2879.39	13.4375
2881.59	1.33234
2883.79	6.69311
2885.99	1.55722
2888.19	5.1769
2890.39	12.3241
2892.59	21.254
2894.78	3.73209
2896.98	10.9318
2899.18	5.75487
2901.37	11.2016
2903.57	13.0872
2905.76	18.5356
2907.95	16.8641
2910.15	-0.891838
2912.34	11.6749
2914.53	8.15918
2916.72	8.21513
2918.91	19.0508
2921.09	10.1558
2923.28	10.2326
2925.47	19.3286
2927.65	15.8322
2929.84	8.71397
2932.02	10.6245
2934.21	32.4416
2936.39	8.96141
2938.57	7.19781
2940.75	19.9574
2942.94	9.1052
2945.12	23.7053
2947.29	20.0903
2949.47	9.18725
2951.65	18.3368
2953.83	25.6713
2956	11.0958
2958.18	7.46516
2960.36	12.9796
2962.53	22.1683
2964.7	16.7173
2966.88	16.7684
2969.05	20.4931
2971.22	24.2273
2973.39	16.9388
2975.56	15.1583
2977.73	13.3742
2979.9	35.5577
2982.06	11.6545
2984.23	13.5844
2986.4	24.7768
2988.56	6.36248
2990.73	8.31171
2992.89	21.4228
2995.05	15.9575
2997.21	14.2182
2999.38	10.6129
3001.54	21.956
3003.7	22.1102
3005.86	20.3933
3008.01	24.3025
3010.17	28.2209
3012.33	34.0119
3014.49	22.8645
3016.64	28.7057
3018.8	17.5259
3020.95	36.6717
3023.1	19.7445
3025.26	29.4035
3027.41	31.4429
3029.56	44.935
3031.71	22.1332
3033.86	35.6205
3036.01	41.4586
3038.16	33.8676
3040.31	37.8313
3042.45	28.3271
3044.6	32.2551
3046.74	32.3375
3048.89	38.197
3051.03	44.0652
3053.18	38.3664
3055.32	36.5321
3057.46	44.3603
3059.6	50.2615
3061.74	34.8724
3063.88	56.2814
3066.02	54.4523
3068.16	44.8517
3070.3	44.9517
3072.43	48.9423
3074.57	56.8403
3076.7	55.0126
3078.84	66.8361
3080.97	47.4447
3083.1	51.4657
3085.24	49.6578
3087.37	61.5587
3089.5	61.7513
3091.63	56.0677
3093.76	62.1834
3095.89	68.338
3098.02	76.4826
3100.14	64.8852
3102.27	69.1029
3104.4	77.3184
3106.52	83.589
3108.65	73.959
3110.77	80.2652
3112.89	78.6064
3115.01	78.9276
3117.14	97.3229
3119.26	73.5633
3121.38	92.0452
3123.5	86.3791
3125.62	98.9141
3127.73	97.3205
3129.85	109.969
3131.97	86.0144
3134.08	110.967
3136.2	88.932
3138.31	105.784
3140.43	106.231
3142.54	110.788
3144.65	115.342
3146.76	130.251
3148.87	107.876
3150.98	120.701
3153.09	121.034
3155.2	125.536
3157.31	136.299
3159.42	136.645
3161.52	139.091
3163.63	143.644
3165.73	133.48
3167.84	161.118
3169.94	150.918
3172.05	168.177
3174.15	151.631
3176.25	162.455
3178.35	156.353
3180.45	167.147
3182.55	180.056
3184.65	171.776
3186.75	182.562
3188.84	176.315
3190.94	182.908
3193.04	178.911
3195.13	189.806
3197.23	196.54
3199.32	182.061
3201.41	189.016
3203.51	187.386
3205.6	205.077
3207.69	214.304
3209.78	197.722
3211.87	200.5
3213.96	201.147
3216.05	184.501
3218.13	206.822
3220.22	181.343
3222.31	201.54
3224.39	186.871
3226.48	215.922
3228.56	183.68
3230.64	188.633
3232.73	189.23
3234.81	172.111
3236.89	179.237
3238.97	190.854
3241.05	184.819
3243.13	192.09
3245.21	172.752
3247.29	188.897
3249.36	182.772
3251.44	165.291
3253.52	167.945
3255.59	166.036
3257.66	161.883
3259.74	169.108
3261.81	169.583
3263.88	154.294
3265.95	159.382
3268.03	169.335
3270.1	162.89
3272.17	143.121
3274.23	141.219
3276.3	164.32
3278.37	153.217
3280.44	142.068
3282.5	162.989
3284.57	147.244
3286.63	170.505
3288.7	170.818
3290.76	127.406
3292.82	143.782
3294.88	160.181
3296.94	162.763
3299	142.275
3301.06	133.362
3303.12	147.512
3305.18	157.078
3307.24	152.748
3309.3	155.361
3311.35	148.674
3313.41	148.933
3315.46	153.889
3317.52	172.799
3319.57	147.497
3321.63	150.152
3323.68	162.21
3325.73	164.923
3327.78	170.028
3329.83	151.671
3331.88	166.269
3333.93	152.686
3335.98	169.689
3338.02	170.221
3340.07	163.532
3342.12	149.69
3344.16	159.488
3346.21	145.577
3348.25	160.066
3350.3	172.275
3352.34	184.474
3354.38	158.583
3356.42	158.947
3358.46	156.915
3360.5	173.991
3362.54	171.987
3364.58	184.315
3366.62	182.279
3368.66	180.246
3370.69	183.021
3372.73	164.117
3374.76	162.008
3376.8	174.32
3378.83	169.767
3380.87	196.561
3382.9	150.971
3384.93	158.451
3386.96	197.352
3388.99	178.255
3391.02	176.056
3393.05	169.018
3395.08	176.537
3397.11	179.242
3399.14	162.548
3401.16	165.221
3403.19	175.139
3405.21	168.055
3407.24	173.131
3409.26	170.909
3411.29	161.35
3413.31	178.573
3415.33	176.327
3417.35	181.396
3419.37	184.022
3421.39	167.141
3423.41	181.94
3425.43	174.809
3427.45	199.431
3429.46	187.468
3431.48	185.283
3433.5	178.219
3435.51	168.72
3437.53	186.162
3439.54	179.139
3441.55	177.011
3443.57	169.992
3445.58	175.292
3447.59	180.642
3449.6	178.594
3451.61	193.817
3453.62	194.296
3455.63	177.48
3457.64	155.695
3459.64	176.066
3461.65	164.169
3463.66	177.156
3465.66	177.705
3467.67	135.732
3469.67	176.274
3471.67	169.259
3473.68	157.056
3475.68	170.096
3477.68	183.166
3479.68	158.417
3481.68	153.807
3483.68	159.298
3485.68	157.194
3487.68	160.151
3489.67	163.108
3491.67	143.163
3493.67	146.089
3495.66	159.198
3497.66	134.007
3499.65	126.645
3501.64	152.527
3503.64	124.621
3505.63	145.389
3507.62	135.353
3509.61	148.364
3511.6	140.818
3513.59	133.265
3515.58	125.704
3517.57	143.832
3519.56	138.834
3521.54	128.686
3523.53	131.399
3525.52	128.984
3527.5	118.849
3529.49	118.959
3531.47	119.147
3533.45	116.81
3535.43	117.073
3537.42	99.284
3539.4	120.278
3541.38	102.428
3543.36	100.078
3545.34	100.301
3547.32	116.091
3549.29	105.905
3551.27	106.07
3553.25	93.1354
3555.22	111.472
3557.2	88.2196
3559.17	88.3827
3561.15	96.3718
3563.12	88.7457
3565.09	91.5556
3567.07	83.9481
3569.04	84.213
3571.01	102.752
3572.98	84.66
3574.95	100.642
3576.92	85.1642
3578.88	82.8128
3580.85	64.6657
3582.82	91.3089
3584.79	86.3358
3586.75	83.989
3588.72	60.4371
3590.68	81.9148
3592.64	58.2863
3594.61	82.4799
3596.57	74.7693
3598.53	61.687
3600.49	85.9524
3602.45	96.9075
3604.41	70.3867
3606.37	54.5119
3608.33	62.7512
3610.29	62.9337
3612.25	73.875
3614.2	60.6199
3616.16	66.1733
3618.12	55.5615
3620.07	47.6058
3622.02	50.4125
3623.98	47.7892
3625.93	61.378
3627.88	34.4126
3629.84	53.407
3631.79	58.8624
3633.74	58.9197
3635.69	34.6306
3637.64	34.71
3639.58	34.8081
3641.53	48.492
3643.48	35.062
3645.43	46.0651
3647.37	48.9591
3649.32	40.8214
3651.26	49.0733
3653.21	30.0925
3655.15	38.331
3657.09	35.6712
3659.03	38.4601
3660.98	38.5191
3662.92	46.7566
3664.86	33.1628
3666.8	30.495
3668.74	8.68686
3670.67	22.4083
3672.61	30.6707
3674.55	33.4895
3676.49	17.135
3678.42	25.4532
3680.36	22.8113
3682.29	14.6755
3684.23	20.2941
3686.16	12.1553
3688.09	20.5552
3690.02	20.6856
3691.96	23.5865
3693.89	9.84603
3695.82	21.0387
3697.75	1.7087
3699.68	15.7144
3701.61	4.68091
3703.53	15.9207
3705.46	7.65292
3707.39	13.3498
3709.31	13.4561
3711.24	13.5586
3713.16	5.2316
3715.09	22.1839
3717.01	19.4549
3718.93	25.1692
3720.86	16.7809
3722.78	22.4928
3724.7	14.0722
3726.62	19.7778
3728.54	5.67184
3730.46	14.2157
3732.38	-14.0996
3734.29	8.64547
3736.21	-5.52062
3738.13	14.425
3740.04	0.228821
3741.96	5.95271
3743.87	11.6855
3745.79	6.00359
3747.7	3.16417
3749.62	14.6058
3751.53	17.4724
3753.44	6.02862
3755.35	3.15457
3757.26	8.86169
3759.17	3.11058
3761.08	0.216675
3762.99	0.186592
3764.9	-2.71348
3766.81	5.85393
3768.71	14.4348
3770.62	5.81409
3772.52	11.5399
3774.43	8.65424
3776.33	2.89279
3778.24	2.881
3780.14	8.62766
3782.04	25.9009
3783.95	8.64692
3785.85	8.65949
3787.75	-5.75659
3789.65	5.78029
3791.55	0.0039978
3793.45	2.90108
3795.34	8.70607
3797.24	14.5282
3799.14	-2.83228
3801.04	11.7004
3802.93	8.83294
3804.83	5.96405
3806.72	0.180153
3808.62	0.213326
3810.51	8.99735
3812.4	-2.65788
3814.29	-2.63933
3816.19	6.16022
3818.08	0.325989
3819.97	0.343666
3821.86	3.29404
3823.75	3.30668
3825.64	9.1912
3827.52	3.32016
3829.41	-2.55566
3831.3	0.410614
3833.18	-11.3727
3835.07	-2.50408
3836.95	-2.49271
3838.84	6.39158
3840.72	-11.3474
3842.61	6.45975
3844.49	0.535202
3846.37	3.49266
3848.25	6.43396
3850.13	-11.4027
3852.01	-8.45518
3853.89	-5.51787
3855.77	0.403389
3857.65	-5.5818
3859.53	0.317696
3861.41	3.26166
3863.28	0.268753
3865.16	0.293724
3867.03	-2.63258
3868.91	-2.55986
3870.78	-2.51652
3872.66	9.40848
3874.53	-14.4911
3876.4	-2.54353
3878.27	3.43423
3880.14	0.448936
3882.01	-5.52497
3883.89	0.472382
3885.75	0.493958
3887.62	0.521591
3889.49	0.554329
3891.36	-11.399
3893.23	9.65341
3895.09	-5.27228
3896.96	-11.2234
3898.82	-8.15675
3900.69	-2.06849
3902.55	1.01716
3904.42	-7.95887
3906.28	-1.84932
3908.14	4.26027
3910	-1.69302
3911.87	7.47987
3913.73	-10.5751
3915.59	7.706
3917.45	1.77203
3919.3	1.9096
3921.16	-0.977058
3923.02	-3.86824
3924.88	-6.76771
3926.73	-3.57218
3928.59	2.68433
3930.45	2.84234
3932.3	9.11316
3934.15	12.323
3936.01	-5.90366
3937.86	-2.69341
3939.71	-2.52701
3941.56	-8.49268
3943.42	-2.15274
3945.27	-1.96303
3947.12	4.39664
3948.97	-7.73413
3950.81	4.79957
3952.66	1.91321
3954.51	-7.15627
3956.36	-6.95427
3958.2	-9.84845
3960.05	2.72732
3961.9	2.93505
3963.74	3.14918
3965.58	0.264221
3967.43	0.47718
3969.27	0.689072
3971.11	-2.18587
3972.96	-8.15184
3974.8	-1.70778
3976.64	4.74426
3978.48	-4.30579
3980.32	2.15202
3982.16	-0.691048
3984	8.88272
3985.83	-0.138855
3987.67	0.148033
3989.51	0.451279
3991.34	10.077
3993.18	4.21386
3995.01	10.7752
3996.85	-1.26395
3998.68	5.33532
