#Acq. time (s)=	45
#Accumulations=	2
#Range (cm-¹)=	100...4000
#Windows=	1
#Auto scanning=	Off
#Autofocus=	Off
#Macrospot=	Off
#AutoExposure=	Off
#Spike filter=	Multiple accum.
#Delay time (s)=	2
#Binning=	1
#Readout mode=	Signal
#DeNoise=	Off
#ICS correction=	On
#Dark correction=	Off
#Inst. Process=	Off
#Detector Gain=	Best Dynamic
#Detector ADC=	50 kHz HS
#Detector temperature (°C)=	-60.28
#Instrument=	LabRAM HR Evol
#Detector=	SIN-EM FIVIS
#Objective=	x100_VIS_LWD
#Grating=	150 (500nm)
#ND Filter=	100%
#Laser=	633nm_Edge
#Hole=	49.98
#Temperature=	0
#Range=	Visible
#StageXY=	75x50mm Scan+
#StageZ=	Z motor
#X (µm)=	0
#Y (µm)=	0
#Z (µm)=	-19.3
#Full time(mm:ss)=	1:38
#Project=	21_11_22
#Sample=	BU04w
#Site=	
#Title=	BU04w-A-FF3-FI03-L_150 (500nm)_633nm_Edge_100%_x100_VIS_LWD_H50um_45sX2
#Remark=	
#Date=	22.11.2021 12:35
#Acquired=	22.11.2021 12:35:00
#Base:Fit=	16.12.2021 16:15:35
#Base:Edit=	16.12.2021 16:22:08
#Base:Edit=	16.12.2021 16:22:09
#Base:Edit=	16.12.2021 16:22:10
#Base:Edit=	16.12.2021 16:22:11
#Base:Edit=	16.12.2021 16:22:13
#Base:Edit=	16.12.2021 16:22:15
#Base:Sub=	16.12.2021 16:22:17
100.177	425.398
103.438	369.75
106.695	343.616
109.954	337.447
113.209	308.222
116.464	295.085
119.717	284.572
122.969	278.804
126.219	250.843
129.469	264.911
132.716	265.363
135.963	274.315
139.208	259.127
142.452	246.766
145.694	227.679
148.936	212.289
152.175	193.998
155.414	236.009
158.651	284.631
161.887	304.494
165.121	284.975
168.353	214.486
171.586	163.976
174.815	112.345
178.045	112.322
181.272	91.0994
184.5	84.062
187.724	67.3593
190.947	58.1741
194.17	55.6545
197.39	38.7816
200.611	42.0066
203.829	31.0234
207.045	27.5354
210.262	10.6082
213.475	22.2344
216.688	16.6407
219.9	22.4063
223.11	44.2914
226.32	92.7118
229.527	153.243
232.733	197.559
235.939	199.967
239.142	123.447
242.344	74.4983
245.546	33.2753
248.745	28.9792
251.943	30.302
255.141	18.2642
258.336	35.6331
261.53	14.0501
264.723	7.60806
267.916	0.18399
271.106	-3.48114
274.294	-12.8791
277.483	15.6164
280.669	12.7334
283.854	6.93468
287.038	6.76534
290.221	-7.68935
293.402	2.41986
296.582	-15.9178
299.76	-1.16194
302.938	5.96037
306.114	11.1291
309.288	35.1624
312.461	71.4173
315.634	122.716
318.805	223.013
321.974	353.512
325.142	428.276
328.309	377.501
331.475	282.432
334.639	177.878
337.802	128.003
340.963	69.6176
344.123	64.0026
347.282	47.0066
350.441	46.9636
353.597	54.3793
356.752	45.7353
359.906	69.0552
363.058	77.2597
366.209	94.8211
369.36	73.8103
372.509	50.9135
375.656	44.8881
378.802	31.353
381.947	16.8587
385.09	27.7248
388.232	21.7655
391.373	26.1431
394.512	32.4183
397.652	48.1077
400.789	42.2651
403.925	52.3214
407.059	60.5033
410.192	54.5015
413.324	61.6424
416.455	94.2206
419.584	105.126
422.712	115.888
425.839	167.175
428.964	187.83
432.089	207.449
435.212	206.245
438.333	171.099
441.454	146.369
444.573	125.412
447.691	109.148
450.807	144.404
453.923	139.36
457.037	127.813
460.15	119.139
463.261	76.0372
466.371	78.712
469.48	61.7891
472.588	60.7528
475.695	63.475
478.8	69.0087
481.904	56.7955
485.007	76.2433
488.108	74.2458
491.208	78.7643
494.307	87.9438
497.405	102.679
500.502	95.0536
503.597	134.063
506.691	132.958
509.784	142.117
512.874	149.429
515.964	149.27
519.053	112.724
522.141	118.239
525.227	102.241
528.312	111.536
531.396	109.624
534.479	84.2439
537.559	88.8786
540.639	84.0316
543.718	78.1887
546.796	58.1227
549.873	75.6751
552.948	81.0142
556.022	65.5284
559.093	68.8165
562.165	52.1797
565.235	69.4823
568.304	50.8915
571.372	54.871
574.437	43.7637
577.503	52.3457
580.567	41.2472
583.63	44.2475
586.691	51.9091
589.75	44.6707
592.81	38.4378
595.868	63.893
598.924	51.2186
601.98	61.0032
605.033	54.9831
608.086	65.7547
611.138	67.2372
614.188	64.9908
617.236	66.5599
620.285	90.6228
623.332	62.178
626.376	58.1303
629.42	52.0456
632.464	53.4227
635.506	47.1648
638.545	47.4319
641.585	43.8686
644.623	51.5167
647.659	33.8107
650.695	42.426
653.73	52.8329
656.762	58.502
659.794	48.2341
662.825	44.5294
665.854	36.1859
668.883	26.9247
671.91	32.6884
674.935	18.0687
677.96	23.909
680.982	20.4225
684.005	18.8583
687.027	21.9752
690.045	19.5444
693.064	8.71099
696.082	11.8983
699.097	15.084
702.113	20.1425
705.126	13.9248
708.139	9.54958
711.149	20.1787
714.16	22.1971
717.169	18.626
720.176	8.45048
723.183	10.5243
726.187	10.652
729.192	12.6269
732.194	8.0348
735.196	3.44971
738.196	8.22211
741.196	7.38541
744.193	14.9578
747.19	10.41
750.185	-0.65786
753.18	7.91008
756.173	8.99646
759.165	12.0383
762.155	15.139
765.146	8.01674
768.133	8.38368
771.121	13.4327
774.107	0.673065
777.092	8.52638
780.075	1.31927
783.058	2.54404
786.039	5.63345
789.02	5.88884
791.998	3.29706
794.975	6.33932
797.952	3.70009
800.927	0.0843811
803.902	4.93781
806.874	-1.5369
809.845	4.23553
812.817	-3.20458
815.786	3.45221
818.755	0.693146
821.721	-2.06387
824.686	3.6059
827.652	4.58351
830.615	9.33932
833.576	8.56987
836.538	2.2269
839.498	5.27839
842.458	-2.83407
845.415	5.86057
848.37	6.15958
851.327	7.41125
854.28	5.8559
857.233	4.30666
860.184	14.067
863.135	3.09811
866.084	28.9457
869.032	47.2931
871.98	39.1226
874.925	35.6258
877.87	28.2964
880.813	21.901
883.756	24.0192
886.697	18.5199
889.636	18.6931
892.576	23.5921
895.513	11.4076
898.45	20.0353
901.385	20.0844
904.318	22.9589
907.253	23.9375
910.184	14.5255
913.114	27.7461
916.044	38.1177
918.973	30.6933
921.9	36.4517
924.826	35.6978
927.75	46.2416
930.674	55.0105
933.596	79.7449
936.519	96.1883
939.439	107.103
942.357	133.2
945.275	156.556
948.192	177.208
951.107	203.629
954.023	181.534
956.936	163.131
959.848	163.715
962.759	130.776
965.669	124.502
968.577	128.768
971.485	129.127
974.391	143.83
977.296	156.517
980.201	166.197
983.104	199.792
986.006	233.3
988.907	234.182
991.806	228.348
994.704	204.348
997.602	176.605
1000.5	165.161
1003.39	167.111
1006.29	164.353
1009.18	163.57
1012.07	182.969
1014.96	194.759
1017.85	260.945
1020.74	271.859
1023.63	291.529
1026.51	282.621
1029.4	206.635
1032.28	164.051
1035.16	126.197
1038.04	105.571
1040.92	83.9137
1043.8	67.9766
1046.68	60.7076
1049.56	58.1979
1052.43	64.381
1055.31	51.1528
1058.18	46.6083
1061.05	47.8481
1063.93	40.311
1066.8	55.0443
1069.67	47.4585
1072.53	51.5221
1075.4	61.3911
1078.26	68.3199
1081.13	77.1727
1083.99	89.896
1086.85	125.863
1089.72	134.732
1092.58	198.774
1095.44	237.621
1098.29	250.279
1101.15	232.961
1104	161.53
1106.86	123.147
1109.71	97.212
1112.56	71.4117
1115.42	69.9375
1118.27	53.8902
1121.11	57.2003
1123.96	63.4073
1126.81	46.2101
1129.65	59.282
1132.5	65.5262
1135.34	82.5668
1138.18	109.43
1141.03	119.704
1143.87	141.726
1146.7	195.161
1149.54	271.367
1152.38	321.935
1155.21	292.645
1158.05	197.275
1160.88	110.745
1163.71	81.2407
1166.55	57.7061
1169.37	40.1003
1172.2	38.2072
1175.03	29.4562
1177.86	27.563
1180.68	23.7462
1183.51	18.9743
1186.33	25.977
1189.15	23.2355
1191.98	21.4781
1194.8	8.04923
1197.61	20.026
1200.43	9.55836
1203.25	16.7523
1206.06	4.32979
1208.88	7.63148
1211.69	4.03225
1214.51	11.3127
1217.32	4.76938
1220.13	8.13035
1222.94	9.52109
1225.74	5.92823
1228.55	2.31027
1231.36	6.67451
1234.16	10.0321
1236.97	12.3791
1239.77	12.6915
1242.57	12.9663
1245.37	14.2248
1248.17	11.4183
1250.97	20.6994
1253.77	11.8005
1256.56	26.0896
1259.36	15.1005
1262.15	30.3272
1264.94	39.4899
1267.74	27.4809
1270.53	36.6118
1273.32	22.5677
1276.11	20.6076
1278.89	20.649
1281.68	25.7079
1284.46	18.7537
1287.25	16.8283
1290.03	11.9171
1292.81	8.02561
1295.59	15.1528
1298.38	9.29823
1301.15	3.45063
1303.93	10.6285
1306.71	12.8363
1309.48	11.071
1312.26	10.3462
1315.03	10.6251
1317.81	7.89085
1320.58	13.2188
1323.35	11.5056
1326.12	4.73779
1328.88	8.08063
1331.65	7.37256
1334.42	14.78
1337.18	8.95426
1339.95	5.13705
1342.71	2.29977
1345.47	20.9362
1348.23	12.963
1350.99	13.1725
1353.75	14.3971
1356.51	14.5793
1359.26	15.7737
1362.02	30.3122
1364.77	30.442
1367.53	41.8562
1370.28	56.3417
1373.03	96.4968
1375.78	104.804
1378.53	96.6679
1381.28	81.3434
1384.03	43.4396
1386.77	36.3398
1389.52	24.1124
1392.26	17.0429
1395	14.091
1397.74	16.3317
1400.49	18.5524
1403.23	10.4927
1405.96	11.6916
1408.7	8.77667
1411.44	11.0174
1414.17	9.13992
1416.91	19.6677
1419.64	3.31421
1422.37	8.68184
1425.11	2.65861
1427.84	12.1933
1430.56	6.15977
1433.29	11.5565
1436.02	11.753
1438.74	4.64008
1441.47	-6.68064
1444.19	14.426
1446.92	14.6087
1449.64	14.767
1452.36	1.26301
1455.08	7.67812
1457.8	9.87868
1460.52	7.86828
1463.23	11.0956
1465.95	12.2136
1468.66	15.4257
1471.38	3.94292
1474.09	2.96136
1476.8	6.18748
1479.51	10.4758
1482.22	12.6631
1484.93	6.45753
1487.64	17.0698
1490.34	10.8793
1493.05	6.79448
1495.75	7.98201
1498.46	10.2239
1501.16	15.6484
1503.86	9.46444
1506.56	8.56248
1509.26	-1.86269
1511.96	8.89502
1514.65	3.76199
1517.35	13.5108
1520.05	8.37777
1522.74	10.6972
1525.43	2.34082
1528.13	12.1539
1530.82	11.2806
1533.51	0.737434
1536.2	5.21558
1538.88	22.6235
1541.57	4.43543
1544.25	9.9559
1546.94	8.95545
1549.62	14.4184
1552.31	18.7714
1554.99	7.95048
1557.67	19.8152
1560.35	10.0947
1563.03	18.7288
1565.71	14.4073
1568.38	13.3216
1571.06	20.8543
1573.73	14.3824
1576.41	17.6142
1579.08	16.57
1581.75	33.8261
1584.42	15.5661
1587.09	20.9951
1589.76	14.5852
1592.43	17.8788
1595.09	30.8872
1597.76	18.0364
1600.42	32.1557
1603.09	30.1114
1605.75	17.2553
1608.41	28.2162
1611.07	28.3776
1613.73	27.4769
1616.39	32.0265
1619.05	25.6995
1621.7	35.733
1624.36	19.5307
1627.01	35.0672
1629.67	25.3895
1632.32	35.4793
1634.97	20.2194
1637.62	35.8016
1640.27	36.9643
1642.92	38.1639
1645.57	24.991
1648.22	28.3864
1650.86	26.2391
1653.51	32.9476
1656.15	20.8006
1658.79	31.9155
1661.43	26.395
1664.07	28.6338
1666.71	29.7533
1669.35	28.6534
1671.99	25.3324
1674.63	26.447
1677.26	22.0005
1679.9	29.7651
1682.53	21.9762
1685.16	16.3968
1687.79	17.4675
1690.43	19.6528
1693.05	16.3164
1695.68	20.7491
1698.31	17.4624
1700.94	15.3306
1703.56	18.9105
1706.19	20.216
1708.81	19.2925
1711.44	19.1525
1714.06	20.2636
1716.68	1.37062
1719.3	9.325
1721.92	18.3434
1724.53	13.9119
1727.15	11.7514
1729.77	12.9502
1732.38	10.7819
1735	0.73423
1737.61	5.29499
1740.22	9.86436
1742.83	4.29221
1745.44	14.512
1748.05	12.3085
1750.66	12.3532
1753.27	4.47381
1755.87	10.1593
1758.48	15.8313
1761.08	9.04049
1763.69	14.7037
1766.29	6.78313
1768.89	6.79212
1771.49	7.93671
1774.09	10.2172
1776.69	-2.23369
1779.29	10.2798
1781.88	11.4625
1784.48	1.28427
1787.07	12.7111
1789.66	3.67715
1792.26	9.44378
1794.85	12.9437
1797.44	11.8842
1800.03	-0.608276
1802.62	1.76125
1805.21	4.14086
1807.79	6.51566
1810.38	6.58086
1812.96	7.79754
1815.55	6.71088
1818.13	6.77982
1820.71	-2.4016
1823.29	8.06734
1825.87	9.29592
1828.45	7.05083
1831.03	2.48418
1833.61	-3.25873
1836.18	11.9402
1838.76	9.67589
1841.33	-1.92635
1843.91	3.95104
1846.48	7.49986
1849.05	9.88034
1851.62	6.41947
1854.19	5.26609
1856.76	-0.548134
1859.33	11.2147
1861.89	5.41024
1864.46	10.1613
1867.02	14.9388
1869.59	2.05135
1872.15	12.691
1874.71	0.938675
1877.27	6.86648
1879.83	5.71125
1882.39	1.01656
1884.95	9.30065
1887.51	4.59375
1890.06	5.76649
1892.62	17.5739
1895.17	-0.17704
1897.73	8.093
1900.28	10.4688
1902.83	4.59607
1905.38	10.5758
1907.93	2.33335
1910.48	7.16343
1913.03	7.26643
1915.57	2.61662
1918.12	11.0595
1920.66	0.312653
1923.21	3.94164
1925.75	-1.98273
1928.29	13.628
1930.83	0.511543
1933.37	5.3579
1935.91	1.80424
1938.45	6.64872
1940.99	10.2911
1943.53	7.91808
1946.06	6.73926
1948.6	-0.463676
1951.13	-0.457352
1953.66	7.97639
1956.19	6.77049
1958.73	0.740257
1961.26	6.75867
1963.78	6.74712
1966.31	7.93779
1968.84	7.90886
1971.36	11.4879
1973.89	-0.594948
1976.41	5.39267
1978.94	17.3956
1981.46	10.1353
1983.98	10.0999
1986.5	10.0672
1989.02	12.4433
1991.54	8.80866
1994.06	5.17887
1996.58	13.5749
1999.09	9.95656
2001.61	9.94923
2004.12	8.74674
2006.63	11.1625
2009.15	12.3782
2011.66	14.8104
2014.17	3.9952
2016.68	12.4471
2019.19	11.25
2021.69	5.24023
2024.2	12.5053
2026.71	14.9599
2029.21	12.5958
2031.72	12.6572
2034.22	10.3087
2036.72	9.16399
2039.22	15.2922
2041.72	12.9422
2044.22	16.6632
2046.72	9.45404
2049.22	10.752
2051.71	5.95638
2054.21	8.43134
2056.71	14.609
2059.2	15.9175
2061.69	18.4527
2064.18	6.2978
2066.68	18.6404
2069.17	16.2721
2071.66	5.29852
2074.14	13.9827
2076.63	11.5983
2079.12	15.3687
2081.6	8.03979
2084.09	9.33179
2086.57	6.91184
2089.06	13.1332
2091.54	7.01411
2094.02	3.36936
2096.5	15.8493
2098.98	12.2196
2101.46	21.0139
2103.93	6.1932
2106.41	15.0126
2108.89	20.1183
2111.36	12.7487
2113.84	17.8801
2116.31	14.2539
2118.78	6.85004
2121.25	11.9947
2123.72	5.81882
2126.19	16.0157
2128.66	4.76922
2131.13	9.92524
2133.59	11.2903
2136.06	10.118
2138.53	15.2838
2140.99	11.5647
2143.45	7.83691
2145.92	16.8224
2148.38	-0.94117
2150.84	16.9574
2153.3	19.5656
2155.76	18.339
2158.21	9.4416
2160.67	8.19561
2163.13	8.21886
2165.58	9.512
2168.04	9.52026
2170.49	9.5379
2172.94	9.57016
2175.39	8.3212
2177.84	4.50516
2180.29	5.79062
2182.74	17.3164
2185.19	16.0234
2187.64	16.0265
2190.08	10.9183
2192.53	13.5018
2194.98	10.9647
2197.42	19.9762
2199.86	12.3384
2202.3	11.116
2204.74	12.4686
2207.18	11.2595
2209.62	10.0572
2212.06	16.5874
2214.5	7.65807
2216.93	16.7944
2219.37	11.7356
2221.81	22.1982
2224.24	10.6534
2226.67	18.545
2229.11	10.864
2231.54	16.1735
2233.97	0.65329
2236.4	2.04963
2238.83	6.06133
2241.25	11.3886
2243.68	8.87732
2246.1	12.9151
2248.53	15.6493
2250.96	9.18807
2253.38	13.2348
2255.8	12.0223
2258.22	6.85691
2260.64	12.2417
2263.06	11.0184
2265.48	11.105
2267.9	3.23281
2270.32	7.27436
2272.73	12.6422
2275.15	16.681
2277.56	3.44511
2279.98	6.14043
2282.39	11.486
2284.8	7.51289
2287.21	6.19159
2289.62	10.1972
2292.03	2.22364
2294.44	3.56327
2296.85	3.57978
2299.26	12.9307
2301.66	12.9669
2304.07	14.3505
2306.47	3.74545
2308.88	10.4875
2311.28	7.89832
2313.68	17.3481
2316.08	-1.30032
2318.48	9.52002
2320.88	10.963
2323.28	12.4069
2325.68	5.78677
2328.07	5.88921
2330.47	8.69475
2332.86	7.46158
2335.26	8.93369
2337.65	17.1955
2340.04	3.74559
2342.43	3.86943
2344.82	17.6275
2347.21	12.3328
2349.6	13.8392
2351.99	4.38886
2354.38	3.13163
2356.76	5.97893
2359.15	14.3367
2361.53	13.0249
2363.92	10.354
2366.3	14.5804
2368.68	13.2856
2371.06	20.2857
2373.44	3.75097
2375.82	7.97797
2378.2	10.8265
2380.58	3.93493
2382.95	12.3178
2385.33	4.00607
2387.71	6.81448
2390.08	11.0061
2392.45	13.7953
2394.83	13.8007
2397.2	11.006
2399.57	8.21234
2401.94	8.20499
2404.31	10.9672
2406.68	10.9505
2409.04	10.9595
2411.41	11.0118
2413.78	12.4866
2416.14	8.45486
2418.51	11.4865
2420.87	14.4374
2423.23	0.448723
2425.59	8.90697
2427.95	14.6229
2430.31	11.8965
2432.67	9.1699
2435.03	10.6857
2437.39	7.96446
2439.75	5.23041
2442.1	12.4278
2444.46	9.68964
2446.81	15.4908
2449.16	9.8968
2451.52	7.14297
2453.87	2.94368
2456.22	8.76262
2458.57	4.55519
2460.92	13.266
2463.27	10.49
2465.61	12.0239
2467.96	7.78506
2470.3	15.0906
2472.65	18.0687
2474.99	8.0185
2477.34	8.10094
2479.68	3.82238
2482.02	3.88972
2484.36	11.2324
2486.7	9.83318
2489.04	18.6457
2491.38	8.48492
2493.72	9.99947
2496.05	20.3059
2498.39	10.1119
2500.72	13.0933
2503.06	8.73723
2505.39	13.1833
2507.72	11.7502
2510.06	-4.40479
2512.39	8.85941
2514.72	5.92999
2517.04	14.789
2519.37	13.3447
2521.7	7.47428
2524.03	11.935
2526.35	11.9596
2528.68	7.54766
2531	12.0132
2533.33	3.15578
2535.65	9.12248
2537.97	9.16276
2540.29	9.20499
2542.61	10.7359
2544.93	12.2705
2547.25	3.37676
2549.57	6.40199
2551.88	9.43563
2554.2	7.98317
2556.51	15.5012
2558.83	9.53617
2561.14	12.5814
2563.46	6.61768
2565.77	6.66999
2568.08	9.73218
2570.39	3.76038
2572.7	5.32137
2575.01	6.88177
2577.31	3.89711
2579.62	2.41158
2581.93	-2.12007
2584.23	5.46495
2586.54	11.5382
2588.84	10.0087
2591.15	3.89014
2593.45	9.96243
2595.75	16.0498
2598.05	16.0715
2600.35	8.45481
2602.65	8.44944
2604.95	9.96574
2607.24	17.5886
2609.54	9.93899
2611.84	11.433
2614.13	15.9923
2616.42	9.84458
2618.72	11.3526
2621.01	5.19759
2623.3	8.23386
2625.59	-0.983398
2627.88	3.5934
2630.17	9.73167
2632.46	3.60629
2634.75	3.62871
2637.04	9.83191
2639.32	9.89889
2641.61	5.31905
2643.89	17.7592
2646.18	16.2917
2648.46	16.3563
2650.74	13.3109
2653.02	11.8174
2655.3	11.8299
2657.58	11.8312
2659.86	16.513
2662.14	2.43479
2664.42	5.5347
2666.69	13.326
2668.97	11.7573
2671.24	7.04961
2673.52	8.64145
2675.79	7.11966
2678.06	-0.659119
2680.33	10.5196
2682.61	9.04572
2684.88	9.15249
2687.15	1.30485
2689.41	18.9278
2691.68	17.4213
2693.95	4.70373
2696.22	7.85442
2698.48	11.0635
2700.74	9.46561
2703.01	1.42987
2705.27	-3.41295
2707.53	4.61097
2709.8	7.80936
2712.06	6.17377
2714.32	9.38403
2716.57	6.1664
2718.83	14.2307
2721.09	15.843
2723.35	1.24205
2725.6	9.30314
2727.86	7.6374
2730.11	7.58243
2732.37	7.5088
2734.62	4.19894
2736.87	-0.752907
2739.12	12.1721
2741.37	15.3746
2743.62	3.93163
2745.87	2.25552
2748.12	8.73509
2750.37	10.3476
2752.61	7.12737
2754.86	-1.05798
2757.1	0.54921
2759.35	8.70376
2761.59	-1.19595
2763.83	11.9002
2766.08	5.30339
2768.32	6.92503
2770.56	6.88206
2772.8	11.8049
2775.04	1.89414
2777.27	6.84779
2779.51	6.85122
2781.75	13.5194
2783.98	11.8952
2786.22	0.290146
2788.45	5.30426
2790.68	11.9997
2792.92	12.0244
2795.15	-6.37244
2797.38	13.7206
2799.61	-1.38372
2801.84	15.3947
2804.07	10.3308
2806.3	11.9849
2808.52	5.20806
2810.75	1.78885
2812.98	5.1151
2815.2	6.74087
2817.42	4.98804
2819.65	8.31322
2821.87	4.86944
2824.09	1.42424
2826.31	3.06371
2828.53	11.4938
2830.75	8.03659
2832.97	7.97209
2835.19	7.90224
2837.41	4.42881
2839.62	7.76799
2841.84	5.99584
2844.05	-6.01776
2846.27	-6.08086
2848.48	0.694565
2850.69	9.20254
2852.9	2.31924
2855.12	14.3029
2857.33	3.98299
2859.54	2.2337
2861.74	3.93772
2863.95	3.9305
2866.16	12.5721
2868.37	3.93434
2870.57	0.466568
2872.78	9.13644
2874.98	5.66666
2877.18	0.447144
2879.39	5.6813
2881.59	10.9389
2883.79	9.21968
2885.99	5.74548
2888.19	5.76281
2890.39	4.01662
2892.59	5.78603
2894.78	4.02948
2896.98	7.59428
2899.18	9.40073
2901.37	-1.22151
2903.57	18.3263
2905.76	4.09624
2907.95	9.43761
2910.15	2.2875
2912.34	7.60696
2914.53	5.7772
2916.72	0.355232
2918.91	3.90474
2921.09	0.279274
2923.28	5.63844
2925.47	12.8256
2927.65	0.199486
2929.84	7.40694
2932.02	1.97694
2934.21	14.6236
2936.39	18.2218
2938.57	5.47263
2940.75	5.40888
2942.94	7.16933
2945.12	10.7424
2947.29	10.6571
2949.47	12.4011
2951.65	3.20745
2953.83	8.60009
2956	15.826
2958.18	10.2643
2960.36	13.8448
2962.53	8.2823
2964.7	2.71309
2966.88	11.8125
2969.05	6.24837
2971.22	11.6982
2973.39	13.4831
2975.56	13.4311
2977.73	2.3253
2979.9	17.0135
2982.06	18.8231
2984.23	18.8041
2986.4	13.2404
2988.56	7.67067
2990.73	20.6438
2992.89	18.7988
2995.05	13.2198
2997.21	20.683
2999.38	16.9776
3001.54	30.0901
3003.7	15.1684
3005.86	30.2102
3008.01	18.995
3010.17	19.0301
3012.33	15.2733
3014.49	19.0853
3016.64	24.8091
3018.8	34.352
3020.95	23.0489
3023.1	24.9995
3025.26	38.3625
3027.41	30.7671
3029.56	23.1437
3031.71	28.8737
3033.86	30.7718
3036.01	28.828
3038.16	44.1128
3040.31	36.4587
3042.45	36.4426
3044.6	42.184
3046.74	30.6105
3048.89	44.0559
3051.03	40.1721
3053.18	43.9994
3055.32	40.1216
3057.46	43.9692
3059.6	30.4045
3061.74	43.9263
3063.88	41.9671
3066.02	63.2849
3068.16	43.8655
3070.3	45.7889
3072.43	49.6613
3074.57	51.6009
3076.7	45.7523
3078.84	71.1009
3080.97	51.5942
3083.1	63.3159
3085.24	61.4037
3087.37	57.533
3089.5	61.5263
3091.63	59.6549
3093.76	65.6615
3095.89	77.619
3098.02	83.6916
3100.14	85.8284
3102.27	86.0088
3104.4	92.1593
3106.52	84.4355
3108.65	80.6692
3110.77	94.8582
3112.89	81.1254
3115.01	85.3465
3117.14	103.645
3119.26	77.7774
3121.38	102.205
3123.5	108.568
3125.62	112.951
3127.73	113.312
3129.85	93.3632
3131.97	110.028
3134.08	130.85
3136.2	112.856
3138.31	111.184
3140.43	123.883
3142.54	138.682
3144.65	126.659
3146.76	122.85
3148.87	131.469
3150.98	152.539
3153.09	163.213
3155.2	140.572
3157.31	149.159
3159.42	134.779
3161.52	174.795
3163.63	156.227
3165.73	156.466
3167.84	165.101
3169.94	180.051
3172.05	184.598
3174.15	182.735
3176.25	180.796
3178.35	172.479
3180.45	189.517
3182.55	195.969
3184.65	219.369
3186.75	215.22
3188.84	194.013
3190.94	211.116
3193.04	194.279
3195.13	213.579
3197.23	203.198
3199.32	235.529
3201.41	214.716
3203.51	228.008
3205.6	213.518
3207.69	229.112
3209.78	233.987
3211.87	241.058
3213.96	226.569
3216.05	261.876
3218.13	240.854
3220.22	228.399
3222.31	239.88
3224.39	238.297
3226.48	238.918
3228.56	235.132
3230.64	229.108
3232.73	223.093
3234.81	232.396
3236.89	224.075
3238.97	213.558
3241.05	220.787
3243.13	223.602
3245.21	228.756
3247.29	211.448
3249.36	218.693
3251.44	210.122
3253.52	199.296
3255.59	213.034
3257.66	217.824
3259.74	218.305
3261.81	212.01
3263.88	208.008
3265.95	195.026
3268.03	220.934
3270.1	230.376
3272.17	213.009
3274.23	217.966
3276.3	206.766
3278.37	202.479
3280.44	195.865
3282.5	214.457
3284.57	210.145
3286.63	210.414
3288.7	208.377
3290.76	204.027
3292.82	218.077
3294.88	211.401
3296.94	193.174
3299	204.955
3301.06	221.463
3303.12	219.41
3305.18	217.384
3307.24	196.8
3309.3	183.127
3311.35	220.513
3313.41	227.72
3315.46	195.444
3317.52	209.65
3319.57	209.956
3321.63	196.266
3323.68	212.986
3325.73	206.331
3327.78	232.514
3329.83	228.248
3331.88	226.477
3333.93	224.726
3335.98	211.138
3338.02	230.595
3340.07	221.556
3342.12	229.037
3344.16	222.253
3346.21	224.955
3348.25	244.179
3350.3	235.011
3352.34	232.923
3354.38	233.205
3356.42	221.678
3358.46	238.757
3360.5	227.194
3362.54	249.124
3364.58	254.296
3366.62	240.291
3368.66	259.869
3370.69	226.643
3372.73	246.205
3374.76	236.893
3376.8	258.842
3378.83	249.474
3380.87	247.326
3382.9	240.336
3384.93	247.822
3386.96	272.225
3388.99	265.211
3391.02	241.231
3393.05	251.123
3395.08	256.228
3397.11	241.984
3399.14	285.943
3401.16	269.236
3403.19	269.444
3405.21	255.07
3407.24	262.58
3409.26	255.495
3411.29	260.519
3413.31	270.441
3415.33	263.322
3417.35	270.827
3419.37	273.452
3421.39	271.192
3423.41	268.922
3425.43	266.67
3427.45	230.297
3429.46	259.839
3431.48	247.904
3433.5	267.76
3435.51	263.208
3437.53	266.023
3439.54	249.26
3441.55	261.909
3443.57	264.793
3445.58	250.538
3447.59	260.918
3449.6	263.907
3451.61	249.631
3453.62	262.56
3455.63	250.819
3457.64	261.416
3459.64	244.744
3461.65	242.951
3463.66	233.677
3465.66	246.845
3467.67	255.056
3469.67	253.241
3471.67	231.331
3473.68	236.804
3475.68	247.489
3477.68	243.075
3479.68	220.98
3481.68	229.142
3483.68	219.596
3485.68	230.295
3487.68	230.859
3489.67	223.789
3491.67	229.426
3493.67	181.537
3495.66	220.249
3497.66	192.616
3499.65	218.604
3501.64	213.904
3503.64	206.584
3505.63	199.264
3507.62	184.173
3509.61	176.71
3511.6	202.588
3513.59	192.526
3515.58	169.608
3517.57	177.51
3519.56	167.424
3521.54	162.472
3523.53	178.103
3525.52	162.891
3527.5	170.844
3529.49	171.012
3531.47	150.681
3533.45	166.488
3535.43	156.551
3537.42	164.725
3539.4	126.388
3541.38	150.06
3543.36	147.836
3545.34	117.051
3547.32	143.321
3549.29	146.225
3551.27	141.291
3553.25	136.222
3555.22	128.651
3557.2	115.898
3559.17	134.388
3561.15	108.636
3563.12	124.576
3565.09	114.47
3567.07	120.047
3569.04	120.47
3571.01	94.6597
3572.98	110.731
3574.95	118.99
3576.92	111.534
3578.88	101.454
3580.85	80.8295
3582.82	91.8048
3584.79	86.9667
3586.75	87.4019
3588.72	90.4832
3590.68	85.6136
3592.64	75.415
3594.61	91.7934
3596.57	84.2406
3598.53	63.3109
3600.49	74.3636
3602.45	90.7994
3604.41	88.5224
3606.37	67.4518
3608.33	65.1148
3610.29	73.5073
3612.25	65.7802
3614.2	63.4396
3616.16	55.6699
3618.12	64.086
3620.07	58.9889
3622.02	75.4579
3623.98	56.7745
3625.93	43.4797
3627.88	57.2207
3629.84	33.0917
3631.79	57.6299
3633.74	47.0156
3635.69	49.9468
3637.64	58.3189
3639.58	36.9202
3641.53	42.6418
3643.48	37.5268
3645.43	26.9697
3647.37	38.1876
3649.32	41.0975
3651.26	38.634
3653.21	33.4455
3655.15	33.6851
3657.09	28.4747
3659.03	25.9841
3660.98	31.6766
3662.92	23.7129
3664.86	18.4871
3666.8	15.9991
3668.74	21.7131
3670.67	13.7477
3672.61	5.77754
3674.55	16.9915
3676.49	3.56465
3678.42	9.33035
3680.36	4.13216
3682.29	7.18249
3684.23	1.99294
3686.16	-0.441467
3688.09	16.4405
3690.02	2.96137
3691.96	14.3631
3693.89	3.60264
3695.82	-1.64502
3697.75	-1.32832
3699.68	-14.9324
3701.61	16.0194
3703.53	-0.404396
3705.46	-0.0850677
3707.39	3.03216
3709.31	0.552216
3711.24	6.47898
3713.16	-1.62617
3715.09	-4.14153
3717.01	7.41021
3718.93	-0.75238
3720.86	7.99477
3722.78	2.63127
3724.7	0.0783539
3726.62	6.00383
3728.54	3.44625
3730.46	-1.95027
3732.38	4.00053
3734.29	-9.92009
3736.21	-18.182
3738.13	4.83414
3740.04	-14.8288
3741.96	-3.17996
3743.87	-8.62608
3745.79	0.186798
3747.7	-8.13178
3749.62	-5.03432
3751.53	-1.9409
3753.44	-7.43407
3755.35	4.23562
3757.26	-1.27293
3759.17	-3.92559
3761.08	-0.854248
3762.99	-3.51236
3764.9	8.15485
3766.81	-5.97079
3768.71	-0.0225677
3770.62	-2.67189
3772.52	-8.19059
3774.43	-13.7163
3776.33	3.7337
3778.24	6.83668
3780.14	-1.55322
3782.04	1.56402
3783.95	-6.82774
3785.85	-3.70443
3787.75	-0.582024
3789.65	-6.12135
3791.55	-3.00144
3793.45	-2.75892
3795.34	-8.29469
3797.24	6.43774
3799.14	-1.99574
3801.04	6.96975
3802.93	7.23849
3804.83	1.69395
3806.72	-9.68509
3808.62	-12.3459
3810.51	2.49338
3812.4	5.67038
3814.29	0.0773697
3816.19	-11.3849
3818.08	-5.2881
3819.97	3.74915
3821.86	-1.88108
3823.75	10.1032
3825.64	1.51096
3827.52	-4.147
3829.41	-3.92065
3831.3	-3.68833
3833.18	-6.40825
3835.07	5.63075
3836.95	5.85934
3838.84	-2.79359
3840.72	-2.56631
3842.61	12.4887
3844.49	6.77059
3846.37	1.02723
3848.25	-1.77092
3850.13	1.3758
3852.01	1.55068
3853.89	1.71018
3855.77	13.7673
3857.65	2.02513
3859.53	-0.807899
3861.41	11.236
3863.28	-6.44495
3865.16	-6.25288
3867.03	2.89764
3868.91	-8.79224
3870.78	-2.62148
3872.66	3.49352
3874.53	-2.32558
3876.4	0.815628
3878.27	6.94555
3880.14	-1.87167
3882.01	-4.712
3883.89	7.40945
3885.75	1.58122
3887.62	4.73468
3889.49	-1.09825
3891.36	14.0548
3893.23	2.23339
3895.09	-12.5917
3896.96	-3.41204
3898.82	8.78692
3900.69	5.95189
3902.55	0.0951309
3904.42	6.28123
3906.28	-5.62276
3908.14	-8.49709
3910	0.718422
3911.87	-5.16498
3913.73	1.0427
3915.59	-1.82156
3917.45	10.4763
3919.3	1.5532
3921.16	13.8964
3923.02	8.00456
3924.88	2.0906
3926.73	-0.792175
3928.59	8.52775
3930.45	5.63527
3932.3	-3.39429
3934.15	-3.26608
3936.01	-6.20243
3937.86	-6.08321
3939.71	3.25272
3941.56	-2.7494
3943.42	6.62092
3945.27	3.68375
3947.12	3.82182
3948.97	10.1195
3950.81	-2.10061
3952.66	4.18494
3954.51	-1.8884
3956.36	13.674
3958.2	1.39735
3960.05	4.57274
3961.9	1.55624
3963.74	7.82704
3965.58	1.69876
3967.43	-4.44112
3969.27	1.80483
3971.11	1.8554
3972.96	-1.19418
3974.8	11.258
3976.64	-1.10051
3978.48	5.14182
3980.32	5.1714
3982.16	17.5993
3984	2.11595
3985.83	2.13983
3987.67	2.15736
3989.51	-7.12369
3991.34	14.6135
3993.18	8.44563
3995.01	2.27752
3996.85	-3.88702
3998.68	2.3677
