#Acq. time (s)=	60
#Accumulations=	2
#Range (cm-¹)=	100...4000
#Windows=	1
#Auto scanning=	Off
#Autofocus=	Off
#Macrospot=	Off
#AutoExposure=	Off
#Spike filter=	Multiple accum.
#Delay time (s)=	2
#Binning=	1
#Readout mode=	Signal
#DeNoise=	Off
#ICS correction=	On
#Dark correction=	Off
#Inst. Process=	Off
#Detector Gain=	Best Dynamic
#Detector ADC=	50 kHz HS
#Detector temperature (°C)=	-60.28
#Instrument=	LabRAM HR Evol
#Detector=	SIN-EM FIVIS
#Objective=	x100_VIS
#Grating=	150 (500nm)
#ND Filter=	100%
#Laser=	633nm_Edge
#Hole=	49.98
#Temperature=	0
#Range=	Visible
#StageXY=	75x50mm Scan+
#StageZ=	Z motor
#X (µm)=	0
#Y (µm)=	0
#Z (µm)=	-244.4
#Full time(mm:ss)=	2:04
#Project=	21_11_04
#Sample=	BU19w
#Site=	
#Title=	BU19w-E-FF11-FI04-V_150 (500nm)_633nm_Edge_100%_x100_VIS_H50um_60sX2
#Remark=	
#Date=	04.11.2021 16:32
#Acquired=	04.11.2021 16:32:58
#Base:Fit=	16.12.2021 17:39:50
#Base:Edit=	16.12.2021 17:50:49
#Base:Edit=	16.12.2021 17:50:50
#Base:Edit=	16.12.2021 17:50:51
#Base:Edit=	16.12.2021 17:50:52
#Base:Edit=	16.12.2021 17:50:52
#Base:Edit=	16.12.2021 17:50:53
#Base:Edit=	16.12.2021 17:50:53
#Base:Edit=	16.12.2021 17:50:53
#Base:Edit=	16.12.2021 17:50:54
#Base:Sub=	16.12.2021 17:50:55
102.881	256.109
106.139	242.141
109.397	224.427
112.653	201.01
115.908	178.56
119.161	178.053
122.414	168.047
125.664	161.873
128.914	128.961
132.162	130.467
135.409	139.636
138.654	127.737
141.898	89.0817
145.14	123.227
148.383	107.631
151.622	135.163
154.861	142.679
158.098	233.549
161.335	267.031
164.569	168.309
167.801	106.905
171.034	64.6426
174.264	51.1157
177.494	68.2312
180.721	74.784
183.949	117.667
187.173	146.116
190.396	135.263
193.62	102.468
196.84	70.7285
200.061	24.802
203.279	10.5343
206.496	15.3553
209.712	-0.832092
212.926	5.89246
216.139	3.09834
219.352	6.98103
222.562	4.18336
225.772	7.07468
228.979	40.355
232.185	81.2379
235.392	94.5464
238.595	80.2962
241.797	125.931
244.999	203.975
248.199	161.344
251.397	95.8919
254.595	39.0135
257.791	19.208
260.985	1.32681
264.178	10.021
267.371	29.1606
270.561	110.908
273.75	217.32
276.939	428.066
280.125	456.667
283.31	310.735
286.494	144.927
289.678	74.8833
292.859	42.7449
296.039	33.3568
299.217	39.121
302.396	65.6797
305.572	45.8652
308.746	54.4266
311.919	19.5317
315.093	29.9929
318.263	54.6031
321.433	93.399
324.601	142.578
327.768	181.353
330.935	199.397
334.099	125.932
337.262	80.7589
340.423	89.3435
343.584	123.371
346.743	204.475
349.902	257.268
353.058	220.472
356.213	142.224
359.367	96.0286
362.52	62.0898
365.671	72.3682
368.821	95.7906
371.971	92.8847
375.119	62.728
378.265	34.4849
381.41	40.966
384.553	61.5554
387.696	76.61
390.837	92.6779
393.976	95.6736
397.116	75.2317
400.253	48.2616
403.389	27.7769
406.524	19.4848
409.657	5.50069
412.789	33.945
415.92	68.9791
419.05	64.3642
422.178	47.3567
425.305	33.052
428.431	20.4638
431.555	15.3916
434.678	5.60678
437.8	11.8392
440.921	10.5219
444.04	13.8854
447.158	-0.618347
450.275	15.8114
453.391	30.3321
456.505	47.6391
459.618	31.3446
462.73	13.2644
465.84	28.8147
468.949	21.0526
472.057	19.8446
475.164	21.4729
478.27	34.3045
481.374	38.7293
484.477	40.3423
487.579	67.1061
490.679	64.0532
493.778	85.2377
496.876	98.0135
499.973	96.8141
503.068	71.3965
506.162	63.6732
509.255	55.0111
512.346	31.4242
515.436	29.2916
518.525	32.7885
521.613	26.0379
524.7	15.5418
527.785	7.85196
530.869	17.0482
533.952	17.8331
537.033	22.3749
540.113	24.9934
543.192	21.9203
546.27	20.6816
549.347	30.6758
552.423	39.746
555.497	39.3592
558.568	34.1525
561.64	34.5101
564.711	25.3966
567.78	22.841
570.848	16.4764
573.915	26.9964
576.979	18.6878
580.043	25.387
583.107	53.6139
586.169	79.9145
589.228	111.795
592.287	113.883
595.345	70.3429
598.402	56.7213
601.458	48.8011
604.511	72.6398
607.565	99.3218
610.617	107.403
613.667	70.6324
616.716	65.6851
619.764	40.0845
622.811	30.3982
625.856	18.8213
628.9	36.3199
631.944	25.4669
634.986	39.0466
638.026	44.0524
641.066	46.1571
644.104	49.1015
647.14	25.7263
650.177	26.829
653.211	39.1303
656.244	64.4963
659.276	70.1199
662.308	98.1671
665.336	103.742
668.365	104.642
671.393	115.917
674.418	114.356
677.443	116.498
680.467	113.943
683.489	91.892
686.511	48.4003
689.53	34.8006
692.549	25.8877
695.567	12.2756
698.582	5.18437
701.598	4.63347
704.611	1.24863
707.624	8.17038
710.635	5.65285
713.646	17.0981
716.655	-2.47307
719.662	11.7835
722.669	18.537
725.674	8.33243
728.679	13.1009
731.681	5.66922
734.683	8.5477
737.683	18.8999
740.683	4.93785
743.681	8.74796
746.678	18.1714
749.673	17.3313
752.669	13.7448
755.661	14.8153
758.654	28.0865
761.645	29.3308
764.635	44.6518
767.623	56.3116
770.611	83.9309
773.597	137.906
776.582	176.961
779.565	176.535
782.549	151.561
785.53	137.794
788.511	81.5706
791.489	52.6021
794.466	43.3815
797.444	20.9166
800.419	24.815
803.394	11.7135
806.366	15.5585
809.339	16.5689
812.309	27.8897
815.278	4.38606
818.247	8.13976
821.214	3.43562
824.18	12.7825
827.145	3.3927
830.108	8.08157
833.072	6.31891
836.033	7.41133
838.992	1.0825
841.952	6.04356
844.909	0.689575
847.865	8.45924
850.822	15.33
853.776	3.43776
856.728	2.81583
859.681	1.25958
862.631	11.9631
865.58	27.4184
868.528	29.6714
871.476	17.6878
874.422	12.2625
877.366	10.5834
880.311	6.04311
883.253	7.17215
886.194	11.1197
889.134	11.246
892.074	12.2998
895.012	9.5446
897.948	6.74374
900.883	1.05527
903.818	14.2715
906.751	-2.76571
909.683	6.63321
912.614	5.64967
915.543	11.2609
918.473	17.8649
921.4	7.59125
924.326	11.4671
927.251	10.6818
930.174	9.97096
933.098	13.9571
936.019	13.3176
938.94	11.809
941.859	20.7081
944.777	25.857
947.693	20.6166
950.61	27.71
953.525	31.0016
956.438	18.0645
959.35	33.7115
962.261	22.5912
965.171	28.639
968.08	34.6908
970.988	35.9167
973.894	28.4595
976.801	36.2981
979.705	40.2177
982.608	35.4617
985.51	26.8571
988.411	45.0659
991.311	22.0958
994.209	20.1871
997.107	22.1132
1000	15.4669
1002.9	6.9381
1005.79	12.7453
1008.68	19.5377
1011.58	19.7337
1014.47	31.3999
1017.36	24.931
1020.25	35.6609
1023.13	32.1229
1026.02	27.6633
1028.9	17.4588
1031.79	27.3801
1034.67	30.6248
1037.55	29.0854
1040.43	48.7421
1043.31	67.4891
1046.19	86.3088
1049.07	134.163
1051.94	188.859
1054.82	222.291
1057.69	180.964
1060.56	122.992
1063.44	94.0587
1066.31	78.6222
1069.17	56.3956
1072.04	51.6606
1074.91	53.7033
1077.77	64.4535
1080.64	71.3004
1083.5	99.4692
1086.37	136.334
1089.23	191.627
1092.09	186.837
1094.95	180.117
1097.8	154.993
1100.66	137.634
1103.52	142.573
1106.37	169.919
1109.22	222.366
1112.08	218.855
1114.93	196.24
1117.78	153.215
1120.63	146.938
1123.48	162.003
1126.32	150.748
1129.17	151.237
1132.01	162.476
1134.86	158.086
1137.7	117.399
1140.54	108.037
1143.38	89.7617
1146.22	89.0692
1149.06	69.7006
1151.89	85.6987
1154.73	120.342
1157.56	117.503
1160.4	103.773
1163.23	84.0469
1166.06	65.3321
1168.89	63.3432
1171.72	62.3311
1174.55	45.6412
1177.38	42.6727
1180.2	29.9638
1183.03	16.3245
1185.85	31.076
1188.67	23.4035
1191.49	25.5097
1194.31	29.6365
1197.13	39.6495
1199.95	36.0351
1202.77	22.6777
1205.58	27.9544
1208.4	18.5217
1211.21	15.949
1214.02	16.3554
1216.84	29.6535
1219.65	39.0569
1222.46	51.4985
1225.27	54.0284
1228.07	40.5682
1230.88	33.0295
1233.68	30.4445
1236.49	39.8872
1239.29	54.3564
1242.09	53.6779
1244.89	55.9753
1247.69	38.0344
1250.49	32.1481
1253.29	35.3451
1256.08	31.4145
1258.88	25.4227
1261.67	29.4877
1264.47	11.3587
1267.26	27.5258
1270.05	22.4993
1272.84	68.7593
1275.63	113.909
1278.42	39.49
1281.2	24.3996
1283.99	14.3682
1286.77	11.3788
1289.56	10.41
1292.34	1.46386
1295.12	17.5385
1297.9	13.6411
1300.68	7.75603
1303.46	7.90607
1306.23	9.09369
1309.01	8.31827
1311.78	11.6059
1314.56	8.89225
1317.33	3.15656
1320.1	-2.58738
1322.87	2.76347
1325.64	3.09134
1328.41	7.47768
1331.18	7.81889
1333.94	-1.02175
1336.71	0.286591
1339.47	5.66792
1342.24	5.9142
1345	15.3466
1347.76	20.6871
1350.52	10.6501
1353.28	8.79125
1356.04	18.2034
1358.79	0.894104
1361.55	17.4634
1364.3	36.0671
1367.06	36.1438
1369.81	51.6206
1372.56	49.618
1375.31	88.7076
1378.06	185.289
1380.81	81.6036
1383.56	34.4191
1386.3	31.3851
1389.05	18.0914
1391.79	17.1395
1394.53	10.0543
1397.28	6.11219
1400.02	21.6848
1402.76	12.5891
1405.5	7.6073
1408.23	13.9564
1410.97	-0.296356
1413.71	15.3626
1416.44	3.16886
1419.17	12.6686
1421.91	18.054
1424.64	7.90735
1427.37	10.1911
1430.1	16.6446
1432.83	16.8625
1435.55	-4.81158
1438.28	7.89716
1441.01	-0.273499
1443.73	12.4773
1446.45	9.52945
1449.17	12.831
1451.89	0.369843
1454.62	-0.577415
1457.33	1.60116
1460.05	2.71303
1462.77	-0.391327
1465.48	9.09196
1468.2	10.1665
1470.91	1.79396
1473.63	-0.274666
1476.34	9.21451
1479.05	8.22491
1481.76	14.5861
1484.47	4.15464
1487.17	8.4398
1489.88	15.8974
1492.59	5.4923
1495.29	10.8849
1497.99	6.80296
1500.7	5.89156
1503.4	10.2648
1506.1	14.657
1508.8	9.54743
1511.5	8.66868
1514.19	2.49087
1516.89	2.68355
1519.59	6.08038
1522.28	-3.31867
1524.97	9.71093
1527.67	8.85254
1530.36	13.3634
1533.05	7.16011
1535.74	18.1411
1538.42	6.46686
1541.11	13.1096
1543.8	11.078
1546.48	12.2298
1549.16	14.4211
1551.85	11.1645
1554.53	11.1055
1557.21	2.38028
1559.89	21.7567
1562.57	7.6673
1565.25	20.5522
1567.93	10.78
1570.6	7.48039
1573.28	16.0325
1575.95	13.8244
1578.62	28.878
1581.29	25.6425
1583.97	11.6489
1586.64	19.1948
1589.3	17.0596
1591.97	22.479
1594.64	20.3729
1597.3	17.2041
1599.97	7.55901
1602.63	9.80099
1605.3	22.8738
1607.96	18.6799
1610.62	6.909
1613.28	13.5897
1615.94	27.9275
1618.59	18.3516
1621.25	32.7663
1623.91	19.8748
1626.56	15.701
1629.21	23.5906
1631.87	28.1977
1634.52	16.2563
1637.17	10.8713
1639.82	17.5343
1642.47	13.1662
1645.12	25.3952
1647.76	27.667
1650.41	19.9608
1653.05	22.2085
1655.7	14.4626
1658.34	25.5395
1660.98	24.4129
1663.62	17.7378
1666.26	25.4668
1668.9	16.5562
1671.54	17.6237
1674.18	17.5805
1676.81	11.9752
1679.45	13.0329
1682.08	22.9318
1684.71	9.5293
1687.34	-2.75587
1689.98	12.6565
1692.61	15.9014
1695.23	16.9593
1697.86	19.165
1700.49	12.5763
1703.12	9.49964
1705.74	4.15907
1708.36	13.2789
1710.99	12.0087
1713.61	4.09873
1716.23	9.71154
1718.85	14.3279
1721.47	5.4556
1724.09	12.1872
1726.7	13.365
1729.32	19.0425
1731.94	11.2523
1734.55	11.3117
1737.16	2.3624
1739.77	14.7964
1742.39	10.3407
1745	14.9046
1747.61	11.5524
1750.21	12.7
1752.82	7.05283
1755.43	16.0998
1758.03	9.28262
1760.64	16.028
1763.24	6.92147
1765.84	-3.3149
1768.44	5.70695
1771.05	4.53912
1773.64	11.3079
1776.24	-1.1833
1778.84	6.75521
1781.44	11.3124
1784.03	-7.98283
1786.63	10.2355
1789.22	9.15448
1791.81	14.9135
1794.41	12.6987
1797	-0.941727
1799.59	4.8527
1802.18	12.9555
1804.76	2.72554
1807.35	8.54015
1809.94	2.84443
1812.52	7.49438
1815.11	6.39135
1817.69	13.3679
1820.27	5.33403
1822.85	13.48
1825.43	8.91213
1828.01	3.17581
1830.59	0.914162
1833.17	6.77764
1835.74	8.01651
1838.32	10.3957
1840.89	5.76823
1843.47	8.12716
1846.04	8.14939
1848.61	6.99539
1851.18	4.67313
1853.75	1.14304
1856.32	19.8832
1858.89	9.36258
1861.45	7.05209
1864.02	-1.13657
1866.58	-1.09566
1869.15	14.2302
1871.71	9.53786
1874.27	-2.24935
1876.83	1.28021
1879.39	8.34478
1881.95	11.8782
1884.51	-3.50299
1887.07	2.37656
1889.63	-3.59608
1892.18	12.8762
1894.74	3.33624
1897.29	11.544
1899.84	-1.5104
1902.39	12.6901
1904.94	-2.67553
1907.49	17.51
1910.04	0.968636
1912.59	12.9535
1915.14	10.7046
1917.68	6.03828
1920.23	13.1647
1922.77	-11.9126
1925.32	8.42994
1927.86	7.2691
1930.4	1.31281
1932.94	3.73611
1935.48	0.154228
1938.02	8.56901
1940.56	13.3797
1943.09	-5.86764
1945.63	20.5811
1948.16	9.7287
1950.7	-9.58105
1953.23	8.43169
1955.76	8.37237
1958.29	13.1277
1960.82	5.82741
1963.35	16.5988
1965.88	2.05351
1968.41	4.36356
1970.93	3.04549
1973.46	8.95023
1975.98	1.60876
1978.51	12.329
1981.03	3.78489
1983.55	6.07603
1986.07	9.5728
1988.59	8.26299
1991.11	5.75448
1993.63	11.6673
1996.15	15.1813
1998.66	0.674133
2001.18	4.20626
2003.69	1.73737
2006.2	4.09311
2008.72	2.84628
2011.23	8.83379
2013.74	12.4165
2016.25	14.7991
2018.76	8.73076
2021.27	5.07525
2023.77	8.67481
2026.28	9.87981
2028.78	7.47603
2031.29	2.66887
2033.79	3.91562
2036.29	1.53194
2038.79	11.2647
2041.3	16.1688
2043.79	16.2301
2046.29	4.14194
2048.79	4.20179
2051.29	7.91326
2053.78	1.82671
2056.28	1.86509
2058.77	-1.74184
2061.27	15.4359
2063.76	11.8372
2066.25	10.6868
2068.74	9.52379
2071.23	16.9551
2073.72	5.95795
2076.21	-1.37531
2078.69	13.4521
2081.18	7.33453
2083.66	-3.74335
2086.15	20.9731
2088.63	17.2788
2091.11	3.70996
2093.59	13.6623
2096.07	13.7413
2098.55	7.61838
2101.03	13.9113
2103.51	0.323372
2105.99	24.0797
2108.46	4.24828
2110.94	3.10799
2113.41	8.23165
2115.89	5.85583
2118.36	16.0233
2120.83	11.1356
2123.3	8.74619
2125.77	2.56318
2128.24	7.71884
2130.71	4.03098
2133.17	15.5142
2135.64	19.4124
2138.11	1.74284
2140.57	11.9723
2143.03	9.50715
2145.49	13.3884
2147.96	23.6321
2150.42	13.4739
2152.88	12.2222
2155.34	5.85212
2157.79	-3.08846
2160.25	-0.548332
2162.71	10.9279
2165.16	1.94347
2167.62	5.72958
2170.07	15.9205
2172.52	8.23301
2174.97	5.66104
2177.43	23.5595
2179.88	5.58975
2182.32	-2.1492
2184.77	15.6957
2187.22	20.7525
2189.67	16.8673
2192.11	-3.64897
2194.56	11.6937
2197	5.28528
2199.44	2.73534
2201.89	18.1595
2204.33	16.9279
2206.77	22.133
2209.21	13.2113
2211.64	8.14669
2214.08	15.9676
2216.52	13.4945
2218.95	0.682648
2221.39	17.6061
2223.82	8.65632
2226.26	13.9555
2228.69	17.9694
2231.12	12.8879
2233.55	3.8863
2235.98	14.4224
2238.41	13.2334
2240.84	9.42406
2243.26	20.0088
2245.69	17.5163
2248.12	15.016
2250.54	11.1924
2252.96	7.35424
2255.39	10.0936
2257.81	19.4462
2260.23	5.04781
2262.65	2.50169
2265.07	9.19891
2267.49	-1.32841
2269.9	5.35069
2272.32	8.0469
2274.74	4.09463
2277.15	-1.19926
2279.57	4.12382
2281.98	8.10312
2284.39	12.0672
2286.8	6.70724
2289.21	15.9861
2291.62	10.6268
2294.03	6.5947
2296.44	14.5515
2298.84	7.89038
2301.25	14.5525
2303.66	9.2466
2306.06	10.6271
2308.46	21.3711
2310.87	17.456
2313.27	20.2298
2315.67	25.7049
2318.07	12.4351
2320.47	20.612
2322.87	12.6717
2325.26	10.1105
2327.66	16.9813
2330.06	3.62627
2332.45	9.1737
2334.85	7.9725
2337.24	16.2645
2339.63	16.4342
2342.02	9.8162
2344.41	24.9871
2346.8	14.2971
2349.19	19.9604
2351.58	9.19752
2353.97	17.597
2356.35	1.25382
2358.74	9.6281
2361.12	6.94405
2363.51	4.27036
2365.89	2.97996
2368.27	8.59396
2370.65	19.748
2373.03	18.4563
2375.41	4.68377
2377.79	7.53569
2380.17	13.1397
2382.55	6.23264
2384.92	6.24355
2387.3	14.5933
2389.67	6.23857
2392.05	10.3839
2394.42	21.4854
2396.79	8.90378
2399.16	8.84537
2401.53	18.535
2403.9	5.93661
2406.27	8.65046
2408.64	30.8879
2411.01	14.2249
2413.37	3.16422
2415.74	8.94257
2418.1	7.87599
2420.47	20.74
2422.83	23.6568
2425.19	12.4312
2427.55	28.0087
2429.91	18.2803
2432.27	11.3589
2434.63	10.0873
2436.99	7.4085
2439.34	6.13557
2441.7	9.11443
2444.05	14.9453
2446.41	25.0674
2448.76	12.4012
2451.11	-0.30323
2453.47	14.126
2455.82	19.9996
2458.17	12.9821
2460.51	8.81371
2462.86	0.318039
2465.21	29.2545
2467.56	16.4205
2469.9	26.6604
2472.25	19.5583
2474.59	0.853622
2476.94	3.86235
2479.28	-1.83704
2481.62	18.6123
2483.96	12.8979
2486.3	1.32243
2488.64	17.4383
2490.98	13.1387
2493.32	8.82919
2495.65	16.2277
2497.99	4.58778
2500.32	10.5128
2502.66	-4.10271
2504.99	16.5017
2507.32	15.0815
2509.66	-1.06256
2511.99	22.5104
2514.32	15.1698
2516.65	13.7132
2518.98	15.221
2521.3	9.36224
2523.63	13.8339
2525.96	18.3027
2528.28	5.02448
2530.61	21.3422
2532.93	28.8095
2535.25	5.14627
2537.57	17.0826
2539.89	14.1824
2542.22	14.254
2544.53	18.796
2546.85	8.44936
2549.17	11.5097
2551.49	20.5556
2553.8	11.6639
2556.12	17.7097
2558.43	16.2617
2560.75	-4.67025
2563.06	22.4251
2565.37	7.4929
2567.68	9.08952
2569.99	18.2386
2572.3	25.9022
2574.61	6.36638
2576.92	10.9878
2579.23	8.02728
2581.53	15.6607
2583.84	2.02232
2586.14	8.09839
2588.45	17.206
2590.75	3.47676
2593.05	-4.14738
2595.35	6.50114
2597.66	18.714
2599.96	18.7365
2602.26	11.1196
2604.55	14.1687
2606.85	11.1068
2609.15	4.9841
2611.44	17.1696
2613.74	9.4883
2616.03	18.6273
2618.33	14.0132
2620.62	17.0416
2622.91	10.8883
2625.2	16.9995
2627.49	12.3894
2629.78	17.0132
2632.07	17.0703
2634.36	23.2988
2636.64	9.55495
2638.93	8.14244
2641.22	17.5318
2643.5	-2.44455
2645.78	14.7267
2648.07	-0.669022
2650.35	10.3172
2652.63	13.5569
2654.91	15.1788
2657.19	24.5741
2659.47	10.5472
2661.75	-8.20339
2664.03	12.1081
2666.3	16.78
2668.58	12.0982
2670.85	2.71489
2673.13	27.884
2675.4	-1.84312
2677.67	14.0839
2679.95	19.1044
2682.22	6.69185
2684.49	13.2502
2686.76	11.8883
2689.03	7.32297
2691.29	15.4738
2693.56	22.0442
2695.83	14.0377
2698.09	15.6708
2700.36	2.88995
2702.62	17.3752
2704.89	19.0135
2707.15	9.38695
2709.41	2.95418
2711.67	25.5226
2713.93	22.3254
2716.19	6.24396
2718.45	4.64487
2720.7	6.27988
2722.96	17.627
2725.22	11.1284
2727.47	11.1021
2729.73	12.6839
2731.98	4.49393
2734.23	6.05766
2736.49	7.60803
2738.74	4.27274
2740.99	4.2218
2743.24	22.082
2745.49	10.6639
2747.73	17.1733
2749.98	13.9327
2752.23	2.61348
2754.47	19.0388
2756.72	19.0727
2758.96	19.0769
2761.21	25.6128
2763.45	-5.57855
2765.69	2.6377
2767.93	15.8147
2770.17	12.5206
2772.41	10.8908
2774.65	17.5318
2776.89	17.6051
2779.13	9.41293
2781.36	17.8181
2783.6	19.6065
2785.84	9.76419
2788.07	8.2124
2790.3	19.9968
2792.54	10.0841
2794.77	13.5228
2797	3.53499
2799.23	5.26408
2801.46	6.98164
2803.69	-1.40446
2805.92	7.01848
2808.14	8.70761
2810.37	7.01846
2812.59	3.63086
2814.82	15.4242
2817.04	18.777
2819.27	8.6006
2821.49	18.7377
2823.71	13.6422
2825.93	18.7197
2828.15	11.9115
2830.37	5.0864
2832.59	10.1496
2834.81	23.7207
2837.03	6.66026
2839.24	11.7315
2841.46	15.106
2843.67	21.904
2845.89	8.23555
2848.1	8.22295
2850.31	11.6448
2852.53	6.5294
2854.74	11.7125
2856.95	10.042
2859.16	-8.83636
2861.37	10.1382
2863.57	15.387
2865.78	18.9425
2867.99	13.8602
2870.19	12.2231
2872.4	12.3119
2874.6	15.8811
2876.81	17.7256
2879.01	21.3296
2881.21	7.49019
2883.41	19.8584
2885.61	7.73875
2887.81	14.8806
2890.01	4.44815
2892.21	11.5942
2894.41	15.2316
2896.6	29.5222
2898.8	-5.72609
2901	6.80002
2903.19	26.4463
2905.38	-1.92671
2907.58	-3.64632
2909.77	17.8331
2911.96	10.7228
2914.15	23.2708
2916.34	1.80046
2918.53	3.61716
2920.72	1.8532
2922.91	5.48093
2925.09	21.7404
2927.28	20.0273
2929.47	0.253769
2931.65	12.9821
2933.83	22.0935
2936.02	14.8855
2938.2	11.2657
2940.38	0.355225
2942.56	11.2497
2944.74	9.41176
2946.92	-5.2084
2949.1	7.49039
2951.28	1.97723
2953.46	9.22893
2955.63	16.4887
2957.81	14.6167
2959.98	27.3789
2962.16	1.73041
2964.33	7.18661
2966.5	5.33118
2968.68	10.8187
2970.85	3.46318
2973.02	14.4816
2975.19	29.2022
2977.36	12.6376
2979.52	12.6343
2981.69	7.11122
2983.86	12.684
2986.03	5.33252
2988.19	7.23615
2990.36	11.0081
2992.52	7.37308
2994.68	9.30122
2996.85	5.66295
2999.01	30.0115
3001.17	9.59648
3003.33	20.9483
3005.49	17.3452
3007.65	15.6033
3009.8	21.3747
3011.96	-10.5491
3014.12	8.40967
3016.27	21.7789
3018.43	21.9509
3020.58	14.5332
3022.74	20.375
3024.89	16.6903
3027.04	24.4026
3029.19	14.9416
3031.34	9.26733
3033.49	26.5165
3035.64	16.9671
3037.79	5.45724
3039.94	5.49203
3042.09	13.1936
3044.23	11.2776
3046.38	17.0487
3048.52	28.6048
3050.67	26.6854
3052.81	17.0454
3054.95	26.7114
3057.09	17.0716
3059.24	5.47289
3061.38	32.5753
3063.51	28.7204
3065.65	26.8006
3067.79	26.817
3069.93	15.1763
3072.07	15.1841
3074.2	21.0381
3076.34	13.2693
3078.47	28.8892
3080.61	40.6327
3082.74	36.7687
3084.87	19.2421
3087	27.1423
3089.14	19.4065
3091.27	31.3052
3093.39	17.6945
3095.52	19.8202
3097.65	19.9807
3099.78	20.1391
3101.91	32.1873
3104.03	38.3484
3106.16	24.6814
3108.28	30.8732
3110.41	37.1031
3112.53	27.3809
3114.65	39.6298
3116.77	31.8748
3118.89	44.1895
3121.01	36.4378
3123.13	36.7373
3125.25	43.1194
3127.37	41.4353
3129.49	41.7941
3131.61	52.3654
3133.72	40.518
3135.84	57.2695
3137.95	49.4634
3140.06	51.8826
3142.18	52.2323
3144.29	48.4315
3146.4	61.1544
3148.51	42.8171
3150.62	59.69
3152.73	57.8428
3154.84	51.8137
3156.95	52.0167
3159.06	43.8609
3161.16	64.9881
3163.27	52.6434
3165.37	59.1309
3167.48	61.4164
3169.58	53.1694
3171.69	59.711
3173.79	76.7785
3175.89	72.6963
3177.99	72.8032
3180.09	64.4222
3182.19	68.7157
3184.29	73.0032
3186.39	75.1668
3188.49	51.8245
3190.58	68.8506
3192.68	58.3209
3194.77	64.7955
3196.87	54.3084
3198.96	88.6269
3201.06	82.5921
3203.15	85.0754
3205.24	85.4413
3207.33	94.4471
3209.42	62.6053
3211.51	80.2323
3213.6	74.1831
3215.69	91.9529
3217.78	94.5899
3219.86	97.2027
3221.95	88.9357
3224.04	87.1817
3226.12	89.8079
3228.2	74.8991
3230.29	95.0486
3232.37	95.4913
3234.45	84.8585
3236.53	87.431
3238.61	81.1976
3240.7	97.1439
3242.77	106.499
3244.85	91.4755
3246.93	100.827
3249.01	72.2199
3251.08	106.08
3253.16	99.6787
3255.23	106.657
3257.31	109.148
3259.38	84.7765
3261.46	103.162
3263.53	92.2963
3265.6	110.869
3267.67	88.9825
3269.74	91.6117
3271.81	103.595
3273.88	108.552
3275.95	101.906
3278.02	95.2752
3280.08	102.357
3282.15	109.455
3284.21	100.512
3286.28	80.0678
3288.34	123.932
3290.41	94.256
3292.47	101.355
3294.53	110.764
3296.59	80.9736
3298.65	92.7015
3300.71	116.069
3302.77	109.361
3304.83	107.28
3306.89	109.833
3308.95	105.42
3311	107.951
3313.06	122.089
3315.11	124.661
3317.17	138.861
3319.22	108.842
3321.27	95.1087
3323.33	109.426
3325.38	107.401
3327.43	119.461
3329.48	117.475
3331.53	120.29
3333.58	87.8528
3335.63	111.867
3337.67	126.522
3339.72	134.009
3341.77	131.987
3343.81	122.801
3345.86	127.831
3347.9	135.164
3349.95	97.4041
3351.99	152.349
3354.03	138.323
3356.07	121.968
3358.11	131.837
3360.15	139.332
3362.19	137.297
3364.23	140.019
3366.27	137.941
3368.31	140.665
3370.34	116.98
3372.38	122.066
3374.42	151.2
3376.45	141.815
3378.48	132.401
3380.52	159.145
3382.55	152.129
3384.58	135.437
3386.61	152.547
3388.64	145.489
3390.68	140.825
3392.7	145.839
3394.73	170.27
3396.76	165.686
3398.79	163.528
3400.82	144.348
3402.84	154.234
3404.87	173.834
3406.89	195.899
3408.92	198.525
3410.94	169.484
3412.96	203.708
3414.98	240.395
3417	308.786
3419.03	455.191
3421.05	647.997
3423.06	750.698
3425.08	626.663
3427.1	422.085
3429.12	315.007
3431.14	246.929
3433.15	203.235
3435.17	191.315
3437.18	172.059
3439.2	177.3
3441.21	158.027
3443.22	148.565
3445.23	153.883
3447.25	159.263
3449.26	172.04
3451.27	162.641
3453.28	165.616
3455.28	171.117
3457.29	141.989
3459.3	172.372
3461.31	165.561
3463.31	153.747
3465.32	159.365
3467.32	157.501
3469.33	158.111
3471.33	153.69
3473.33	159.149
3475.34	179.813
3477.34	155.211
3479.34	175.948
3481.34	158.835
3483.34	172.028
3485.34	180.181
3487.33	178.195
3489.33	183.816
3491.33	232.711
3493.32	243.495
3495.32	259.359
3497.32	252.247
3499.31	306.452
3501.3	347.935
3503.3	394.544
3505.29	372.014
3507.28	328.838
3509.27	324.011
3511.26	298.577
3513.25	234.592
3515.24	229.65
3517.23	196.428
3519.22	186.323
3521.2	171.065
3523.19	160.95
3525.18	145.707
3527.16	127.891
3529.15	117.73
3531.13	107.644
3533.11	128.563
3535.1	100.538
3537.08	116.414
3539.06	122.02
3541.04	117.232
3543.02	96.8522
3545	68.6312
3546.98	102.65
3548.96	97.7309
3550.93	97.9605
3552.91	79.864
3554.89	85.2268
3556.86	88.0356
3558.84	77.8553
3560.81	78.0995
3562.78	83.5785
3564.76	68.2177
3566.73	84.1943
3568.7	89.8154
3570.67	84.9323
3572.64	82.6618
3574.61	69.9208
3576.58	70.3013
3578.55	91.7428
3580.52	68.508
3582.48	63.6785
3584.45	56.1978
3586.41	59.2699
3588.38	62.3463
3590.35	54.8199
3592.31	65.8628
3594.27	52.9969
3596.23	56.0786
3598.2	53.8195
3600.16	62.2104
3602.12	41.2051
3604.08	54.9522
3606.04	60.6703
3608	44.9158
3609.95	47.9167
3611.91	42.8539
3613.87	37.7999
3615.83	59.649
3617.78	49.1812
3619.74	14.3686
3621.69	33.4876
3623.64	49.8802
3625.6	33.8319
3627.55	36.7027
3629.5	17.9268
3631.45	31.5812
3633.4	29.0172
3635.35	34.5939
3637.3	37.4962
3639.25	35.0179
3641.2	27.157
3643.15	30.1611
3645.09	22.3081
3647.04	33.5241
3648.98	33.6773
3650.93	3.93233
3652.87	17.7562
3654.82	12.4963
3656.76	18.1374
3658.7	18.3242
3660.64	23.9655
3662.58	-0.431442
3664.53	21.5915
3666.47	8.132
3668.4	11.067
3670.34	11.2592
3672.28	14.189
3674.22	22.6351
3676.16	6.44994
3678.09	25.9164
3680.03	1.5065
3681.96	10.0507
3683.9	21.3877
3685.83	7.97369
3687.76	11.0839
3689.69	3.1494
3691.63	0.732864
3693.56	1.06078
3695.49	1.36874
3697.42	7.26266
3699.35	10.3853
3701.28	-0.407516
3703.2	-0.099884
3705.13	3.0304
3707.06	-21.7979
3708.98	-4.68095
3710.91	-4.35149
3712.83	-1.21297
3714.76	-3.71381
3716.68	10.6578
3718.6	-14.4089
3720.53	14.0705
3722.45	3.06111
3724.37	3.32703
3726.29	12.0707
3728.21	-18.8083
3730.13	-10.0646
3732.05	-4.12723
3733.97	1.8196
3735.88	2.09393
3737.8	-3.32721
3739.72	2.6244
3741.63	-14.221
3743.55	-5.4268
3745.46	-5.18779
3747.38	-10.6692
3749.29	-7.5939
3751.2	1.19147
3753.11	9.97514
3755.02	1.58148
3756.93	-6.83005
3758.84	-3.79869
3760.75	4.95648
3762.66	7.98558
3764.57	5.27875
3766.48	-17.4916
3768.39	2.75323
3770.29	0.0752106
3772.2	-5.46687
3774.1	-16.7572
3776.01	9.28406
3777.91	0.876556
3779.81	-1.77443
3781.72	12.851
3783.62	-7.04298
3785.52	-9.67363
3787.42	2.10556
3789.32	-9.19856
3791.22	-6.07507
3793.12	-5.81992
3795.02	0.240387
3796.92	6.32494
3798.81	0.829163
3800.71	-4.67163
3802.61	1.43958
3804.5	-9.87599
3806.4	2.08215
3808.29	-6.33527
3810.18	8.56546
3812.08	-8.64574
3813.97	-2.50197
3815.86	-13.9104
3817.75	6.8889
3819.64	-19.1996
3821.53	1.6246
3823.42	4.85069
3825.31	-12.5164
3827.2	-0.477249
3829.09	-3.13367
3830.97	-8.72797
3832.86	3.37411
3834.75	3.67972
3836.63	6.93402
3838.52	-13.48
3840.4	19.3619
3842.28	-6.93527
3844.17	8.16815
3846.05	20.2964
3847.93	-3.22844
3849.81	5.90778
3851.69	-11.6849
3853.57	12.294
3855.45	-11.2604
3857.33	-11.0645
3859.21	-7.91092
3861.08	13.1018
3862.96	1.43427
3864.84	-7.19804
3866.71	11.0168
3868.59	2.47849
3870.46	-0.148743
3872.34	23.9853
3874.21	-8.62527
3876.08	-8.37395
3877.95	0.845245
3879.82	-4.87549
3881.69	-1.62064
3883.56	4.63826
3885.44	7.91945
3887.3	5.22331
3889.17	5.5287
3891.04	11.8422
3892.91	0.186981
3894.77	3.57181
3896.64	6.94377
3898.51	10.3111
3900.37	-13.4019
3902.23	-4.01027
3904.1	2.37044
3905.96	-0.27919
3907.82	18.1908
3909.69	3.46716
3911.55	12.9363
3913.41	16.3678
3915.27	-7.44286
3917.13	-0.96019
3918.99	-3.55414
3920.84	6.02434
3922.7	3.45981
3924.56	-2.16402
3926.42	-10.8548
3928.27	-4.30186
3930.13	17.5452
3931.98	-0.347046
3933.84	6.20364
3935.69	12.7657
3937.54	-2.12462
3939.4	16.7359
3941.25	26.4376
3943.1	2.36845
3944.95	-0.21608
3946.8	9.5161
3948.65	13.0989
3950.5	10.5028
3952.35	14.0741
3954.19	20.7372
3956.04	-0.414185
3957.89	3.15022
3959.73	3.60898
3961.58	35.0312
3963.42	1.44122
3965.27	26.6895
3967.11	20.9526
3968.96	2.80727
3970.8	15.6641
3972.64	22.3384
3974.48	10.4196
3976.32	-10.8029
3978.16	8.29024
3980	8.77043
3981.84	15.45
3983.68	9.73422
3985.52	4.03259
3987.36	20.0413
3989.19	17.4592
3991.03	11.8009
3992.86	12.3677
3994.7	3.64459
3996.53	22.8784
3998.37	-1.33235
