#Acq. time (s)=	60
#Accumulations=	2
#Range (cm-¹)=	100...4000
#Windows=	1
#Auto scanning=	Off
#Autofocus=	Off
#Macrospot=	Off
#AutoExposure=	Off
#Spike filter=	Multiple accum.
#Delay time (s)=	2
#Binning=	1
#Readout mode=	Signal
#DeNoise=	Off
#ICS correction=	On
#Dark correction=	Off
#Inst. Process=	Off
#Detector Gain=	Best Dynamic
#Detector ADC=	50 kHz HS
#Detector temperature (°C)=	-60.09
#Instrument=	LabRAM HR Evol
#Detector=	SIN-EM FIVIS
#Objective=	x100_VIS
#Grating=	150 (500nm)
#ND Filter=	100%
#Laser=	633nm_Edge
#Hole=	49.98
#Temperature=	0
#Range=	Visible
#StageXY=	75x50mm Scan+
#StageZ=	Z motor
#X (µm)=	0
#Y (µm)=	0
#Z (µm)=	-271
#Full time(mm:ss)=	2:04
#Project=	21_11_04
#Sample=	BU19w
#Site=	
#Title=	BU19w-E-FF11-FI07-V_150 (500nm)_633nm_Edge_100%_x100_VIS_H50um_60sX2
#Remark=	
#Date=	04.11.2021 16:01
#Acquired=	04.11.2021 16:01:34
#Base:Fit=	16.12.2021 17:39:50
#Base:Edit=	16.12.2021 17:52:23
#Base:Edit=	16.12.2021 17:52:23
#Base:Edit=	16.12.2021 17:52:23
#Base:Edit=	16.12.2021 17:52:24
#Base:Edit=	16.12.2021 17:52:24
#Base:Edit=	16.12.2021 17:52:25
#Base:Edit=	16.12.2021 17:52:25
#Base:Edit=	16.12.2021 17:52:26
#Base:Edit=	16.12.2021 17:52:26
#Base:Edit=	16.12.2021 17:52:26
#Base:Edit=	16.12.2021 17:52:27
#Base:Edit=	16.12.2021 17:52:28
#Base:Edit=	16.12.2021 17:52:28
#Base:Edit=	16.12.2021 17:52:29
#Base:Sub=	16.12.2021 17:52:47
102.881	268.074
106.139	226.998
109.397	203.187
112.653	190.913
115.908	167.258
119.161	153.211
122.414	156.464
125.664	149.282
128.914	138.366
132.162	120.813
135.409	135.86
138.654	122.261
141.898	103.959
145.14	97.2416
148.383	115.481
151.622	114.67
154.861	143.642
158.098	153.547
161.335	147.249
164.569	106.521
167.801	81.1581
171.034	41.4561
174.264	34.3922
177.494	28.3272
180.721	16.5634
183.949	17.2901
187.173	9.44445
190.396	1.64601
193.62	6.33568
196.84	9.17137
200.061	9.2171
203.279	-1.13365
206.496	0.96711
209.712	3.10248
212.926	9.09927
216.139	15.1433
219.352	37.4336
222.562	74.0461
225.772	122.079
228.979	176.684
232.185	185.607
235.392	139.438
238.595	88.6091
241.797	55.9207
244.999	35.6943
248.199	44.9445
251.397	39.9572
254.595	44.4894
257.791	50.0123
260.985	45.135
264.178	46.9322
267.371	49.7138
270.561	44.9455
273.75	62.0229
276.939	61.1119
280.125	64.0038
283.31	62.1599
286.494	39.4759
289.678	31.0263
292.859	24.4825
296.039	30.2737
299.217	24.7253
302.396	38.1148
305.572	53.3929
308.746	84.7445
311.919	133.094
315.093	208.807
318.263	299.58
321.433	369.628
324.601	309.495
327.768	218.254
330.935	160.093
334.099	100.062
337.262	64.5706
340.423	65.8768
343.584	52.1042
346.743	54.3536
349.902	66.0395
353.058	72.0555
356.213	79.0023
359.367	77.4723
362.52	64.6551
365.671	59.3776
368.821	27.7997
371.971	12.2319
375.119	6.06748
378.265	10.2429
381.41	1.28974
384.553	-0.124939
387.696	-0.555428
390.837	9.3661
393.976	15.5709
397.116	14.2942
400.253	17.7672
403.389	15.5836
406.524	28.4751
409.657	40.45
412.789	38.258
415.92	45.4781
419.05	56.511
422.178	75.0794
425.305	96.4052
428.431	100.538
431.555	101.778
434.678	100.186
437.8	80.6899
440.921	87.5833
444.04	86.931
447.158	87.1969
450.275	80.8863
453.391	96.1269
456.505	91.7318
459.618	62.1845
462.73	44.8575
465.84	31.3213
468.949	22.4575
472.057	22.9343
475.164	14.1234
478.27	19.3002
481.374	19.8089
484.477	24.9692
487.579	27.3326
490.679	25.9696
493.778	40.4541
496.876	35.3572
499.973	47.9734
503.068	58.7433
506.162	76.9736
509.255	73.7571
512.346	78.9496
515.436	85.0819
518.525	98.7202
521.613	85.2968
524.7	85.8989
527.785	80.9004
530.869	74.9757
533.952	72.8108
537.033	67.8142
540.113	52.4073
543.192	49.1916
546.27	43.1082
549.347	34.1277
552.423	29.8676
555.497	34.0909
558.568	26.9281
561.64	14.9958
564.711	19.0898
567.78	18.4379
570.848	18.7005
573.915	20.8171
576.979	24.782
580.043	29.6691
583.107	32.6946
586.169	48.7936
589.228	52.7492
592.287	78.1842
595.345	73.7879
598.402	72.2392
601.458	72.6314
604.511	72.1324
607.565	81.9034
610.617	73.9621
613.667	75.3701
616.716	64.6508
619.764	67.9669
622.811	59.0942
625.856	49.2667
628.9	40.2792
631.944	46.3035
634.986	40.0162
638.026	40.277
641.066	34.8403
644.104	42.5413
647.14	44.6001
650.177	43.8297
653.211	48.6499
656.244	41.2413
659.276	39.4682
662.308	30.2097
665.336	19.1136
668.365	16.4413
671.393	9.14957
674.418	5.65421
677.443	1.21474
680.467	2.35873
683.489	7.25544
686.511	2.83392
689.53	4.0293
692.549	4.3036
695.567	3.64028
698.582	8.59235
701.598	2.28729
704.611	-4.04009
707.624	4.64672
710.635	2.03713
713.646	5.944
716.655	-0.489845
719.662	7.16747
722.669	5.43411
725.674	2.73741
728.679	4.71069
731.681	1.98859
734.683	-0.731884
737.683	2.161
740.683	3.17911
743.681	3.26175
746.678	5.21719
749.673	4.3732
752.669	8.21092
755.661	10.1774
758.654	4.72021
761.645	3.95587
764.635	2.27749
767.623	4.3485
770.611	5.4863
773.597	4.75054
776.582	9.63717
779.565	-3.35274
782.549	4.3243
785.53	11.0562
788.511	6.47733
791.489	9.42534
794.466	3.87123
797.444	5.8461
800.419	6.85732
803.394	9.7389
806.366	1.29944
809.339	10.7552
812.309	4.18546
815.278	10.7728
818.247	7.94742
821.214	6.99774
824.18	15.4102
827.145	17.2496
830.108	14.4333
833.072	14.4699
836.033	7.99217
838.992	12.7525
841.952	16.6205
844.909	12.0538
847.865	17.7938
850.822	16.05
853.776	17.1249
856.728	21.9703
859.681	14.5872
862.631	23.2192
865.58	23.3725
868.528	35.8199
871.476	28.3895
874.422	37.0244
877.366	38.0583
880.311	42.8772
883.253	34.3991
886.194	48.6729
889.134	42.0511
892.074	39.2102
895.012	36.3599
897.948	36.322
900.883	40.0337
903.818	39.9403
906.751	37.0116
909.683	35.0221
912.614	46.2245
915.543	45.1744
918.473	38.533
921.4	42.2592
924.326	46.0211
927.251	48.8691
930.174	68.6948
933.098	60.3244
936.019	74.5995
938.94	94.6439
941.859	106.275
944.777	117.952
947.693	133.497
950.61	137.697
953.525	141.889
956.438	141.296
959.35	138.743
962.261	149.545
965.171	161.271
968.08	174.927
970.988	216.373
973.894	254.915
976.801	291.442
979.705	331.629
982.608	344.83
985.51	333.041
988.411	303.046
991.311	267.342
994.209	227.859
997.107	198.974
1000	193.071
1002.9	176.712
1005.79	184.25
1008.68	168.969
1011.58	206.248
1014.47	201.624
1017.36	212.245
1020.25	207.626
1023.13	198.311
1026.02	173.735
1028.9	138.584
1031.79	111.026
1034.67	116.081
1037.55	94.2286
1040.43	92.5462
1043.31	91.8197
1046.19	82.4017
1049.07	77.7563
1051.94	75.008
1054.82	66.4178
1057.69	63.6126
1060.56	50.0883
1063.44	63.73
1066.31	58.8616
1069.17	52.0543
1072.04	54.9632
1074.91	70.4788
1077.77	82.0848
1080.64	99.4899
1083.5	115.909
1086.37	123.592
1089.23	158.43
1092.09	195.18
1094.95	201.898
1097.8	186.335
1100.66	164.985
1103.52	130.136
1106.37	113.772
1109.22	94.4505
1112.08	82.94
1114.93	66.6796
1117.78	76.6283
1120.63	71.969
1123.48	69.211
1126.32	73.2638
1129.17	81.2576
1132.01	85.3586
1134.86	96.3258
1137.7	110.249
1140.54	142.868
1143.38	150.964
1146.22	180.622
1149.06	219.203
1151.89	207.56
1154.73	148.552
1157.56	103.259
1160.4	68.7714
1163.23	63.7601
1166.06	46.967
1168.89	43.9491
1171.72	34.0701
1174.55	19.3092
1177.38	25.1207
1180.2	20.1833
1183.03	23.0826
1185.85	19.1772
1188.67	21.1542
1191.49	15.3253
1194.31	14.412
1197.13	12.5269
1199.95	9.68692
1202.77	9.81182
1205.58	5.03627
1208.4	4.19263
1211.21	8.27286
1214.02	7.44387
1216.84	2.66222
1219.65	7.78726
1222.46	7.96796
1225.27	2.16724
1228.07	1.33233
1230.88	4.49074
1233.68	4.63877
1236.49	12.8198
1239.29	8.92677
1242.09	7.01516
1244.89	6.09034
1247.69	9.18671
1250.49	14.2855
1253.29	15.3431
1256.08	25.467
1258.88	19.404
1261.67	16.3532
1264.47	12.2976
1267.26	13.2902
1270.05	45.4881
1272.84	136.961
1275.63	247.328
1278.42	114.513
1281.2	24.1121
1283.99	19.056
1286.77	15.0207
1289.56	12.0012
1292.34	13.9948
1295.12	7.00933
1297.9	10.0303
1300.68	7.06095
1303.46	4.11149
1306.23	5.17937
1309.01	0.260651
1311.78	2.37469
1314.56	4.50238
1317.33	6.63946
1320.1	4.7596
1322.87	8.93656
1325.64	8.08056
1328.41	1.14219
1331.18	6.36297
1333.94	3.45128
1336.71	2.56192
1339.47	4.72493
1342.24	4.82982
1345	9.01612
1347.76	-0.111729
1350.52	10.2196
1353.28	8.24896
1356.04	11.3987
1358.79	9.40446
1361.55	13.5634
1364.3	12.5702
1367.06	12.5915
1369.81	16.7173
1372.56	21.8652
1375.31	116.378
1378.06	341.28
1380.81	292.961
1383.56	78.3613
1386.3	18.8302
1389.05	14.7327
1391.79	15.7809
1394.53	10.686
1397.28	20.002
1400.02	29.3285
1402.76	24.2656
1405.5	14.0562
1408.23	12.0761
1410.97	4.94183
1413.71	1.92697
1416.44	3.04437
1419.17	5.19787
1421.91	4.25266
1424.64	6.4207
1427.37	8.59269
1430.1	-4.82175
1432.83	4.6285
1435.55	4.72029
1438.28	-1.45054
1441.01	0.716457
1443.73	7.08277
1446.45	6.12341
1449.17	1.99903
1451.89	-4.24459
1454.62	1.04232
1457.33	6.32158
1460.05	1.09281
1462.77	4.25592
1465.48	1.11222
1468.2	2.16488
1470.91	1.11811
1473.63	5.32183
1476.34	-0.964195
1479.05	3.25453
1481.76	-3.02515
1484.47	-5.10243
1487.17	4.38348
1489.88	9.68021
1492.59	3.41749
1495.29	7.68486
1497.99	0.366699
1500.7	3.59174
1503.4	0.488785
1506.1	2.67042
1508.8	3.80673
1511.5	2.82694
1514.19	-1.33504
1516.89	8.3211
1519.59	3.09711
1522.28	9.59435
1524.97	-4.19265
1527.67	4.45657
1530.36	4.55732
1533.05	6.81716
1535.74	5.84307
1538.42	8.07954
1541.11	4.91853
1543.8	8.21473
1546.48	4.99584
1549.16	2.83472
1551.85	6.06266
1554.53	0.615425
1557.21	4.88602
1559.89	8.08153
1562.57	8.04013
1565.25	7.99567
1567.93	10.1051
1570.6	6.82307
1573.28	1.39143
1575.95	-1.87674
1578.62	6.71347
1581.29	0.237728
1583.97	6.68271
1586.64	9.90329
1589.3	1.28249
1591.97	12.0555
1594.64	8.83234
1597.3	4.53578
1599.97	7.79081
1602.63	3.4987
1605.3	2.44886
1607.96	1.40852
1610.62	6.88089
1613.28	6.95356
1615.94	5.94764
1618.59	12.5743
1621.25	6.12033
1623.91	2.92159
1626.56	5.19016
1629.21	10.7607
1631.87	2.04166
1634.52	-3.41485
1637.17	4.34231
1639.82	2.13224
1642.47	7.65814
1645.12	3.24752
1647.76	4.35584
1650.41	4.35117
1653.05	-2.30529
1655.7	10.9731
1658.34	2.07749
1660.98	7.58703
1663.62	9.76932
1666.26	6.4006
1668.9	11.9013
1671.54	9.63671
1674.18	6.2618
1676.81	6.20496
1679.45	11.6965
1682.08	6.08519
1684.71	3.78985
1687.34	4.81765
1689.98	9.17041
1692.61	4.67437
1695.23	6.83381
1697.86	4.58442
1700.49	5.68972
1703.12	9.1238
1705.74	-0.802895
1708.36	9.30416
1710.99	10.3053
1713.61	6.87169
1716.23	6.86035
1718.85	18.083
1721.47	6.91287
1724.09	8.00796
1726.7	10.2461
1729.32	10.2496
1731.94	9.12843
1734.55	10.2507
1737.16	9.12069
1739.77	9.11376
1742.39	13.6156
1745	13.6112
1747.61	-4.47571
1750.21	9.04993
1752.82	9.01549
1755.43	7.84359
1758.03	8.92091
1760.64	8.85534
1763.24	7.65579
1765.84	7.59122
1768.44	0.732201
1771.05	5.20239
1773.64	7.40919
1776.24	3.95431
1778.84	1.63988
1781.44	11.821
1784.03	6.1104
1786.63	2.66967
1789.22	2.64992
1791.81	7.19093
1794.41	16.3084
1797	12.881
1799.59	7.16726
1802.18	10.6046
1804.76	10.6107
1807.35	9.45985
1809.94	17.4941
1812.52	11.7256
1815.11	2.48653
1817.69	8.23008
1820.27	2.42947
1822.85	11.6532
1825.43	2.37514
1828.01	8.14371
1830.59	-2.31694
1833.17	-0.0241547
1835.74	8.09801
1838.32	2.24798
1840.89	15.0288
1843.47	5.65987
1846.04	10.2847
1848.61	14.9123
1851.18	2.00342
1853.75	13.6349
1856.32	12.4121
1858.89	5.33392
1861.45	5.29099
1864.02	0.548908
1866.58	11.0902
1869.15	9.87465
1871.71	13.3552
1874.27	1.50829
1876.83	8.51578
1879.39	8.44487
1881.95	13.0984
1884.51	11.8398
1887.07	8.21556
1889.63	12.8429
1892.18	10.366
1894.74	13.7978
1897.29	6.59614
1899.84	6.50108
1902.39	6.43301
1904.94	5.19581
1907.49	14.6309
1910.04	3.92296
1912.59	8.66283
1915.14	13.4308
1917.68	8.65418
1920.23	12.1422
1922.77	8.49029
1925.32	4.85107
1927.86	5.99137
1930.4	7.13275
1932.94	11.8715
1935.48	3.41096
1938.02	6.94202
1940.56	0.855965
1943.09	4.37777
1945.63	9.10083
1948.16	7.80521
1950.7	11.3152
1953.23	17.2284
1955.76	0.246094
1958.29	10.9714
1960.82	12.0544
1963.35	13.1329
1965.88	4.565
1968.41	16.4737
1970.93	4.27195
1973.46	13.7539
1975.98	11.1901
1978.51	5.01617
1981.03	6.06416
1983.55	7.11234
1986.07	6.959
1988.59	6.8083
1991.11	6.65899
1993.63	2.90561
1996.15	5.16685
1998.66	3.82688
2001.18	13.3104
2003.69	3.5647
2006.2	5.85015
2008.72	4.53055
2011.23	10.4393
2013.74	9.1274
2016.25	7.81486
2018.76	8.8997
2021.27	8.78327
2023.77	12.2985
2026.28	11.0005
2028.78	7.29306
2031.29	-1.24352
2033.79	1.09869
2036.29	5.8662
2038.79	8.22014
2041.3	6.94188
2043.79	10.5209
2046.29	3.17056
2048.79	10.4107
2051.29	9.13579
2053.78	16.3603
2056.28	4.0948
2058.77	11.3633
2061.27	7.64056
2063.76	10.0318
2066.25	5.07623
2068.74	9.92085
2071.23	2.48939
2073.72	11.0303
2076.21	14.6607
2078.69	4.7401
2081.18	5.89722
2083.66	3.3456
2086.15	10.6644
2088.63	11.8037
2091.11	4.30189
2093.59	15.3718
2096.07	11.6045
2098.55	0.384148
2101.03	9.02076
2103.51	8.97553
2105.99	8.93494
2108.46	5.1572
2110.94	2.62324
2113.41	13.8518
2115.89	7.57372
2118.36	5.04127
2120.83	5.01353
2123.3	10.0184
2125.77	8.73161
2128.24	4.91196
2130.71	1.07662
2133.17	13.6812
2135.64	0.964218
2138.11	2.16975
2140.57	9.72561
2143.03	7.12453
2145.49	8.32848
2147.96	9.52551
2150.42	3.06305
2152.88	10.6187
2155.34	10.5178
2157.79	6.57891
2160.25	16.6832
2162.71	2.50293
2165.16	11.3159
2167.62	9.8961
2170.07	2.08927
2172.52	1.96686
2174.97	12.0832
2177.43	6.83963
2179.88	-0.984398
2182.32	11.6689
2184.77	5.10575
2187.22	4.95273
2189.67	8.65144
2192.11	8.52048
2194.56	5.83131
2197	3.15447
2199.44	4.33334
2201.89	2.95708
2204.33	13.1446
2206.77	10.505
2209.21	6.58367
2211.64	-5.06562
2214.08	1.31242
2216.52	-0.0310593
2218.95	10.2595
2221.39	3.75357
2223.82	14.0769
2226.26	8.8569
2228.69	10.1196
2231.12	4.8818
2233.55	8.74797
2235.98	4.79932
2238.41	7.36935
2240.84	15.1737
2243.26	5.98417
2245.69	9.87994
2248.12	4.59844
2250.54	7.18616
2252.96	9.77727
2255.39	7.10637
2257.81	7.07462
2260.23	4.39986
2262.65	4.3549
2265.07	2.97488
2267.49	6.88303
2269.9	0.18013
2272.32	-2.56018
2274.74	6.63933
2277.15	2.55776
2279.57	5.1101
2281.98	7.65189
2284.39	8.85298
2286.8	3.39397
2289.21	1.92859
2291.62	12.4359
2294.03	5.64433
2296.44	9.50664
2298.84	6.73021
2301.25	-0.0385971
2303.66	9.19225
2306.06	11.784
2308.46	-0.292175
2310.87	14.347
2313.27	6.28164
2315.67	7.58421
2318.07	10.2414
2320.47	10.2183
2322.87	20.9472
2325.26	12.8694
2327.66	-3.3158
2330.06	0.705193
2332.45	7.45202
2334.85	7.45312
2337.24	10.17
2339.63	-4.76026
2342.02	7.47994
2344.41	-2.03904
2346.8	7.54012
2349.19	-0.64183
2351.58	0.737762
2353.97	6.22956
2356.35	-7.52225
2358.74	3.45448
2361.12	-2.11261
2363.51	-3.5431
2365.89	0.551323
2368.27	-0.874306
2370.65	0.460724
2373.03	4.56509
2375.41	5.90409
2377.79	-6.62841
2380.17	5.79376
2382.55	5.71935
2384.92	4.23669
2387.3	1.35735
2389.67	2.64082
2392.05	-0.263962
2394.42	10.7463
2396.79	7.82413
2399.16	9.07519
2401.53	4.76265
2403.9	4.61317
2406.27	-1.1008
2408.64	4.34503
2411.01	-2.69091
2413.37	7.02739
2415.74	14.0644
2418.1	11.433
2420.47	5.90163
2422.83	4.46918
2425.19	-2.6449
2427.55	-4.09103
2429.91	5.75336
2432.27	1.51615
2434.63	9.99954
2436.99	10.0244
2439.34	11.4649
2441.7	1.54825
2444.05	5.82225
2446.41	-2.70642
2448.76	11.5614
2451.11	7.30348
2453.47	-4.1254
2455.82	0.170418
2458.17	4.4819
2460.51	-2.69003
2462.86	0.190773
2465.21	-1.24673
2467.56	-1.24961
2469.9	3.07748
2472.25	10.3034
2474.59	-2.72742
2476.94	0.167412
2479.28	-1.28802
2481.62	-1.2994
2483.96	1.59512
2486.3	10.3129
2488.64	3.00102
2490.98	10.2748
2493.32	-1.43983
2495.65	11.7057
2497.99	4.36363
2500.32	1.40131
2502.66	10.1708
2504.99	-1.61294
2507.32	1.27911
2509.66	-0.243744
2511.99	-0.302834
2514.32	6.99867
2516.65	3.98949
2518.98	6.88885
2521.3	11.279
2523.63	0.899902
2525.96	8.24188
2528.28	3.76003
2530.61	8.15646
2532.93	2.19704
2535.25	-5.24957
2537.57	2.14382
2539.89	-2.33604
2542.22	8.05688
2544.53	11.0255
2546.85	3.57301
2549.17	8.04334
2551.49	6.54676
2553.8	6.54123
2556.12	9.51657
2558.43	6.49487
2560.75	9.48817
2563.06	10.9906
2565.37	8.00031
2567.68	1.99296
2569.99	2.00912
2572.3	8.06548
2574.61	5.06243
2576.92	8.09828
2579.23	3.55328
2581.53	6.5705
2583.84	-2.57487
2586.14	4.96638
2588.45	9.46688
2590.75	13.9388
2593.05	4.75573
2595.35	3.18848
2597.66	6.20795
2599.96	10.7456
2602.26	4.60392
2604.55	4.55432
2606.85	4.50061
2609.15	-3.19302
2611.44	-0.213898
2613.74	7.35656
2616.03	1.16681
2618.33	10.2848
2620.62	2.56387
2622.91	8.62674
2625.2	2.44387
2627.49	10.0601
2629.78	5.43536
2632.07	13.1174
2634.36	10.0656
2636.64	5.49137
2638.93	5.55618
2641.22	-3.65512
2643.5	8.77545
2645.78	5.75556
2648.07	15.1324
2650.35	13.6514
2652.63	9.05683
2654.91	16.8716
2657.19	1.26851
2659.47	12.1832
2661.75	2.78704
2664.03	4.31498
2666.3	13.6599
2668.58	8.95133
2670.85	7.37843
2673.13	7.40619
2675.4	9.04507
2677.67	9.18262
2679.95	9.37871
2682.22	12.7107
2684.49	9.70129
2686.76	14.6322
2689.03	19.5784
2691.29	3.74895
2693.56	10.2515
2695.83	16.6362
2698.09	10.2409
2700.36	7.06001
2702.62	15.1068
2704.89	10.2974
2707.15	13.5239
2709.41	13.5273
2711.67	3.85442
2713.93	2.24094
2716.19	3.88811
2718.45	21.6825
2720.7	0.663597
2722.96	7.1396
2725.22	11.9834
2727.47	20.0725
2729.73	7.05689
2731.98	-12.4884
2734.23	-2.79787
2736.49	5.26543
2738.74	11.7015
2740.99	8.4132
2743.24	13.2664
2745.49	11.6227
2747.73	3.46982
2749.98	14.9013
2752.23	8.46885
2754.47	11.8027
2756.72	11.8311
2758.96	2.00048
2761.21	6.89921
2763.45	6.90025
2765.69	3.63051
2767.93	5.29723
2770.17	10.2399
2772.41	18.5066
2774.65	13.6089
2776.89	3.76243
2779.13	3.82423
2781.36	7.23772
2783.6	10.6604
2785.84	12.4362
2788.07	4.21822
2790.3	9.31686
2792.54	-0.615173
2794.77	6.15457
2797	6.21906
2799.23	-2.11043
2801.46	2.9701
2803.69	11.4162
2805.92	16.5029
2808.14	9.79411
2810.37	13.1902
2812.59	9.8328
2814.82	11.5215
2817.04	6.44686
2819.27	11.5238
2821.49	16.6124
2823.71	11.5447
2825.93	8.16698
2828.15	14.9666
2830.37	11.5763
2832.59	14.9793
2834.81	6.46854
2837.03	-5.45734
2839.24	13.2768
2841.46	13.2799
2843.67	1.34042
2845.89	3.0622
2848.1	6.49895
2850.31	23.6432
2852.53	3.14942
2854.74	13.5
2856.95	8.42131
2859.16	15.3641
2861.37	12.0074
2863.57	1.75768
2865.78	22.5817
2867.99	12.3321
2870.19	-8.3489
2872.4	5.61111
2874.6	19.6175
2876.81	12.7825
2879.01	12.9082
2881.21	9.54963
2883.41	6.18738
2885.61	11.5844
2887.81	9.96795
2890.01	15.3754
2892.21	-3.87071
2894.41	-0.239105
2896.6	-3.64466
2898.8	15.9716
2901	1.93213
2903.19	18.0381
2905.38	14.6014
2907.58	11.1507
2909.77	0.541496
2911.96	11.3254
2914.15	14.9673
2916.34	6.07166
2918.53	7.93261
2920.72	2.62009
2922.91	15.2776
2925.09	6.37582
2927.28	13.6884
2929.47	11.9957
2931.65	12.1118
2933.83	15.8262
2936.02	23.1578
2938.2	-2.18495
2940.38	-5.78928
2942.56	-0.304558
2944.74	16.1009
2946.92	10.6525
2949.1	-2.09088
2951.28	8.86256
2953.46	16.1797
2955.63	8.89445
2957.81	-11.197
2959.98	12.582
2962.16	16.2682
2964.33	7.14098
2966.5	14.5092
2968.68	10.8856
2970.85	9.09527
2973.02	23.8503
2975.19	3.67117
2977.36	25.817
2979.52	22.1939
2981.69	5.65908
2983.86	22.3628
2986.03	0.267876
2988.19	7.76353
2990.36	-8.8278
2992.52	9.83631
2994.68	22.9673
2996.85	-1.10735
2999.01	8.33697
3001.17	21.5555
3003.33	21.7239
3005.49	10.6481
3007.65	22.0701
3009.8	10.9489
3011.96	31.8007
3014.12	24.4366
3016.27	17.0622
3018.43	21.0353
3020.58	11.7402
3022.74	15.7025
3024.89	15.8497
3027.04	14.068
3029.19	6.54404
3031.34	20.0149
3033.49	18.1932
3035.64	10.6053
3037.79	16.4003
3039.94	1.14456
3042.09	18.4971
3044.23	22.4098
3046.38	26.324
3048.52	24.4647
3050.67	28.3832
3052.81	14.9451
3054.95	20.803
3057.09	32.4727
3059.24	38.3542
3061.38	28.7555
3063.51	28.8295
3065.65	26.9659
3067.79	36.7451
3069.93	32.941
3072.07	33.0203
3074.2	42.8376
3076.34	42.9353
3078.47	52.7855
3080.61	52.893
3082.74	27.6027
3084.87	33.581
3087	21.9596
3089.14	43.6626
3091.27	37.9558
3093.39	38.1466
3095.52	36.3878
3097.65	40.542
3099.78	42.731
3101.91	37.021
3104.03	47.17
3106.16	43.4625
3108.28	31.7847
3110.41	57.9639
3112.53	44.2895
3114.65	48.5678
3116.77	48.8578
3118.89	43.1186
3121.01	35.3618
3123.13	49.783
3125.25	42.0247
3127.37	50.4636
3129.49	44.7302
3131.61	45.1003
3133.72	51.5944
3135.84	49.9266
3137.95	64.6571
3140.06	54.7554
3142.18	69.5281
3144.29	63.6898
3146.4	49.534
3148.51	64.348
3150.62	70.8759
3152.73	69.0589
3154.84	67.2285
3156.95	67.4699
3159.06	61.4421
3161.16	53.3074
3163.27	68.208
3165.37	60.0411
3167.48	68.6533
3169.58	73.0647
3171.69	54.356
3173.79	73.5459
3175.89	75.8284
3177.99	78.0887
3180.09	63.4038
3182.19	74.093
3184.29	65.7153
3186.39	78.5229
3188.49	80.6927
3190.58	80.8005
3192.68	49.0728
3194.77	61.951
3196.87	79.1542
3198.96	55.9631
3201.06	77.6169
3203.15	58.6898
3205.24	65.4234
3207.33	55.0396
3209.42	66.1291
3211.51	49.2412
3213.6	51.7399
3215.69	47.772
3217.78	67.6424
3219.86	57.1295
3221.95	61.8263
3224.04	59.9905
3226.12	58.1559
3228.2	67.264
3230.29	58.8255
3232.37	56.9663
3234.45	50.6532
3236.53	44.3139
3238.61	51.2457
3240.7	62.6638
3242.77	45.2583
3244.85	52.3076
3246.93	43.708
3249.01	37.3068
3251.08	46.4832
3253.16	35.5042
3255.23	44.6514
3257.31	40.3354
3259.38	40.5828
3261.46	47.6024
3263.53	45.6375
3265.6	57.2832
3267.67	46.4834
3269.74	51.2919
3271.81	24.3732
3273.88	36.0184
3275.95	40.7298
3278.02	15.7386
3280.08	36.4741
3282.15	36.6293
3284.21	34.4914
3286.28	30.0516
3288.34	39.3897
3290.41	30.337
3292.47	21.2605
3294.53	37.5151
3296.59	33.0359
3298.65	35.4834
3300.71	24.1032
3302.77	42.7505
3304.83	22.0699
3306.89	29.1666
3308.95	20.0287
3311	27.1233
3313.06	27.2471
3315.11	32.0451
3317.17	34.5125
3319.22	39.3375
3321.27	37.1798
3323.33	30.3722
3325.38	30.5635
3327.43	23.7479
3329.48	23.9474
3331.53	38.2994
3333.58	43.3108
3335.63	29.4636
3337.67	22.6558
3339.72	32.3255
3341.77	30.1509
3343.81	18.4648
3345.86	47.0944
3347.9	11.6091
3349.95	30.7611
3351.99	54.6989
3354.03	31.0476
3356.07	21.6938
3358.11	24.2559
3360.15	33.9881
3362.19	31.7925
3364.23	20.0004
3366.27	36.9412
3368.31	25.1274
3370.34	30.1072
3372.38	30.27
3374.42	28.0124
3376.45	35.3693
3378.48	18.6278
3380.52	35.6258
3382.55	23.6812
3384.58	21.3778
3386.61	19.0679
3388.64	31.2582
3390.68	7.16644
3392.7	14.5152
3394.73	33.9975
3396.76	24.438
3398.79	14.868
3400.82	46.534
3402.84	32.0698
3404.87	34.5917
3406.89	22.5387
3408.92	22.6311
3410.94	12.9755
3412.96	25.2203
3414.98	15.5633
3417	37.5658
3419.03	30.3432
3421.05	37.7353
3423.06	35.3754
3425.08	35.4588
3427.1	16.0383
3429.12	18.5831
3431.14	21.1407
3433.15	9.04146
3435.17	26.2951
3437.18	19.1011
3439.2	21.7075
3441.21	24.3208
3443.22	26.9507
3445.23	24.6934
3447.25	10.1462
3449.26	5.41602
3451.27	15.4782
3453.28	13.2311
3455.28	18.4182
3457.29	16.2084
3459.3	28.8974
3461.31	14.2744
3463.31	19.5349
3465.32	22.3185
3467.32	0.106468
3469.33	22.894
3471.33	25.68
3473.33	25.8912
3475.34	3.5069
3477.34	26.4114
3479.34	11.5364
3481.34	11.7752
3483.34	14.5405
3485.34	4.63877
3487.33	30.2345
3489.33	17.7766
3491.33	2.73911
3493.32	20.7802
3495.32	8.23597
3497.32	10.9785
3499.31	16.2749
3501.3	1.0973
3503.3	19.1729
3505.29	19.3342
3507.28	22.0375
3509.27	17.0157
3511.26	19.6743
3513.25	12.0589
3515.24	7.006
3517.23	25.0758
3519.22	14.88
3521.2	9.81938
3523.19	17.6189
3525.18	17.7153
3527.16	2.37273
3529.15	7.59336
3531.13	2.55149
3533.11	25.8969
3535.1	23.5017
3537.08	10.7929
3539.06	11.0038
3541.04	21.5488
3543.02	3.59116
3545	21.9036
3546.98	14.279
3548.96	27.4127
3550.93	14.5472
3552.91	19.8027
3554.89	14.696
3556.86	25.2166
3558.84	27.9523
3560.81	17.6794
3562.78	12.6173
3564.76	7.55809
3566.73	15.5623
3568.7	15.7772
3570.67	29.0504
3572.64	24.0159
3574.61	29.4739
3576.58	11.3289
3578.55	16.8144
3580.52	38.1235
3582.48	33.1378
3584.45	17.5769
3586.41	25.7688
3588.38	10.1455
3590.35	34.2598
3592.31	21.2565
3594.27	16.1949
3596.23	27.1028
3598.2	11.3563
3600.16	27.603
3602.12	19.8219
3604.08	17.3731
3606.04	-1.17894
3608	20.4759
3609.95	9.92702
3611.91	-0.644623
3613.87	15.6943
3615.83	10.4865
3617.78	13.366
3619.74	-2.66467
3621.69	16.3699
3623.64	8.37098
3625.6	16.5769
3627.55	0.452087
3629.5	8.65499
3631.45	11.4339
3633.4	19.6327
3635.35	6.19854
3637.3	19.8505
3639.25	11.8649
3641.2	17.4557
3643.15	-6.78728
3645.09	4.24831
3647.04	15.3365
3648.98	15.4251
3650.93	10.1015
3652.87	10.2325
3654.82	7.62322
3656.76	5.01122
3658.7	10.5773
3660.64	7.95895
3662.58	21.7075
3664.53	16.3603
3666.47	21.9499
3668.4	13.8809
3670.34	5.79549
3672.28	8.64857
3674.22	6.05394
3676.16	6.20961
3678.09	6.38007
3680.03	17.5463
3681.96	23.2546
3683.9	6.97395
3685.83	7.20363
3687.76	-11.8849
3689.69	13.1961
3691.63	24.5131
3693.56	8.12848
3695.49	16.66
3697.42	0.228622
3699.35	11.5724
3701.28	28.5243
3703.2	17.5983
3705.13	9.4609
3707.06	18.0884
3708.98	-1.27413
3710.91	10.1611
3712.83	10.3916
3714.76	27.4778
3716.68	19.2521
3718.6	13.8174
3720.53	19.6505
3722.45	5.71979
3724.37	20.0212
3726.29	20.1942
3728.21	0.549438
3730.13	14.8787
3732.05	12.2261
3733.97	23.7637
3735.88	21.1127
3737.8	7.07201
3739.72	4.38969
3741.63	10.2438
3743.55	13.255
3745.46	13.4109
3747.38	27.8403
3749.29	7.98378
3751.2	25.2671
3753.11	16.8099
3755.02	-0.25148
3756.93	2.70767
3758.84	17.1183
3760.75	20.0713
3762.66	11.5643
3764.57	23.1106
3766.48	-8.33423
3768.39	6.0948
3770.29	17.6742
3772.2	12.05
3774.1	9.2907
3776.01	12.2732
3777.91	12.3944
3779.81	9.65132
3781.72	15.5485
3783.62	12.8274
3785.52	10.1032
3787.42	24.6735
3789.32	16.1652
3791.22	16.3112
3793.12	19.3624
3795.02	5.07637
3796.92	28.4192
3798.81	11.227
3800.71	14.3168
3802.61	5.79624
3804.5	29.2528
3806.4	9.0964
3808.29	12.2126
3810.18	12.4104
3812.08	-7.84862
3813.97	4.01354
3815.86	10.0428
3817.75	7.29477
3819.64	1.60435
3821.53	16.4461
3823.42	4.86556
3825.31	13.8341
3827.2	28.7078
3829.09	11.2185
3830.97	20.2395
3832.86	14.5262
3834.75	11.75
3836.63	-2.86182
3838.52	0.245911
3840.4	6.31607
3842.28	3.56025
3844.17	-5.19612
3846.05	-11.0135
3847.93	24.7045
3849.81	15.9046
3851.69	21.9538
3853.57	10.1574
3855.45	4.30781
3857.33	13.2994
3859.21	16.3319
3861.08	28.3014
3862.96	10.5565
3864.84	22.6056
3866.71	10.8968
3868.59	26.0366
3870.46	11.3189
3872.34	11.4195
3874.21	5.54361
3876.08	17.6009
3877.95	17.7082
3879.82	20.8076
3881.69	11.9489
3883.56	12.0664
3885.44	9.19729
3887.3	15.3162
3889.17	15.4528
3891.04	6.60259
3892.91	15.7599
3894.77	21.9649
3896.64	19.1451
3898.51	13.3023
3900.37	19.4972
3902.23	7.62374
3904.1	7.78214
3905.96	16.9996
3907.82	11.1233
3909.69	5.24817
3911.55	2.40501
3913.41	17.7132
3915.27	2.76579
3917.13	9.02684
3918.99	6.20582
3920.84	18.59
3922.7	24.921
3924.56	22.1188
3926.42	-5.09606
3928.27	-1.84312
3930.13	13.6388
3931.98	4.66509
3933.84	20.1502
3935.69	17.2753
3937.54	14.3921
3939.4	17.658
3941.25	2.51762
3943.1	21.1821
3944.95	12.1777
3946.8	21.6351
3948.65	12.607
3950.5	9.72068
3952.35	16.0871
3954.19	-2.26214
3956.04	7.19122
3957.89	1.17844
3959.73	22.9994
3961.58	23.1634
3963.42	7.84258
3965.27	20.3873
3967.11	20.5321
3968.96	2.06967
3970.8	17.703
3972.64	8.54757
3974.48	11.7947
3976.32	8.83961
3978.16	2.77843
3980	15.3173
3981.84	12.341
3983.68	15.5715
3985.52	-2.89951
3987.36	18.942
3989.19	9.78072
3991.03	16.1411
3992.86	13.2121
3994.7	10.2926
3996.53	7.38731
3998.37	4.48973
