#Acq. time (s)=	60
#Accumulations=	2
#Range (cm-¹)=	100...4000
#Windows=	1
#Auto scanning=	Off
#Autofocus=	Off
#Macrospot=	Off
#AutoExposure=	Off
#Spike filter=	Multiple accum.
#Delay time (s)=	2
#Binning=	1
#Readout mode=	Signal
#DeNoise=	Off
#ICS correction=	On
#Dark correction=	Off
#Inst. Process=	Off
#Detector Gain=	Best Dynamic
#Detector ADC=	50 kHz HS
#Detector temperature (°C)=	-60.09
#Instrument=	LabRAM HR Evol
#Detector=	SIN-EM FIVIS
#Objective=	x100_VIS
#Grating=	150 (500nm)
#ND Filter=	100%
#Laser=	633nm_Edge
#Hole=	49.98
#Temperature=	0
#Range=	Visible
#StageXY=	75x50mm Scan+
#StageZ=	Z motor
#X (µm)=	0
#Y (µm)=	0
#Z (µm)=	-270
#Full time(mm:ss)=	2:04
#Project=	21_11_04
#Sample=	BU19w
#Site=	
#Title=	BU19w-E-FF11-FI09-L_150 (500nm)_633nm_Edge_100%_x100_VIS_H50um_60sX2
#Remark=	
#Date=	04.11.2021 16:16
#Acquired=	04.11.2021 16:16:57
#Base:Fit=	16.12.2021 17:39:50
#Base:Edit=	16.12.2021 17:51:32
#Base:Edit=	16.12.2021 17:51:33
#Base:Edit=	16.12.2021 17:51:33
#Base:Edit=	16.12.2021 17:51:34
#Base:Edit=	16.12.2021 17:51:34
#Base:Edit=	16.12.2021 17:51:35
#Base:Edit=	16.12.2021 17:51:35
#Base:Edit=	16.12.2021 17:51:36
#Base:Edit=	16.12.2021 17:51:36
#Base:Edit=	16.12.2021 17:51:37
#Base:Edit=	16.12.2021 17:51:37
#Base:Sub=	16.12.2021 17:51:40
102.881	189.825
106.139	156.007
109.397	142.235
112.653	131.324
115.908	135.689
119.161	125.69
122.414	119.532
125.664	130.573
128.914	147.379
132.162	116.327
135.409	123.527
138.654	167.057
141.898	139.79
145.14	124.052
148.383	143.725
151.622	157.692
154.861	186.083
158.098	197.255
161.335	195.043
164.569	149.716
167.801	101.466
171.034	60.8504
174.264	57.593
177.494	46.6323
180.721	20.3272
183.949	24.6473
187.173	15.5433
190.396	14.0751
193.62	16.4405
196.84	9.28162
200.061	19.3668
203.279	-0.0362091
206.496	10.1443
209.712	19.3515
212.926	21.8842
216.139	35.8752
219.352	68.9288
222.562	98.1439
225.772	186.376
228.979	274.386
232.185	265.27
235.392	218.191
238.595	133.16
241.797	82.4263
244.999	62.2213
248.199	58.1595
251.397	57.8684
254.595	52.8238
257.791	62.9912
260.985	89.301
264.178	70.078
267.371	81.2299
270.561	69.6387
273.75	88.4103
276.939	87.278
280.125	95.6087
283.31	95.3794
286.494	77.128
289.678	39.914
292.859	33.9637
296.039	42.2243
299.217	38.1807
302.396	36.027
305.572	66.9589
308.746	101.65
311.919	184.497
315.093	294.665
318.263	416.079
321.433	507.331
324.601	405.179
327.768	308.709
330.935	199.099
334.099	128.172
337.262	100.635
340.423	86.3087
343.584	85.1814
346.743	75.5424
349.902	102.668
353.058	100.542
356.213	121.939
359.367	121.656
362.52	103.486
365.671	88.1511
368.821	54.0382
371.971	47.2048
375.119	24.4039
378.265	19.4644
381.41	11.7165
384.553	10.5775
387.696	1.06425
390.837	14.1031
393.976	12.1705
397.116	11.2037
400.253	-0.989517
403.389	3.71428
406.524	17.846
409.657	19.7353
412.789	36.7065
415.92	29.0811
419.05	51.7291
422.178	60.1478
425.305	88.3291
428.431	104.001
431.555	111.076
434.678	97.3839
437.8	110.083
440.921	93.5838
444.04	109.055
447.158	113.194
450.275	138.842
453.391	138.244
456.505	133.948
459.618	96.1168
462.73	62.1487
465.84	49.722
468.949	27.0592
472.057	37.9741
475.164	34.9557
478.27	33.8252
481.374	42.9268
484.477	37.1114
487.579	36.8839
490.679	49.704
493.778	50.4195
496.876	64.1685
499.973	70.4691
503.068	84.2534
506.162	95.2388
509.255	118.36
512.346	108.853
515.436	118.949
518.525	110.411
521.613	114.059
524.7	110.246
527.785	108.326
530.869	101.748
533.952	88.6059
537.033	91.4129
540.113	72.5147
543.192	75.2147
546.27	61.8373
549.347	66.2872
552.423	50.9317
555.497	56.3234
558.568	38.0254
561.64	41.3647
564.711	31.466
567.78	30.0223
570.848	32.3052
573.915	34.5474
576.979	48.9456
580.043	39.8893
583.107	50.5334
586.169	67.7003
589.228	76.4656
592.287	91.81
595.345	94.1146
598.402	94.6259
601.458	98.0447
604.511	89.4037
607.565	109.692
610.617	112.297
613.667	109.318
616.716	105.464
619.764	90.3401
622.811	86.4668
625.856	63.7838
628.9	61.6621
631.944	55.678
634.986	59.9891
638.026	57.6221
641.066	53.3124
644.104	59.2883
647.14	79.3965
650.177	69.3791
653.211	57.435
656.244	64.2487
659.276	49.4969
662.308	42.26
665.336	43.4619
668.365	28.7994
671.393	21.6845
674.418	18.4052
677.443	15.1102
680.467	10.8656
683.489	2.92421
686.511	10.8589
689.53	8.55977
692.549	6.27553
695.567	12.4108
698.582	10.115
701.598	5.92658
704.611	9.23013
707.624	5.93815
710.635	3.55038
713.646	5.7698
716.655	7.04892
719.662	-1.07472
722.669	0.208092
725.674	0.516953
728.679	2.66916
731.681	5.74689
734.683	4.134
737.683	15.6149
740.683	3.7107
743.681	4.90156
746.678	7.03407
749.673	12.8967
752.669	12.2573
755.661	6.95116
758.654	9.15105
761.645	9.53571
764.635	10.8877
767.623	19.7455
770.611	17.3833
773.597	16.89
776.582	7.92129
779.565	9.24944
782.549	8.67157
785.53	9.9545
788.511	14.0532
791.489	16.253
794.466	5.22697
797.444	17.7564
800.419	20.8223
803.394	9.72472
806.366	18.4041
809.339	17.6515
812.309	14.0504
815.278	24.5342
818.247	16.2032
821.214	25.6987
824.18	16.4305
827.145	19.3392
830.108	24.1373
833.072	13.1142
836.033	25.4824
838.992	28.549
841.952	21.3825
844.909	30.1024
847.865	27.5956
850.822	32.6054
853.776	32.9345
856.728	32.33
859.681	41.1483
862.631	45.2728
865.58	52.2389
868.528	59.2189
871.476	59.5525
874.422	56.0451
877.366	63.8721
880.311	66.947
883.253	68.1021
886.194	69.2246
889.134	74.1135
892.074	63.7972
895.012	66.7461
897.948	63.006
900.883	59.2164
903.818	55.4139
906.751	59.1707
909.683	62.9005
912.614	53.4348
915.543	63.7517
918.473	61.8896
921.4	61.9436
924.326	73.3197
927.251	76.2762
930.174	93.4128
933.098	98.3354
936.019	115.596
938.94	128.289
941.859	156.17
944.777	174.689
947.693	187.627
950.61	203.465
953.525	202.185
956.438	211.35
959.35	204.235
962.261	222.882
965.171	217.545
968.08	250.525
970.988	310.346
973.894	351.895
976.801	409.625
979.705	419.124
982.608	450.551
985.51	439.695
988.411	403.918
991.311	354.779
994.209	290.408
997.107	267.243
1000	255.608
1002.9	245.931
1005.79	250.626
1008.68	245.867
1011.58	272.739
1014.47	303.501
1017.36	301.811
1020.25	313.526
1023.13	273.773
1026.02	247.428
1028.9	211.466
1031.79	182.139
1034.67	159.491
1037.55	151.232
1040.43	160.293
1043.31	141.383
1046.19	130.162
1049.07	130.464
1051.94	125.875
1054.82	105.731
1057.69	105.9
1060.56	105.05
1063.44	100.268
1066.31	97.3466
1069.17	97.341
1072.04	110.934
1074.91	116.733
1077.77	138.026
1080.64	151.524
1083.5	172.763
1086.37	199.796
1089.23	249.141
1092.09	298.45
1094.95	309.973
1097.8	316.624
1100.66	272.002
1103.52	217.778
1106.37	175.317
1109.22	159.866
1112.08	133.869
1114.93	126.426
1117.78	119.974
1120.63	131.924
1123.48	122.416
1126.32	116.772
1129.17	149.232
1132.01	172.97
1134.86	180.13
1137.7	205.909
1140.54	226.871
1143.38	266.486
1146.22	313.905
1149.06	339.784
1151.89	331.14
1154.73	249.48
1157.56	174.605
1160.4	118.398
1163.23	99.5274
1166.06	94.4364
1168.89	65.8082
1171.72	68.6008
1174.55	65.5037
1177.38	55.5542
1180.2	50.5346
1183.03	37.7291
1185.85	44.514
1188.67	28.8677
1191.49	30.8088
1194.31	36.7067
1197.13	31.8652
1199.95	23.1398
1202.77	19.3379
1205.58	13.5718
1208.4	21.5773
1211.21	14.8242
1214.02	17.9394
1216.84	16.1327
1219.65	14.3261
1222.46	13.5111
1225.27	11.6946
1228.07	11.8627
1230.88	10.0139
1233.68	6.13204
1236.49	11.2695
1239.29	3.31098
1242.09	11.4332
1244.89	12.4834
1247.69	10.4826
1250.49	9.46276
1253.29	12.4801
1256.08	18.4964
1258.88	14.3836
1261.67	6.21232
1264.47	10.1527
1267.26	12.076
1270.05	17.0034
1272.84	9.83076
1275.63	9.70247
1278.42	12.5794
1281.2	2.41645
1283.99	11.3178
1286.77	8.20418
1289.56	12.1073
1292.34	27.0159
1295.12	2.95916
1297.9	4.90657
1300.68	6.86066
1303.46	2.84383
1306.23	6.84974
1309.01	0.874847
1311.78	3.94421
1314.56	7.03263
1317.33	6.11075
1320.1	3.17894
1322.87	2.26413
1325.64	8.43647
1328.41	1.46066
1331.18	7.65962
1333.94	2.67344
1336.71	-4.37639
1339.47	13.0423
1342.24	6.97228
1345	5.98804
1347.76	2.94466
1350.52	6.04237
1353.28	2.9806
1356.04	7.08874
1358.79	13.2429
1361.55	4.99946
1364.3	7.01277
1367.06	26.4815
1369.81	23.3307
1372.56	33.5315
1375.31	35.5146
1378.06	20.0358
1380.81	11.7475
1383.56	16.8057
1386.3	9.54584
1389.05	2.28921
1391.79	2.23304
1394.53	7.32304
1397.28	6.30464
1400.02	-0.885216
1402.76	2.19497
1405.5	6.31606
1408.23	-2.94096
1410.97	0.163383
1413.71	1.21637
1416.44	4.3464
1419.17	-3.896
1421.91	3.38191
1424.64	3.42567
1427.37	1.39144
1430.1	-1.68346
1432.83	1.47656
1435.55	3.60071
1438.28	3.64207
1441.01	-5.7283
1443.73	1.62981
1446.45	4.80516
1449.17	0.624878
1451.89	6.90948
1454.62	1.64276
1457.33	2.65519
1460.05	11.0064
1462.77	-2.70481
1465.48	3.52679
1468.2	3.45307
1470.91	1.28088
1473.63	0.162621
1476.34	-0.94635
1479.05	-3.09344
1481.76	0.00994873
1484.47	2.07161
1487.17	8.34795
1489.88	-0.0784149
1492.59	-0.08815
1495.29	4.12739
1497.99	3.0826
1500.7	6.26628
1503.4	3.12399
1506.1	6.3266
1508.8	12.7269
1511.5	-2.05927
1514.19	-0.949188
1516.89	6.55252
1519.59	1.30032
1522.28	4.56837
1524.97	-2.83428
1527.67	1.51075
1530.36	2.6589
1533.05	-2.62508
1535.74	13.5942
1538.42	2.8739
1541.11	8.31652
1543.8	-5.71541
1546.48	9.39713
1549.16	6.0993
1551.85	6.01867
1554.53	1.5798
1557.21	10.0937
1559.89	6.73618
1562.57	8.78403
1565.25	-5.35337
1567.93	9.62963
1570.6	5.20015
1573.28	6.16193
1575.95	2.82616
1578.62	8.1297
1581.29	9.13504
1583.97	4.76339
1586.64	2.55071
1589.3	7.88219
1591.97	7.84066
1594.64	-2.96931
1597.3	7.79244
1599.97	13.1754
1602.63	9.94022
1605.3	17.5234
1607.96	12.1526
1610.62	15.4594
1613.28	5.7667
1615.94	12.3737
1618.59	16.8356
1621.25	10.3938
1623.91	7.20689
1626.56	12.7763
1629.21	13.9716
1631.87	12.9636
1634.52	7.52138
1637.17	13.0775
1639.82	17.4702
1642.47	16.3522
1645.12	11.9283
1647.76	17.4463
1650.41	14.1023
1653.05	7.42485
1655.7	11.8105
1658.34	6.2076
1660.98	20.5532
1663.62	8.28616
1666.26	13.7527
1668.9	14.7804
1671.54	10.2608
1674.18	10.1765
1676.81	2.31689
1679.45	3.3361
1682.08	9.87875
1684.71	7.53468
1687.34	2.97599
1689.98	12.8212
1692.61	6.07115
1695.23	2.66332
1697.86	1.49668
1700.49	10.3499
1703.12	14.9464
1705.74	10.6381
1708.36	10.7532
1710.99	9.46954
1713.61	10.4547
1716.23	5.97614
1718.85	7.15676
1721.47	10.5236
1724.09	7.13206
1726.7	8.24795
1729.32	4.88574
1731.94	2.63813
1734.55	1.50729
1737.16	9.37257
1739.77	4.86163
1742.39	7.10608
1745	8.2262
1747.61	-0.830505
1750.21	7.04185
1752.82	4.73792
1755.43	9.21329
1758.03	0.0906067
1760.64	1.13831
1763.24	4.44939
1765.84	5.50136
1768.44	8.82383
1771.05	8.75173
1773.64	4.14745
1776.24	6.35419
1778.84	1.76948
1781.44	6.27447
1784.03	5.1095
1786.63	3.94963
1789.22	11.9154
1791.81	5.07997
1794.41	7.36177
1797	5.08299
1799.59	5.1016
1802.18	1.6836
1804.76	3.99557
1807.35	4.0059
1809.94	7.44933
1812.52	10.8964
1815.11	9.74039
1817.69	10.8934
1820.27	8.57636
1822.85	7.4168
1825.43	10.8875
1828.01	12.0488
1830.59	12.0583
1833.17	7.41818
1835.74	0.451042
1838.32	-4.22412
1840.89	13.2284
1843.47	16.7064
1846.04	7.33984
1848.61	13.1451
1851.18	1.41679
1853.75	7.20043
1856.32	-1.04408
1858.89	8.29011
1861.45	5.92082
1864.02	5.89436
1866.58	5.88168
1869.15	9.38672
1871.71	-1.25387
1874.27	5.75716
1876.83	10.4186
1879.39	7.99627
1881.95	-1.51199
1884.51	5.49726
1887.07	11.331
1889.63	8.86257
1892.18	8.74261
1894.74	0.343826
1897.29	3.77766
1899.84	1.31732
1902.39	4.80933
1904.94	4.77509
1907.49	13.0443
1910.04	15.4256
1912.59	7.13799
1915.14	5.98903
1917.68	9.58986
1920.23	4.72743
1922.77	4.6672
1925.32	8.21954
1927.86	2.20355
1930.4	0.966423
1932.94	8.11804
1935.48	3.27311
1938.02	-6.39188
1940.56	17.5753
1943.09	0.673004
1945.63	1.79308
1948.16	12.5411
1950.7	7.62589
1953.23	11.1295
1955.76	-2.23995
1958.29	13.3032
1960.82	13.1781
1963.35	5.81498
1965.88	9.2939
1968.41	-5.32141
1970.93	7.76978
1973.46	12.4179
1975.98	2.61541
1978.51	9.6714
1981.03	-0.128006
1983.55	14.1418
1986.07	11.5675
1988.59	8.99834
1991.11	13.6464
1993.63	15.8926
1996.15	4.92042
1998.66	10.7862
2001.18	8.24334
2003.69	5.70811
2006.2	3.18433
2008.72	3.06883
2011.23	11.3892
2013.74	5.2664
2016.25	5.16167
2018.76	0.222313
2021.27	1.31019
2023.77	-4.81744
2026.28	13.1891
2028.78	2.25187
2031.29	4.60352
2033.79	14.229
2036.29	-0.342506
2038.79	10.5089
2041.3	16.5327
2043.79	6.7858
2046.29	-0.545212
2048.79	0.629898
2051.29	16.4245
2053.78	11.4733
2056.28	7.76463
2058.77	7.73065
2061.27	15.0351
2063.76	13.7848
2066.25	11.3097
2068.74	8.81993
2071.23	7.55078
2073.72	9.96974
2076.21	12.3878
2078.69	8.64452
2081.18	9.82209
2083.66	10.9907
2086.15	10.9141
2088.63	15.7688
2091.11	16.9424
2093.59	18.1358
2096.07	14.3936
2098.55	5.68102
2101.03	10.6197
2103.51	4.38109
2105.99	18.0642
2108.46	11.8325
2110.94	13.086
2113.41	15.605
2115.89	19.3877
2118.36	8.12109
2120.83	11.9012
2123.3	16.9472
2125.77	16.9609
2128.24	5.60581
2130.71	11.9108
2133.17	15.6918
2135.64	11.8697
2138.11	15.6444
2140.57	10.531
2143.03	14.3057
2145.49	12.9851
2147.96	1.45738
2150.42	15.3929
2152.88	12.7547
2155.34	19.0382
2157.79	9.99365
2160.25	12.4293
2162.71	7.18635
2165.16	14.711
2167.62	1.77163
2170.07	8.01696
2172.52	15.5648
2174.97	14.1629
2177.43	10.1911
2179.88	18.9944
2182.32	3.46543
2184.77	5.84112
2187.22	18.469
2189.67	-0.890663
2192.11	5.36602
2194.56	6.5069
2197	6.38626
2199.44	13.9751
2201.89	7.47337
2204.33	8.67871
2206.77	7.32586
2209.21	11.129
2211.64	4.64696
2214.08	8.46821
2216.52	8.43849
2218.95	9.70772
2221.39	22.6295
2223.82	8.37188
2226.26	1.86239
2228.69	3.13126
2231.12	7.00474
2233.55	1.7712
2235.98	9.56454
2238.41	6.93156
2240.84	0.367622
2243.26	13.4261
2245.69	0.306557
2248.12	-1.03648
2250.54	12.0691
2252.96	10.7306
2255.39	10.7066
2257.81	8.05515
2260.23	10.6771
2262.65	6.68241
2265.07	0.0154343
2267.49	9.2223
2269.9	21.0843
2272.32	11.7194
2274.74	3.65705
2277.15	0.891975
2279.57	15.3939
2281.98	1.96301
2284.39	13.7808
2286.8	6.9659
2289.21	16.1194
2291.62	14.6266
2294.03	11.8004
2296.44	6.32207
2298.84	11.5136
2301.25	15.3851
2303.66	7.28467
2306.06	12.5343
2308.46	3.12402
2310.87	16.4298
2313.27	0.341301
2315.67	2.98056
2318.07	6.98035
2320.47	1.58892
2322.87	6.93501
2325.26	16.3472
2327.66	6.91591
2330.06	6.91109
2332.45	-1.19066
2334.85	-1.18892
2337.24	11.0218
2339.63	-1.17575
2342.02	2.92535
2344.41	1.59477
2346.8	11.2057
2349.19	8.52143
2351.58	14.0466
2353.97	5.85085
2356.35	15.4714
2358.74	15.4753
2361.12	3.0242
2363.51	12.6264
2365.89	9.83434
2368.27	12.5618
2370.65	13.9065
2373.03	2.78602
2375.41	2.73059
2377.79	-0.0985184
2380.17	-5.73738
2382.55	-3.05747
2384.92	6.55448
2387.3	-0.521606
2389.67	7.68958
2392.05	0.577103
2394.42	11.5525
2396.79	4.41445
2399.16	2.84057
2401.53	9.62279
2403.9	-0.314194
2406.27	6.45226
2408.64	7.6883
2411.01	18.7416
2413.37	13.1388
2415.74	7.63553
2418.1	-1.96664
2420.47	12.156
2422.83	13.5352
2425.19	-0.629944
2427.55	13.404
2429.91	10.5834
2432.27	11.9991
2434.63	0.713585
2436.99	9.22533
2439.34	2.16438
2441.7	6.43808
2444.05	5.0365
2446.41	6.48096
2448.76	15.0633
2451.11	12.2449
2453.47	5.11835
2455.82	7.99805
2458.17	10.8904
2460.51	8.04095
2462.86	6.62424
2465.21	12.4019
2467.56	8.089
2469.9	0.868561
2472.25	-7.82437
2474.59	9.5345
2476.94	10.9938
2479.28	3.74147
2481.62	6.63969
2483.96	5.16927
2486.3	8.0499
2488.64	2.18234
2490.98	3.60089
2493.32	6.48357
2495.65	22.5533
2497.99	7.88443
2500.32	-6.81979
2502.66	12.1983
2504.99	4.80429
2507.32	3.27065
2509.66	10.5533
2511.99	1.64294
2514.32	14.8106
2516.65	22.0961
2518.98	11.7082
2521.3	5.74667
2523.63	-3.18147
2525.96	15.9618
2528.28	7.02295
2530.61	9.91698
2532.93	11.3495
2535.25	9.82741
2537.57	6.82402
2539.89	15.7115
2542.22	14.2039
2544.53	-3.6895
2546.85	8.21597
2549.17	-0.757278
2551.49	11.1745
2553.8	9.66438
2556.12	8.13155
2558.43	2.08992
2560.75	5.06377
2563.06	17.0628
2565.37	-2.47237
2567.68	6.55748
2569.99	15.6209
2572.3	8.10126
2574.61	11.1378
2576.92	3.57585
2579.23	2.04196
2581.53	3.52242
2583.84	-7.17041
2586.14	6.4126
2588.45	7.8405
2590.75	9.22704
2593.05	13.6924
2595.35	12.1007
2597.66	1.3963
2599.96	1.33012
2602.26	13.4541
2604.55	19.4819
2606.85	10.2403
2609.15	5.57111
2611.44	13.0969
2613.74	17.5728
2616.03	14.4048
2618.33	12.778
2620.62	20.3278
2622.91	6.44733
2625.2	4.8246
2627.49	17.0078
2629.78	10.8273
2632.07	-1.47484
2634.36	10.8236
2636.64	18.5668
2638.93	9.3998
2641.22	7.92058
2643.5	6.44493
2645.78	25.1287
2648.07	12.8015
2650.35	22.2015
2652.63	11.3929
2654.91	22.3133
2657.19	8.25218
2659.47	12.8994
2661.75	9.72704
2664.03	15.9188
2666.3	26.7985
2668.58	12.6755
2670.85	11.0811
2673.13	17.3783
2675.4	6.45618
2677.67	27.09
2679.95	3.6828
2682.22	19.698
2684.49	24.6662
2686.76	20.1176
2689.03	12.3511
2691.29	15.6873
2693.56	12.6248
2695.83	10.9729
2698.09	9.35741
2700.36	20.5997
2702.62	15.7909
2704.89	18.9974
2707.15	17.3801
2709.41	23.8029
2711.67	9.2742
2713.93	20.5489
2716.19	15.7424
2718.45	15.7363
2720.7	9.25603
2722.96	9.23216
2725.22	18.9067
2727.47	4.25069
2729.73	13.9111
2731.98	5.6864
2734.23	-0.905838
2736.49	29.8615
2738.74	3.7397
2740.99	26.4294
2743.24	8.46822
2745.49	16.5567
2747.73	5.11559
2749.98	19.7866
2752.23	19.9004
2754.47	1.96671
2756.72	1.96214
2758.96	16.6854
2761.21	14.9933
2763.45	24.8219
2765.69	6.75177
2767.93	5.10785
2770.17	13.3129
2772.41	13.3158
2774.65	11.694
2776.89	15.0527
2779.13	15.1201
2781.36	18.5557
2783.6	8.71695
2785.84	10.4928
2788.07	23.9306
2790.3	19.0493
2792.54	4.11653
2794.77	15.9103
2797	7.5956
2799.23	21.0719
2801.46	16.0809
2803.69	16.1089
2805.92	6.01956
2808.14	14.4425
2810.37	6.00275
2812.59	9.3615
2814.82	16.0809
2817.04	16.0436
2819.27	7.55028
2821.49	19.3739
2823.71	12.5782
2825.93	4.07658
2828.15	24.4203
2830.37	19.2993
2832.59	17.5658
2834.81	3.90875
2837.03	-4.65508
2839.24	17.4462
2841.46	14
2843.67	7.14101
2845.89	13.9578
2848.1	8.82104
2850.31	7.11038
2852.53	13.9869
2854.74	26.0463
2856.95	3.78761
2859.16	10.7038
2861.37	17.6573
2863.57	-1.21823
2865.78	-8.04198
2867.99	21.4447
2870.19	7.7014
2872.4	-0.882309
2874.6	6.15421
2876.81	1.03239
2879.01	2.87866
2881.21	6.4886
2883.41	17.1207
2885.61	22.5417
2887.81	13.9212
2890.01	1.74339
2892.21	30.0434
2894.41	7.25381
2896.6	-1.43805
2898.8	-6.61169
2901	21.9027
2903.19	13.1484
2905.38	13.254
2907.58	4.4402
2909.77	17.0181
2911.96	6.34305
2914.15	-4.36804
2916.34	13.5565
2918.53	4.6371
2920.72	17.2545
2922.91	6.52901
2925.09	17.4023
2927.28	6.68208
2929.47	21.2163
2931.65	24.9495
2933.83	25.0359
2936.02	16.0308
2938.2	12.423
2940.38	21.5062
2942.56	16.0658
2944.74	17.8811
2946.92	-4.01094
2949.1	15.9857
2951.28	10.4867
2953.46	3.15117
2955.63	8.5876
2957.81	10.3727
2959.98	15.8233
2962.16	21.2901
2964.33	23.1061
2966.5	13.9399
2968.68	17.6095
2970.85	12.1064
2973.02	24.9811
2975.19	32.3605
2977.36	17.6502
2979.52	26.8791
2981.69	15.8445
2983.86	41.7635
2986.03	6.71124
2988.19	25.3012
2990.36	1.28793
2992.52	32.9466
2994.68	21.903
2996.85	12.7094
2999.01	31.4867
3001.17	42.8588
3003.33	22.4601
3005.49	24.5014
3007.65	30.3005
3009.8	21.0606
3011.96	21.1795
3014.12	32.6566
3016.27	32.8504
3018.43	33.059
3020.58	16.1905
3022.74	42.9573
3024.89	8.86171
3027.04	35.6363
3029.19	47.1952
3031.34	35.8351
3033.49	26.3345
3035.64	43.6002
3037.79	45.5306
3039.94	39.8602
3042.09	41.8391
3044.23	22.6486
3046.38	36.1284
3048.52	43.85
3050.67	26.5234
3052.81	45.821
3054.95	51.6518
3057.09	40.1028
3059.24	59.4751
3061.38	67.2623
3063.51	57.6227
3065.65	53.7872
3067.79	53.8248
3069.93	65.5203
3072.07	48.0672
3074.2	30.5908
3076.34	65.6885
3078.47	73.5538
3080.61	63.8639
3082.74	71.7386
3084.87	42.5124
3087	71.9756
3089.14	78.0216
3091.27	64.4783
3093.39	58.7836
3095.52	76.7346
3097.65	75.0159
3099.78	81.1915
3101.91	77.5078
3104.03	87.7164
3106.16	74.1425
3108.28	100.332
3110.41	108.694
3112.53	85.1293
3114.65	115.509
3116.77	107.903
3118.89	106.297
3121.01	106.733
3123.13	111.22
3125.25	99.5603
3127.37	124.363
3129.49	122.887
3131.61	117.363
3133.72	97.5072
3135.84	114.398
3137.95	110.831
3140.06	113.387
3142.18	122.112
3144.29	118.45
3146.4	118.889
3148.51	140.056
3150.62	138.396
3152.73	136.658
3154.84	132.818
3156.95	112.256
3159.06	145.969
3161.16	110.72
3163.27	138.253
3165.37	128.048
3167.48	153.523
3169.58	147.472
3171.69	158.351
3173.79	158.641
3175.89	129.267
3177.99	148.426
3180.09	161.235
3182.19	152.86
3184.29	157.169
3186.39	165.71
3188.49	163.577
3190.58	127.578
3192.68	155.301
3194.77	159.7
3196.87	166.314
3198.96	153.867
3201.06	175.689
3203.15	174.033
3205.24	165.964
3207.33	175.109
3209.42	169.225
3211.51	178.422
3213.6	179.038
3215.69	151.546
3217.78	143.437
3219.86	161.342
3221.95	183.678
3224.04	171.172
3226.12	160.819
3228.2	148.216
3230.29	172.868
3232.37	140.432
3234.45	158.501
3236.53	176.625
3238.61	161.678
3240.7	131.209
3242.77	142.824
3244.85	165.703
3246.93	148.399
3249.01	124.319
3251.08	138.074
3253.16	133.918
3255.23	134.159
3257.31	132.143
3259.38	130.267
3261.46	139.673
3263.53	133.35
3265.6	124.824
3267.67	127.923
3269.74	146.483
3271.81	151.737
3273.88	152.167
3275.95	136.372
3278.02	138.872
3280.08	120.765
3282.15	139.285
3284.21	134.906
3286.28	141.996
3288.34	126.108
3290.41	121.684
3292.47	140.264
3294.53	131.212
3296.59	149.819
3298.65	124.612
3300.71	129.47
3302.77	111.148
3304.83	111.327
3306.89	139.326
3308.95	146.482
3311	137.378
3313.06	125.911
3315.11	130.754
3317.17	135.583
3319.22	147.459
3321.27	126.708
3323.33	145.681
3325.38	120.252
3327.43	125.248
3329.48	125.559
3331.53	123.641
3333.58	140.592
3335.63	124.567
3337.67	165.18
3339.72	141.916
3341.77	132.741
3343.81	128.236
3345.86	152.194
3347.9	130.981
3349.95	143.072
3351.99	150.411
3354.03	126.793
3356.07	150.889
3358.11	165.504
3360.15	122.805
3362.19	163.746
3364.23	161.647
3366.27	147.544
3368.31	140.619
3370.34	150.504
3372.38	143.538
3374.42	153.374
3376.45	168.008
3378.48	141.674
3380.52	137.004
3382.55	158.865
3384.58	142.109
3386.61	144.655
3388.64	173.791
3390.68	159.395
3392.7	171.61
3394.73	152.395
3396.76	123.494
3398.79	143.069
3400.82	155.362
3402.84	165.184
3404.87	162.853
3406.89	170.259
3408.92	155.78
3410.94	160.71
3412.96	148.621
3414.98	143.827
3417	153.653
3419.03	178.098
3421.05	161.115
3423.06	170.932
3425.08	156.379
3427.1	151.615
3429.12	161.523
3431.14	147.037
3433.15	142.331
3435.17	157.22
3437.18	142.776
3439.2	150.388
3441.21	145.755
3443.22	141.14
3445.23	151.318
3447.25	156.651
3449.26	161.989
3451.27	147.599
3453.28	138.16
3455.28	136.16
3457.29	136.686
3459.3	134.753
3461.31	137.797
3463.31	140.857
3465.32	116.473
3467.32	137.013
3469.33	132.553
3471.33	143.117
3473.33	135.968
3475.34	154.054
3477.34	86.5561
3479.34	142.488
3481.34	135.408
3483.34	128.296
3485.34	121.156
3487.33	141.903
3489.33	152.532
3491.33	125.018
3493.32	117.8
3495.32	130.938
3497.32	103.222
3499.31	116.334
3501.3	126.892
3503.3	114.371
3505.29	124.903
3507.28	130.269
3509.27	102.212
3511.26	97.2025
3513.25	102.459
3515.24	94.8699
3517.23	100.121
3519.22	89.9534
3521.2	100.348
3523.19	90.1805
3525.18	82.6021
3527.16	75.0296
3529.15	82.849
3531.13	101.059
3533.11	93.6023
3535.1	99.0796
3537.08	86.5358
3539.06	76.5883
3541.04	82.1072
3543.02	95.3814
3545	90.4995
3546.98	82.9983
3548.96	83.2554
3550.93	73.0731
3552.91	57.5563
3554.89	65.5019
3556.86	73.4993
3558.84	60.7066
3560.81	58.3374
3562.78	84.6595
3564.76	74.5259
3566.73	56.5792
3568.7	101.402
3570.67	75.6146
3572.64	73.3553
3574.61	76.363
3576.58	84.6566
3578.55	93.0049
3580.52	80.3398
3582.48	94.0247
3584.45	60.2251
3586.41	68.6358
3588.38	66.4734
3590.35	58.9988
3592.31	67.439
3594.27	51.9642
3596.23	55.095
3598.2	60.8883
3600.16	55.9825
3602.12	51.0667
3604.08	32.7456
3606.04	35.8087
3608	38.8652
3609.95	44.5979
3611.91	36.8954
3613.87	39.9684
3615.83	37.6217
3617.78	46.071
3619.74	35.6081
3621.69	35.8826
3623.64	22.5987
3625.6	14.6992
3627.55	14.9096
3629.5	34.0457
3631.45	31.52
3633.4	37.1254
3635.35	15.6952
3637.3	13.235
3639.25	29.7759
3641.2	19.2735
3643.15	16.9204
3645.09	17.2874
3647.04	17.7044
3648.98	26.0843
3650.93	7.30006
3652.87	4.86064
3654.82	32.3758
3656.76	2.66049
3658.7	5.64885
3660.64	3.18005
3662.58	6.15579
3664.53	6.4191
3666.47	-4.22664
3668.4	12.4622
3670.34	1.80643
3672.28	4.8252
3674.22	2.41153
3676.16	-5.46416
3678.09	-5.10133
3680.03	0.773361
3681.96	1.18655
3683.9	1.62396
3685.83	4.84473
3687.76	5.31764
3689.69	-13.5516
3691.63	-10.3255
3693.56	6.74664
3695.49	-1.13451
3697.42	-6.22469
3699.35	-11.3326
3701.28	-16.4462
3703.2	-7.65509
3705.13	-1.60245
3707.06	-15.1067
3708.98	-3.44032
3710.91	2.64391
3712.83	3.12747
3714.76	-7.66222
3716.68	1.21599
3718.6	-18.0821
3720.53	-0.749588
3722.45	-20.1034
3724.37	-8.40987
3726.29	-22.1665
3728.21	-10.4593
3730.13	-4.39757
3732.05	-18.1642
3733.97	-29.1192
3735.88	-0.303482
3737.8	-22.646
3739.72	6.21648
3741.63	0.921661
3743.55	-10.0852
3745.46	-6.84566
3747.38	-3.61009
3749.29	-20.3869
3751.2	-22.8986
3753.11	0.325882
3755.02	-19.3735
3756.93	-7.60376
3758.84	-10.1546
3760.75	15.9327
3762.66	-12.4084
3764.57	10.8202
3766.48	-11.8022
3768.39	-11.4795
3770.29	0.330627
3772.2	15.0298
3774.1	-27.6835
3776.01	1.37694
3777.91	13.2355
3779.81	-18.0099
3781.72	34.1685
3783.62	17.3281
3785.52	-13.9473
3787.42	3.75314
3789.32	-4.5092
3791.22	-18.557
3793.12	-3.70409
3795.02	-0.378021
3796.92	20.3429
3798.81	0.524048
3800.71	-10.6239
3802.61	-13.0776
3804.5	-0.988052
3806.4	-9.24442
3808.29	-5.86072
3810.18	0.439026
3812.08	-2.0242
3813.97	-4.49706
3815.86	-4.05206
3817.75	8.11331
3819.64	-11.9645
3821.53	9.00824
3823.42	0.628326
3825.31	3.97568
3827.2	13.2205
3829.09	-4.01555
3830.97	5.26151
3832.86	8.65608
3834.75	0.234726
3836.63	12.4791
3838.52	1.0668
3840.4	10.3546
3842.28	1.95422
3844.17	17.1772
3846.05	8.64337
3847.93	-14.782
3849.81	6.33012
3851.69	9.6313
3853.57	18.8498
3855.45	1.33179
3857.33	-7.30383
3859.21	1.87456
3861.08	-9.73445
3862.96	23.2704
3864.84	-26.9273
3866.71	6.23631
3868.59	9.69679
3870.46	16.1018
3872.34	7.44548
3874.21	13.7147
3876.08	2.06749
3877.95	11.3318
3879.82	2.66164
3881.69	5.95151
3883.56	12.2411
3885.44	9.56165
3887.3	-2.10054
3889.17	4.20674
3891.04	10.527
3892.91	-1.12604
3894.77	-3.74916
3896.64	11.632
3898.51	8.97182
3900.37	-14.7634
3902.23	15.6889
3904.1	19.0327
3905.96	-1.74925
3907.82	10.6315
3909.69	1.88831
3911.55	20.3651
3913.41	8.60025
3915.27	-0.149063
3917.13	3.22427
3918.99	-2.4922
3920.84	13.0677
3922.7	-1.76694
3924.56	10.7664
3926.42	5.01424
3928.27	2.28929
3930.13	14.8295
3931.98	2.89742
3933.84	0.0995026
3935.69	0.352905
3937.54	-8.60208
3939.4	22.33
3941.25	4.19182
3943.1	7.55463
3944.95	10.9043
3946.8	-4.23283
3948.65	2.17175
3950.5	17.8184
3952.35	8.76924
3954.19	18.2314
3956.04	-6.31311
3957.89	0.0282288
3959.73	-9.12715
3961.58	12.6605
3963.42	-5.80637
3965.27	6.67734
3967.11	9.84827
3968.96	9.89659
3970.8	9.94171
3972.64	9.98692
3974.48	13.127
3976.32	16.2569
3978.16	6.96545
3980	-8.55356
3981.84	16.2266
3983.68	6.88506
3985.52	13.0483
3987.36	6.79184
3989.19	16.0405
3991.03	0.489929
3992.86	15.9618
3994.7	-5.79073
3996.53	6.597
3998.37	0.36319
