#Acq. time (s)=	30
#Accumulations=	2
#Range (cm-¹)=	99...1000
#Windows=	2
#Auto scanning=	Off
#Autofocus=	Off
#Macrospot=	Off
#AutoExposure=	Off
#Spike filter=	Multiple accum.
#Delay time (s)=	2
#Binning=	1
#Readout mode=	Signal
#DeNoise=	Off
#ICS correction=	On
#Dark correction=	Off
#Inst. Process=	Off
#Detector Gain=	Best Dynamic
#Detector ADC=	50 kHz HS
#Detector temperature (°C)=	-60.09
#Instrument=	LabRAM HR Evol
#Detector=	SIN-EM FIVIS
#Objective=	x100_VIS_LWD
#Grating=	1800 (450-850nm)
#ND Filter=	10%
#Laser=	532nm_Edge
#Hole=	49.98
#Temperature=	0
#Range=	Visible
#StageXY=	75x50mm Scan+
#StageZ=	Z motor
#X (µm)=	0
#Y (µm)=	0
#Z (µm)=	-45.7
#Full time(mm:ss)=	2:09
#Project=	21_11_26
#Sample=	BU19(2)w
#Site=	
#Title=	BU19(2)w-A-FF1-FI01-S_1800 (450-850nm)_532nm_Edge_10%_x100_VIS_LWD_H50um_30sX2
#Remark=	
#Date=	26.11.2021 11:52
#Acquired=	26.11.2021 11:52:27
#Base:Fit=	16.12.2021 16:00:56
#Base:Edit=	16.12.2021 16:03:35
#Base:Clear=	16.12.2021 16:03:37
#Base:Edit=	16.12.2021 16:03:39
#Base:Edit=	16.12.2021 16:03:39
#Base:Edit=	16.12.2021 16:03:40
#Base:Edit=	16.12.2021 16:03:40
#Base:Edit=	16.12.2021 16:03:41
#Base:Edit=	16.12.2021 16:03:41
#Base:Edit=	16.12.2021 16:03:43
#Base:Edit=	16.12.2021 16:03:44
#Base:Edit=	16.12.2021 16:03:45
#Base:Edit=	16.12.2021 16:03:45
#Base:Edit=	16.12.2021 16:03:46
#Base:Edit=	16.12.2021 16:03:47
#Base:Edit=	16.12.2021 16:03:47
#Base:Edit=	16.12.2021 16:03:48
#Base:Edit=	16.12.2021 16:03:49
#Base:Edit=	16.12.2021 16:03:50
#Base:Edit=	16.12.2021 16:03:50
#Base:Edit=	16.12.2021 16:03:51
#Base:Edit=	16.12.2021 16:03:53
#Base:Edit=	16.12.2021 16:03:53
#Base:Edit=	16.12.2021 16:03:54
#Base:Edit=	16.12.2021 16:03:55
#Base:Edit=	16.12.2021 16:03:55
#Base:Edit=	16.12.2021 16:03:56
#Peaks:Remove=	16.12.2021 16:03:57
#Base:Sub=	16.12.2021 16:04:00
102.198	-12.668
102.52	5.95908
102.842	-5.28122
103.164	-2.30991
103.486	6.3632
103.808	6.48206
104.128	3.67387
104.45	-4.78094
104.772	3.86024
105.093	-5.99463
105.415	1.23451
105.735	-1.52879
106.057	8.52579
106.379	-11.3066
106.701	5.92282
107.023	-8.22675
107.344	-13.824
107.664	-2.34891
107.986	7.69055
108.308	2.0199
108.629	0.58432
108.951	0.608612
109.271	9.18886
109.593	3.55824
109.914	9.30278
110.236	-1.98097
110.558	-3.33006
110.877	6.70407
111.199	-3.11771
111.521	4.07822
111.843	-2.94229
112.162	-1.45609
112.484	9.95575
112.805	-4.1763
113.127	-6.95848
113.449	14.3513
113.768	-11.1148
114.09	-2.5983
114.411	18.6425
114.733	18.6344
115.052	1.68053
115.374	-1.11469
115.695	-1.07742
116.017	-8.11557
116.336	7.41844
116.658	0.395004
116.979	-6.6384
117.301	3.21332
117.62	8.84154
117.942	-0.989716
118.263	-9.38705
118.585	3.29469
118.904	3.33043
119.225	6.18182
119.547	2.03096
119.868	0.694839
120.187	14.7687
120.509	0.8508
120.83	7.95871
121.149	-0.346039
121.471	-4.45102
121.792	2.64136
122.113	-4.26997
122.433	2.82196
122.754	11.3054
123.075	7.17686
123.397	5.84123
123.716	3.10648
124.037	1.77592
124.358	11.6382
124.677	0.567749
124.999	13.2435
125.32	20.2946
125.639	-4.78853
125.96	7.82968
126.281	6.46335
126.602	-7.45633
126.921	6.53577
127.243	9.36299
127.564	10.7933
127.883	9.45447
128.204	8.13426
128.525	1.26868
128.844	2.77692
129.165	16.8501
129.486	5.84363
129.805	5.95558
130.126	3.28403
130.447	-2.17494
130.766	9.06923
131.087	2.19101
131.408	-6.09386
131.727	6.52434
132.048	10.7904
132.369	1.13565
132.688	13.7509
133.009	5.49472
133.33	1.43733
133.648	11.2819
133.969	4.4144
134.29	8.67957
134.609	7.35274
134.93	0.471588
135.249	7.51042
135.57	2.05083
135.89	10.5073
136.209	0.875229
136.53	13.5045
136.851	12.2128
137.169	12.3293
137.49	15.2156
137.811	2.78633
138.13	1.47627
138.45	25.1913
138.769	15.5245
139.09	28.153
139.411	14.3761
139.729	24.2696
140.05	13.3237
140.368	37.2301
140.689	13.7317
141.01	13.8965
141.328	14.0631
141.649	14.2469
141.968	12.9803
142.288	15.8668
142.609	18.6939
142.927	17.3609
143.248	8.98663
143.566	2.01096
143.887	22.9474
144.207	0.705215
144.526	3.56161
144.846	2.2668
145.165	-4.54516
145.485	1.13457
145.804	2.64729
146.124	1.40343
146.445	7.15434
146.763	-3.92069
147.084	-13.6048
147.402	4.62065
147.722	1.90758
148.041	-4.99638
148.361	-4.92919
148.682	0.708496
149	6.33369
149.32	-22.9022
149.638	-6.13638
149.959	-0.515076
150.277	-4.65208
150.597	-4.60195
150.916	2.41295
151.236	6.64709
151.554	2.53343
151.874	-2.96006
152.195	-11.2095
152.513	-1.366
152.833	-4.08418
153.151	-6.81871
153.472	-4.00169
153.79	-5.37081
154.11	-10.912
154.428	-9.50069
154.748	-5.31472
155.066	-12.2281
155.387	-12.1839
155.705	-9.35261
156.025	-5.08416
156.343	-7.73156
156.663	-3.48293
156.981	3.53461
157.301	7.76877
157.619	-12.9953
157.939	-11.5508
158.257	-4.55787
158.577	-14.2126
158.895	-12.7649
159.215	-0.222946
159.533	-14.0669
159.853	-2.94305
160.171	-18.1637
160.491	-5.6369
160.809	-5.58006
161.129	-5.52625
161.447	5.59932
161.767	5.62032
162.085	4.26823
162.404	-5.38188
162.722	-3.96078
163.042	0.219635
163.36	3.01025
163.678	-5.27333
163.998	9.95383
164.315	4.43529
164.635	7.22266
164.953	-3.79751
165.273	1.77704
165.591	-5.07917
165.91	12.9382
166.228	-2.21123
166.548	0.600517
166.866	-0.741508
167.183	4.81881
167.503	-10.3454
167.821	3.49233
168.14	2.14522
168.458	-4.72854
168.778	-3.32103
169.095	7.73425
169.413	-4.65181
169.733	-8.81518
170.05	-7.4751
170.37	0.790024
170.687	-1.94322
171.007	-7.40326
171.325	-3.20085
171.642	-15.5343
171.962	-3.06541
172.279	-1.60271
172.599	-7.01917
172.916	-4.2058
173.234	-9.68239
173.553	-2.7541
173.871	-10.9923
174.19	-2.6879
174.508	-9.54453
174.825	-13.6445
175.145	-3.9639
175.462	-8.06645
175.781	-2.54026
176.099	-3.88799
176.416	-2.46266
176.736	7.23722
177.053	-10.6364
177.37	-3.6923
177.69	-3.6281
178.007	-3.57935
178.326	4.72032
178.644	-7.68903
178.961	-0.816063
179.28	-0.827744
179.597	-6.34488
179.915	0.529243
180.234	-3.60606
180.551	4.64178
180.868	3.26379
181.188	0.513268
181.505	-4.99337
181.824	-0.835442
182.141	3.34418
182.458	-4.8127
182.778	3.5517
183.095	5.10024
183.412	8.03152
183.731	-0.171349
184.048	2.57478
184.365	2.57288
184.684	1.15339
185.001	1.07656
185.318	-1.73296
185.638	-3.02898
185.955	12.1809
186.272	20.4961
186.591	13.6361
186.908	4.01863
187.225	6.79192
187.542	12.3187
187.861	8.21478
188.178	4.10964
188.495	-5.50592
188.814	12.4308
189.131	2.79987
189.448	9.67388
189.767	5.45939
190.083	20.545
190.4	16.4606
190.717	8.29011
191.036	16.6683
191.353	19.6099
191.67	7.4054
191.989	3.28426
192.305	19.8582
192.622	11.665
192.939	3.40152
193.258	18.6101
193.575	14.4661
193.891	19.9768
194.21	3.37852
194.527	8.89286
194.844	8.89077
195.16	10.2683
195.479	13.0172
195.796	15.7628
196.113	12.9977
196.429	11.6175
196.748	4.72534
197.065	14.4085
197.381	8.91303
197.698	7.55354
198.017	18.6201
198.333	11.7463
198.65	11.7603
198.966	11.7555
199.285	15.8963
199.602	14.5156
199.918	9.00024
200.235	15.8796
200.553	17.2371
200.87	15.8299
201.186	17.1792
201.503	14.3858
201.819	21.2522
202.138	25.3547
202.454	30.8231
202.771	23.8835
203.087	25.2064
203.406	25.1459
203.722	20.9603
204.039	20.9383
204.355	16.7873
204.671	14.0165
204.99	7.12862
205.306	22.2686
205.623	30.5523
205.939	26.4606
206.255	20.979
206.574	19.6285
206.89	19.671
207.206	21.0905
207.523	32.1287
207.839	16.9811
208.157	29.3625
208.474	33.4592
208.79	19.6404
209.106	36.0973
209.422	16.7828
209.738	1.60748
210.057	20.8193
210.373	18.0164
210.689	12.4791
211.005	24.812
211.321	28.9066
211.638	37.1295
211.956	20.6335
212.272	20.6233
212.588	27.4709
212.904	23.2881
213.22	20.5065
213.536	20.4612
213.852	23.1735
214.171	34.1167
214.487	20.3578
214.803	27.1669
215.119	29.8528
215.435	29.7923
215.751	28.3581
216.067	37.8768
216.385	32.3275
216.701	24.0612
217.017	15.8306
217.333	19.8956
217.649	12.9922
217.965	37.5382
218.281	41.5864
218.596	18.3089
218.914	18.2652
219.23	28.0478
219.546	28.272
219.862	36.3209
220.178	26.7378
220.494	28.1011
220.81	21.2225
221.125	32.1332
221.441	32.0879
221.757	26.5611
222.075	40.1823
222.391	30.5594
222.706	34.6177
223.022	30.4747
223.338	33.1715
223.654	31.7946
223.969	30.4378
224.285	35.9223
224.601	33.2118
224.917	40.0827
225.232	49.7017
225.548	38.7891
225.866	42.9167
226.181	42.9309
226.497	37.4632
226.813	44.2953
227.128	27.8139
227.444	33.2329
227.759	29.0659
228.075	35.8414
228.391	27.5881
228.706	46.706
229.022	30.2443
229.337	43.8711
229.653	43.8249
229.968	35.5925
230.284	35.5675
230.599	45.1168
230.915	36.8996
231.23	38.2706
231.546	38.2563
231.861	51.915
232.179	36.786
232.494	42.1253
232.81	46.1197
233.125	46.0403
233.44	44.598
233.756	33.6193
234.071	40.422
234.387	29.5127
234.702	47.3067
235.017	26.9174
235.333	36.5359
235.648	31.0826
235.963	32.4663
236.279	33.855
236.594	35.2492
236.909	48.9646
237.224	36.6797
237.54	32.5969
237.855	43.5593
238.17	44.906
238.485	39.4289
238.801	46.2901
239.116	32.6055
239.431	43.5973
239.746	28.516
240.061	42.2364
240.377	39.5214
240.692	42.2609
241.005	36.7768
241.32	39.5082
241.635	42.2162
241.95	43.5083
242.265	28.3494
242.58	48.8457
242.896	43.2957
243.211	32.2798
243.526	50.0463
243.841	43.1272
244.156	23.8935
244.471	43.0217
244.786	29.2985
245.101	45.7019
245.416	33.3526
245.731	42.9382
246.046	25.1342
246.361	30.6064
246.676	41.5558
246.991	36.1089
247.306	45.711
247.618	25.1257
247.933	47.0198
248.248	37.3693
248.563	35.934
248.878	28.9816
249.193	46.7206
249.508	53.498
249.823	35.6422
250.137	43.8016
250.452	38.2928
250.767	42.3489
251.082	25.847
251.395	42.199
251.709	46.2793
252.024	39.4252
252.339	49.0812
252.654	40.8739
252.968	35.3958
253.283	36.7452
253.598	31.246
253.913	38.0661
254.225	38.0304
254.54	33.849
254.854	37.9012
255.169	46.0435
255.484	36.3831
255.798	39.0617
256.113	29.4582
256.428	39.0146
256.742	32.1596
257.055	30.8135
257.369	30.8949
257.684	30.9129
257.999	30.9001
258.313	28.1392
258.628	24.0041
258.942	29.437
259.255	38.942
259.569	22.395
259.884	33.2628
260.198	29.0862
260.513	24.9206
260.827	26.2366
261.14	23.4538
261.454	27.4913
261.768	31.5237
262.083	28.7453
262.397	30.071
262.712	25.9017
263.026	21.7409
263.338	24.4559
263.653	38.0973
263.967	29.8548
264.281	29.8025
264.596	22.965
264.908	28.4218
265.222	14.8051
265.537	28.5354
265.851	16.3686
266.165	31.5178
266.478	16.3799
266.792	33.9019
267.106	17.0897
267.42	19.5688
267.735	24.922
268.047	19.4329
268.361	12.5727
268.675	16.7362
268.989	22.2124
269.303	26.2576
269.616	20.6895
269.93	20.6268
270.244	24.687
270.558	19.2113
270.872	0.124985
271.184	19.1322
271.498	21.8071
271.812	16.3146
272.126	28.4942
272.438	9.38666
272.753	16.1008
273.067	5.13902
273.381	13.2036
273.693	26.7025
274.007	8.97876
274.321	23.8184
274.635	18.3052
274.949	12.7934
275.261	16.7668
275.575	13.9648
275.888	12.5347
276.2	17.8821
276.514	11.0546
276.828	16.4187
277.142	6.91235
277.454	14.9957
277.768	20.3685
278.082	20.3289
278.396	14.8619
278.707	16.1502
279.021	5.29446
279.335	6.62845
279.649	16.0972
279.961	24.2104
280.274	10.6628
280.588	20.0973
280.9	29.52
281.214	10.5388
281.528	11.8408
281.841	10.4365
282.153	22.5375
282.467	11.6671
282.78	0.798904
283.092	7.49725
283.406	20.958
283.719	14.1638
284.031	14.1119
284.345	16.7624
284.658	12.6629
284.97	19.3761
285.284	7.20026
285.597	8.52408
285.911	11.2014
286.222	19.2827
286.536	-6.39645
286.85	3.02097
287.161	7.03792
287.475	4.33026
287.788	8.35434
288.1	5.62363
288.413	0.199753
288.727	6.93529
289.038	-1.17847
289.352	10.9882
289.665	9.65178
289.977	13.6925
290.29	4.19855
290.601	6.87019
290.915	10.8954
291.228	17.651
291.54	16.2925
291.853	8.16203
292.167	9.50551
292.478	12.2049
292.791	17.6026
293.105	4.07225
293.416	6.74672
293.729	6.73083
294.04	21.6292
294.354	4.07512
294.667	12.2108
294.978	-6.75143
295.292	8.14513
295.605	14.8788
295.916	8.05148
296.229	-0.138702
296.541	2.50854
296.854	7.89456
297.167	10.5822
297.478	18.6864
297.792	6.48163
298.103	10.5182
298.416	7.77647
298.729	10.4505
299.04	3.68736
299.353	-7.16106
299.664	15.8513
299.978	13.1336
300.291	-0.420471
300.602	11.7676
300.915	10.4052
301.226	2.25523
301.539	17.1421
301.85	3.54697
302.163	3.49278
302.476	12.9398
302.787	14.2719
303.1	12.9067
303.411	-0.666138
303.724	7.46292
304.035	15.5643
304.348	16.8898
304.661	4.66959
304.972	11.4399
305.285	0.592926
305.596	4.64989
305.909	4.64725
306.219	-2.12677
306.532	15.5284
306.843	1.97443
307.156	-2.08298
307.467	14.2343
307.78	2.02383
308.093	10.1907
308.403	4.75325
308.716	14.2216
309.027	8.7489
309.34	7.39635
309.651	16.9278
309.963	19.6627
310.274	3.33636
310.587	-2.11029
310.898	4.6875
311.21	1.93613
311.521	11.4259
311.834	5.95195
312.144	5.92819
312.457	9.99312
312.768	1.81616
313.081	7.24799
313.391	5.85315
313.704	12.6057
314.014	-1.0517
314.327	5.69322
314.638	2.89145
314.95	8.26526
315.261	-2.64128
315.573	17.7277
315.884	-2.69913
316.197	-2.73087
316.507	4.04472
316.82	-6.84385
317.13	10.8319
317.443	10.8432
317.753	-2.74446
318.064	2.72131
318.376	-5.41249
318.687	9.61949
318.999	6.93558
319.309	9.68936
319.622	-2.59218
319.932	6.94115
320.245	-9.44543
320.555	-4.02022
320.868	4.12683
321.178	-8.2083
321.488	3.99663
321.801	-2.88589
322.111	-7.04052
322.423	5.14938
322.734	5.07791
323.046	-20.8541
323.356	-5.9506
323.669	-8.74011
323.979	-15.6096
324.289	-7.52233
324.602	4.63828
324.912	5.92462
325.224	-7.72623
325.534	-5.07828
325.844	-7.85984
326.157	-3.862
326.467	0.128952
326.779	-5.36446
327.089	6.77158
327.401	6.70776
327.712	-0.115311
328.022	-0.15332
328.334	-0.200897
328.644	-1.62195
328.956	-0.33638
329.266	-5.80566
329.576	-4.52139
329.888	-1.8969
330.198	-7.37754
330.509	-4.74887
330.821	-14.2853
331.131	-0.867569
331.443	3.10318
331.753	8.40277
332.063	-3.83405
332.375	2.83202
332.685	9.50815
332.995	9.47849
333.307	-6.6978
333.617	10.8065
333.929	-13.4526
334.238	4.06641
334.548	-2.65921
334.86	-1.30521
335.17	1.43091
335.48	-10.7202
335.792	9.45901
336.102	2.608
336.412	-0.24379
336.724	-4.48457
337.033	7.32549
337.343	1.74493
337.655	-11.8088
337.965	0.0983582
338.275	3.99197
338.587	12.1643
338.896	-1.18761
339.206	9.50314
339.518	14.8326
339.828	4.08867
340.137	10.7565
340.449	-1.32356
340.759	8.02603
341.068	1.27483
341.38	9.19731
341.69	-0.239319
341.999	-1.64883
342.309	10.3344
342.621	6.2641
342.93	-8.48859
343.24	11.5111
343.552	3.45297
343.861	3.41901
344.171	3.3907
344.483	0.674301
344.792	1.9397
345.102	-2.14905
345.411	-0.907272
345.723	1.66132
346.032	-5.09789
346.342	-1.18947
346.653	8.02475
346.963	-1.41176
347.272	6.46481
347.582	2.38618
347.893	7.60448
348.203	15.4702
348.512	-5.86069
348.822	-3.27922
349.133	1.96663
349.442	0.591644
349.752	0.55188
350.061	13.775
350.373	-3.49153
350.682	8.39447
350.991	4.36612
351.301	-7.61894
351.612	5.55258
351.921	0.186356
352.231	14.6808
352.54	0.062149
352.851	7.93694
353.161	7.87442
353.47	-2.7608
353.779	-6.78105
354.088	-4.1806
354.4	6.38919
354.709	3.75478
355.018	-2.84068
355.327	-8.13976
355.639	-2.86693
355.948	3.73267
356.257	3.71448
356.566	-1.61522
356.875	-5.61711
357.186	8.90654
357.496	7.56938
357.805	8.882
358.114	15.4844
358.423	7.5302
358.734	14.1196
359.043	11.4352
359.352	6.08582
359.661	-0.569504
359.97	3.35075
360.281	4.64893
360.59	13.892
360.899	7.27177
361.208	5.94608
361.517	1.98518
361.826	1.97972
362.137	8.57315
362.446	17.8265
362.755	5.90732
363.064	9.86375
363.373	5.89726
363.682	9.84972
363.993	3.20204
364.302	13.7273
364.611	3.03162
364.92	4.21025
365.229	15.9881
365.538	5.39453
365.846	0.141312
366.157	8.08899
366.466	8.12428
366.775	10.809
367.084	-2.41969
367.393	4.18124
367.701	-2.43962
368.01	13.5293
368.321	10.8841
368.63	16.1549
368.938	21.4291
369.247	5.46107
369.556	4.11475
369.865	13.3438
370.173	5.38629
370.482	4.03743
370.793	1.37616
371.101	15.9495
371.41	-7.87437
371.719	8.05431
372.027	18.7012
372.336	2.86099
372.645	18.7843
372.953	9.48792
373.262	16.0994
373.57	5.44031
373.881	18.6482
374.19	5.25435
374.498	11.8049
374.807	11.8059
375.115	11.9
375.424	15.1506
375.732	9.98285
376.041	11.6541
376.349	9.81978
376.658	6.79613
376.966	5.59642
377.275	5.46849
377.583	22.5957
377.892	9.54016
378.202	17.5404
378.511	17.5011
378.819	8.13683
379.127	13.3757
379.436	25.2931
379.744	11.9603
380.053	10.6271
380.361	15.9581
380.669	2.64508
380.978	13.2883
381.286	15.9576
381.594	13.2937
381.903	15.9101
382.211	23.8959
382.519	10.5978
382.827	14.6125
383.136	18.6227
383.444	22.626
383.752	15.9528
384.061	15.9417
384.369	21.27
384.677	19.9337
384.985	-0.0744781
385.293	23.9194
385.602	18.5669
385.91	21.2345
386.218	22.553
386.526	13.1733
386.834	13.1257
387.142	35.7791
387.45	18.4432
387.759	31.7854
388.067	21.1185
388.375	29.1329
388.683	37.1513
388.991	34.4922
389.299	26.4982
389.607	27.8513
389.915	26.5146
390.223	30.5162
390.531	31.8347
390.839	17.0881
391.147	33.064
391.455	30.3502
391.763	19.6338
392.071	30.2721
392.379	35.5808
392.687	27.5658
392.995	31.5874
393.303	27.5908
393.611	27.5859
393.919	48.9767
394.227	27.5998
394.534	36.9467
394.842	26.2293
395.15	38.2211
395.458	38.1568
395.764	52.7918
396.072	27.3574
396.38	42.007
396.687	37.9676
396.995	33.9335
397.303	44.5819
397.611	24.5061
397.918	39.1275
398.226	41.7459
398.534	45.689
398.842	41.6159
399.149	34.8619
399.457	34.7718
399.765	28.0445
400.071	30.6465
400.378	53.2243
400.686	45.1574
400.994	57.0589
401.301	40.9996
401.609	52.8764
401.917	50.1354
402.224	60.7107
402.532	42.0177
402.839	55.2311
403.145	45.8847
403.453	47.1621
403.76	47.0843
404.068	43.0543
404.375	57.6413
404.683	66.9211
404.99	66.9076
405.298	54.9481
405.603	65.5864
405.911	66.9205
406.218	66.896
406.526	66.8794
406.833	61.5376
407.141	72.1201
407.448	76.0358
407.754	73.2979
408.061	66.5606
408.368	63.7725
408.676	63.6347
408.983	70.1536
409.291	85.9375
409.598	71.2392
409.903	83.0215
410.211	71.0007
410.518	62.9615
410.825	86.6542
411.133	68.0672
411.44	87.8181
411.745	85.142
412.053	89.096
412.36	90.3668
412.667	79.7518
412.974	87.6249
413.282	86.253
413.587	98.0839
413.894	83.5003
414.201	64.9403
414.509	85.9831
414.816	76.7041
415.121	87.1778
415.428	100.256
415.735	89.5904
416.042	81.5636
416.35	102.51
416.655	105.023
416.962	90.4509
417.269	108.804
417.576	95.5967
417.883	102.095
418.188	91.4454
418.495	95.2367
418.802	109.529
419.109	108.068
419.414	107.938
419.721	109.09
420.029	101.033
420.336	100.823
420.643	125.493
420.948	108.345
421.254	91.2202
421.561	114.648
421.868	97.6246
422.173	98.93
422.48	105.52
422.787	89.9632
423.094	116.137
423.399	122.703
423.706	105.721
424.013	121.413
424.32	106.955
424.625	122.542
424.931	125.055
425.238	113.163
425.545	118.248
425.85	125.902
426.157	130.934
426.464	124.217
426.768	120.113
427.075	129.077
427.382	109.454
427.689	122.394
427.993	130.114
428.3	133.912
428.607	119.517
428.912	123.345
429.218	140.183
429.525	124.544
429.832	125.796
430.136	133.534
430.443	129.576
430.75	125.626
431.054	129.459
431.361	124.16
431.668	126.627
431.972	122.618
432.279	132.904
432.585	109.485
432.89	123.699
433.197	124.952
433.503	133.978
433.81	135.193
434.114	118.259
434.421	135.032
434.727	120.748
435.032	123.327
435.338	124.609
435.645	123.29
435.949	119.357
436.256	125.789
436.56	136.098
436.867	132.153
437.173	132.069
437.478	131.989
437.784	126.763
438.09	116.378
438.395	135.76
438.701	133.168
439.008	140.889
439.312	144.707
439.618	147.2
439.925	149.677
440.229	125.02
440.535	141.748
440.84	133.939
441.146	120.962
441.452	122.194
441.757	128.594
442.063	129.841
442.369	109.154
442.673	106.552
442.98	111.711
443.284	138.828
443.59	137.561
443.896	118.252
444.201	129.942
444.507	136.432
444.811	131.254
445.117	122.187
445.423	123.475
445.727	113.136
446.034	114.414
446.338	111.81
446.644	118.24
446.95	119.491
447.254	103.932
447.56	120.653
447.864	114.121
448.17	102.439
448.474	108.837
448.78	121.768
449.086	95.8728
449.39	112.555
449.696	102.192
450	93.0956
450.306	78.8908
450.61	99.4546
450.916	104.693
451.22	98.3561
451.526	97.2856
451.832	100.18
452.136	92.7247
452.442	104.381
452.746	93.9335
453.052	78.2383
453.356	90.9335
453.662	88.0041
453.966	87.5792
454.272	100.885
454.575	93.1554
454.881	90.5344
455.185	71.1593
455.491	89.2103
455.795	91.7795
456.101	68.5374
456.406	76.2845
456.71	85.3647
457.016	77.6543
457.32	75.1308
457.625	66.134
457.929	76.5474
458.235	71.4441
458.539	68.9463
458.844	67.7418
459.148	67.8245
459.454	65.2829
459.757	67.9225
460.063	60.1613
460.367	69.2426
460.672	53.6353
460.976	56.0953
461.28	53.3963
461.585	59.7812
461.889	53.2564
462.194	58.3907
462.498	51.9162
462.804	63.6127
463.107	45.503
463.413	45.506
463.716	55.8857
464.022	63.7279
464.325	57.2976
464.631	45.6761
464.934	39.2245
465.24	58.6373
465.543	48.2185
465.847	35.2966
466.152	36.65
466.456	61.309
466.761	39.3682
467.065	30.3957
467.37	47.3483
467.674	51.2717
467.979	42.2133
468.282	42.1994
468.586	34.3138
468.891	39.332
469.194	44.4474
469.5	44.4054
469.803	26.2689
470.108	50.8544
470.412	33.9894
470.715	28.7838
471.02	37.8268
471.324	42.9868
471.629	35.2066
471.932	35.2039
472.236	27.4239
472.541	39.0956
472.844	32.6627
473.149	23.6573
473.452	35.3954
473.756	32.8688
474.061	25.1367
474.364	31.6651
474.669	29.0871
474.972	32.9941
475.276	12.2184
475.581	42.0221
475.884	26.408
476.187	22.4748
476.492	35.3833
476.795	26.2466
477.1	22.3037
477.403	18.3661
477.707	24.775
478.012	18.2283
478.315	19.4652
478.618	22.0169
478.923	34.9367
479.226	22.0089
479.529	25.8953
479.834	20.7207
480.137	14.2417
480.44	28.4543
480.745	12.9296
481.048	19.4007
481.351	22.0008
481.656	13.0027
481.959	7.88261
482.261	20.7921
482.566	23.2858
482.869	20.6577
483.172	18.0745
483.477	9.02789
483.78	15.4864
484.083	24.5424
484.388	9.03786
484.691	12.9102
484.993	23.2299
485.298	15.4448
485.601	12.8356
485.904	7.61978
486.209	-6.64235
486.511	19.047
486.814	15.1227
487.119	0.89003
487.422	5.9933
487.724	20.1019
488.027	17.459
488.332	-8.34851
488.635	18.578
488.937	12.0798
489.242	10.7186
489.545	13.1983
489.847	1.59453
490.15	0.291916
490.455	0.261917
490.757	16.9105
491.06	10.4844
491.363	20.7322
491.667	7.93782
491.97	11.8279
492.272	-6.0889
492.575	8.06693
492.88	2.99716
493.182	1.77553
493.485	21.0765
493.787	10.8256
494.092	1.83186
494.394	5.6196
494.697	14.5297
494.999	14.4715
495.304	7.99313
495.606	2.80057
495.909	5.31973
496.211	0.126419
496.516	3.8945
496.818	6.36716
497.12	13.9631
497.423	-2.73257
497.727	-2.82278
498.03	13.6754
498.332	-1.69835
498.634	0.83577
498.937	5.93704
499.241	-0.330429
499.544	1.10173
499.846	1.21402
500.148	9.91777
500.451	-6.89607
500.755	3.34229
501.057	0.887497
501.359	9.76183
501.662	2.01117
501.964	-0.629288
502.268	-7.05753
502.571	1.66409
502.873	-7.14514
503.175	10.6748
503.477	12.0181
503.779	-6.89305
504.084	6.03816
504.386	2.2265
504.688	-5.44197
504.99	2.21315
505.292	-5.42543
505.596	2.23247
505.899	-6.67989
506.201	-4.18336
506.503	-1.66415
506.805	0.872849
507.107	-5.49005
507.409	-5.51062
507.713	-11.8856
508.015	12.2054
508.317	4.56747
508.619	-0.52301
508.921	9.61092
509.223	5.79672
509.525	-3.07634
509.829	-0.527969
510.131	-8.11923
510.433	-3.03462
510.735	2.04713
511.037	2.05838
511.339	4.59315
511.641	-1.75232
511.943	5.83008
512.247	3.27458
512.549	-3.06396
512.851	-5.60086
513.153	-8.15082
513.455	5.74161
513.757	-9.45509
514.058	0.646408
514.36	0.655396
514.662	-0.583008
514.966	-6.86641
515.268	-1.76927
515.57	-0.450562
515.871	3.41637
516.173	-2.82635
516.475	9.86411
516.777	12.4369
517.079	6.14
517.38	9.95117
517.682	-1.42572
517.984	12.5004
518.285	8.66687
518.589	2.24025
518.891	-2.80818
519.193	2.2711
519.494	6.11188
519.796	-11.5304
520.098	4.96329
520.399	-2.53607
520.701	2.6205
521.003	0.155792
521.304	4.03127
521.606	-2.21991
521.907	-3.44571
522.209	-0.894867
522.511	-5.98228
522.812	-2.22906
523.114	5.34155
523.415	1.52927
523.717	-3.54355
524.018	5.29268
524.32	-4.84911
524.621	-1.11191
524.923	5.20245
525.224	9.02881
525.528	-2.26213
525.829	2.88303
526.131	8.02315
526.432	10.6708
526.734	-0.597946
527.035	2.00551
527.337	-2.99716
527.638	12.2476
527.939	4.68213
528.241	-4.16884
528.542	14.7959
528.844	10.9513
529.145	5.90761
529.446	-4.19818
529.748	-4.18523
530.049	-1.6517
530.35	0.898193
530.652	12.3203
530.951	-12.8867
531.252	4.93137
531.553	-10.1742
531.855	-5.05843
532.156	-12.6033
532.457	2.66246
532.758	4.00635
533.06	-0.996094
533.361	0.320374
533.662	-3.44617
533.963	-13.5596
534.264	-2.15289
534.566	-7.19835
534.867	13.0835
535.168	8.04599
535.469	-18.5115
535.77	-2.01479
536.071	1.81737
536.373	0.598938
536.674	-3.14053
536.975	-0.544327
537.276	7.12654
537.575	7.20107
537.876	11.0811
538.177	-0.248444
538.478	-0.152313
538.779	-13.9932
539.08	0.0872498
539.381	-1.09903
539.682	4.03682
539.983	-1.00928
540.284	0.29895
540.585	1.58636
540.886	5.40991
541.185	0.362259
541.486	-4.69194
541.787	10.5483
542.088	0.409485
542.389	4.24579
542.69	-3.32715
542.991	6.87062
543.292	4.38463
543.593	-1.9003
543.893	3.22456
544.192	5.81636
544.493	3.3391
544.794	5.95076
545.095	9.83774
545.396	8.63091
545.696	6.15718
545.997	6.21063
546.298	6.20683
546.597	-1.39275
546.898	3.69484
547.198	6.27739
547.499	5.06465
547.8	8.93393
548.101	12.8139
548.401	2.79999
548.7	0.351288
549.001	0.430313
549.301	9.40973
549.602	9.4863
549.903	4.45943
550.203	13.4108
550.502	18.5475
550.803	12.2277
551.103	7.15622
551.404	10.9643
551.705	0.817841
552.005	9.73445
552.304	8.47571
552.604	16.1222
552.905	4.75682
553.205	9.87816
553.506	4.83765
553.807	9.94991
554.105	12.5232
554.406	7.46001
554.706	6.18312
555.007	11.3543
555.307	15.295
555.606	8.9682
555.906	8.97485
556.207	17.8785
556.507	16.6627
556.807	26.866
557.106	2.81042
557.406	13.0087
557.707	13.0589
558.007	18.1851
558.305	28.3803
558.606	28.4072
558.906	24.6178
559.207	22.0961
559.507	19.6051
559.805	25.9933
560.106	20.9685
560.406	28.6165
560.706	17.2539
561.005	12.2374
561.305	31.2842
561.605	5.98566
561.906	22.5018
562.204	26.356
562.504	18.814
562.804	32.8183
563.104	36.7257
563.403	33.0187
563.703	31.8249
564.003	24.2727
564.303	36.9781
564.602	31.9144
564.902	31.9405
565.202	29.442
565.5	29.4896
565.8	42.2014
566.1	34.6325
566.4	35.9556
566.699	37.2684
566.999	38.5616
567.299	30.9834
567.597	47.4789
567.897	36.1475
568.197	36.1771
568.497	39.9769
568.795	51.0667
569.095	41.0024
569.395	33.2916
569.693	27.4875
569.993	36.471
570.293	45.9002
570.591	40.8591
570.891	30.2229
571.191	48.5175
571.491	40.0034
571.789	63.2395
572.089	51.6044
572.389	46.0968
572.687	43.4659
572.987	48.0725
573.287	44.1754
573.584	59.9295
573.884	51.9492
574.184	49.6279
574.482	58.9011
574.782	45.3758
575.082	63.1245
575.38	49.7483
575.679	65.5173
575.977	59.2429
576.277	60.3422
576.577	56.5109
576.875	62.3104
577.174	52.0478
577.474	57.0221
577.772	62.3346
578.072	66.6568
578.371	64.1392
578.669	74.2498
578.969	69.305
579.266	71.0909
579.566	78.2237
579.866	61.7036
580.164	70.1871
580.463	78.638
580.763	70.6712
581.06	72.9479
581.36	69.7762
581.658	72.1936
581.957	75.3477
582.257	74.987
582.555	77.8752
582.854	79.4107
583.152	79.7853
583.451	74.233
583.751	77.83
584.048	73.6677
584.348	79.7193
584.645	74.4147
584.945	93.2459
585.242	89.0927
585.542	88.4303
585.841	89.9374
586.139	88.0203
586.438	88.6205
586.736	93.9714
587.035	91.7724
587.333	94.5349
587.632	96.2417
587.932	98.2663
588.229	98.6463
588.528	99.4679
588.826	99.7222
589.125	100.677
589.422	102.875
589.722	103.237
590.019	104.869
590.319	100.458
590.616	91.3944
590.915	95.8178
591.214	107.509
591.512	117.439
591.811	116.553
592.108	110.851
592.408	104.422
592.705	123.998
593.004	121.662
593.301	119.629
593.601	116.178
593.898	117.899
594.197	124.943
594.494	116.383
594.793	124.783
595.091	121.623
595.39	135.764
595.687	123.244
595.986	130.802
596.283	116.825
596.582	133.132
596.879	125.216
597.179	134.586
597.476	134.09
597.492	134.035
597.793	146.508
598.094	155.211
598.397	130.457
598.698	141.529
598.999	153.713
599.3	146.04
599.602	140.026
599.903	151.344
600.206	147.876
600.507	164.19
600.808	139.56
601.109	152.018
601.41	155.808
601.711	169.448
602.012	158.334
602.315	158.298
602.616	175.525
602.917	170.596
603.218	178.017
603.518	159.505
603.819	145.951
604.12	170.673
604.423	158.383
604.724	164.616
605.025	191.878
605.326	162.397
605.627	168.666
605.928	173.708
606.228	165.183
606.529	162.823
606.832	187.61
607.133	177.805
607.434	184.051
607.734	166.9
608.035	191.724
608.336	199.21
608.637	186.905
608.938	190.625
609.238	184.458
609.541	177.055
609.842	175.819
610.143	185.691
610.443	186.934
610.744	186.944
611.045	194.35
611.345	200.533
611.646	211.656
611.947	199.4
612.247	190.864
612.548	198.357
612.851	189.891
613.151	194.933
613.452	198.712
613.752	207.41
614.053	202.55
614.353	195.229
614.654	189.141
614.955	202.757
615.255	210.218
615.556	189.399
615.856	189.519
616.157	199.482
616.457	195.9
616.758	213.299
617.058	189.948
617.359	191.315
617.659	200.15
617.962	196.705
618.262	199.376
618.563	200.801
618.863	203.479
619.163	206.192
619.464	190.368
619.764	186.856
620.065	187.036
620.365	192.102
620.665	177.316
620.966	211.992
621.266	193.521
621.566	176.298
621.867	191.169
622.167	213.392
622.467	202.329
622.768	182.639
623.068	195.066
623.368	185.29
623.668	201.454
623.969	186.733
624.269	204.154
624.569	194.422
624.869	184.725
625.17	180.007
625.47	187.64
625.77	194.032
626.07	158.275
626.37	162.095
626.67	179.499
626.971	178.319
627.271	185.798
627.571	158.755
627.871	163.958
628.171	181.499
628.471	154.238
628.771	177.855
629.071	163.121
629.372	173.184
629.672	169.632
629.972	163.599
630.272	167.479
630.57	161.43
630.87	171.51
631.17	172.869
631.47	158.08
631.77	160.605
632.07	166.867
632.37	137.19
632.67	153.429
632.97	142.407
633.27	151.242
633.57	147.636
633.87	156.418
634.169	152.81
634.469	155.367
634.769	145.517
635.069	146.844
635.369	143.211
635.667	145.781
635.967	155.801
636.267	153.398
636.566	147.276
636.866	138.665
637.166	143.709
637.466	136.385
637.766	117.906
638.065	132.941
638.365	121.92
638.665	133.23
638.963	129.577
639.263	117.203
639.562	124.744
639.862	128.562
640.162	124.896
640.461	117.517
640.761	117.633
641.061	110.317
641.361	122.869
641.66	129.23
641.958	120.698
642.258	119.619
642.557	122.272
642.857	105.051
643.156	106.499
643.456	107.938
643.756	103.116
644.053	103.258
644.353	110.864
644.652	103.482
644.952	107.271
645.251	102.333
645.551	111.079
645.851	101.185
646.148	104.976
646.448	98.8417
646.747	90.2346
647.047	90.3234
647.346	94.1414
647.646	90.4999
647.945	95.5659
648.242	109.339
648.542	100.735
648.841	89.6418
649.141	94.7011
649.44	78.6123
649.74	92.3493
650.037	87.4473
650.336	80.0678
650.636	83.8637
650.935	93.8561
651.234	96.4121
651.532	95.2466
651.831	84.146
652.13	84.2259
652.43	80.5886
652.729	81.9258
653.028	91.9595
653.326	82.1368
653.625	87.221
653.924	66.2325
654.223	84.9834
654.523	86.3457
654.82	74.0332
655.119	95.2411
655.418	71.7236
655.718	76.7831
656.015	74.3911
656.314	69.5064
656.613	80.7592
656.912	78.3613
657.211	69.7454
657.509	80.9462
657.808	80.9436
658.107	84.7222
658.406	66.1944
658.703	78.6556
659.002	73.7813
659.301	70.1672
659.6	65.2985
659.897	52.9604
660.196	74.1054
660.496	67.9648
660.795	71.7674
661.092	63.1929
661.391	73.2396
661.69	65.9297
661.989	63.5554
662.286	59.9141
662.585	62.4328
662.884	68.6162
663.183	62.4484
663.479	64.9289
663.778	56.2966
664.077	45.2352
664.376	54.1194
664.673	66.5285
664.972	64.1316
665.271	46.905
665.568	61.7979
665.867	54.4457
666.166	59.4473
666.464	57.0398
666.761	58.3345
667.06	41.1151
667.359	64.6183
667.656	54.8034
667.955	64.7243
668.253	38.8915
668.552	53.7413
668.849	56.2461
669.148	48.8873
669.446	50.169
669.743	44.0662
670.042	50.2683
670.341	42.9416
670.637	61.4624
670.936	49.2284
671.235	45.6049
671.531	34.6261
671.83	47.0258
672.129	48.3425
672.425	54.5588
672.724	47.2491
673.023	53.4577
673.319	40.0079
673.618	49.8796
673.917	41.324
674.213	51.1728
674.512	32.8199
674.81	46.352
675.107	42.7346
675.405	47.7021
675.704	39.1984
676.001	44.1665
676.299	34.4473
676.598	44.3242
676.894	37.0593
677.193	42.0192
677.491	31.0716
677.788	43.3782
678.086	34.8962
678.383	36.1783
678.681	45.9838
678.979	52.0945
679.276	41.1295
679.574	35.0827
679.873	37.6086
680.169	37.6719
680.467	40.1533
680.764	40.2402
681.062	24.5242
681.361	35.5791
681.657	36.8288
681.955	39.1583
682.252	35.534
682.55	33.1485
682.848	35.6427
683.145	36.9315
683.443	40.6576
683.739	29.8119
684.037	32.341
684.336	26.3722
684.632	39.8503
684.93	32.6778
685.226	34.0098
685.525	40.2044
685.823	39.1009
686.119	29.4682
686.417	28.3296
686.713	40.5698
687.012	39.4412
687.308	26.1529
687.606	34.7337
687.904	20.2216
688.2	36.08
688.498	24.0138
688.794	15.5922
689.093	30.2332
689.389	37.5822
689.687	24.3021
689.983	23.1668
690.281	31.7427
690.577	28.1892
690.875	16.1433
691.173	17.4351
691.469	15.0633
691.767	32.0541
692.063	28.4724
692.361	21.2888
692.657	25.0157
692.955	27.525
693.251	16.6813
693.549	25.2546
693.845	20.5648
694.143	29.2701
694.439	27.0592
694.737	40.4706
695.033	23.561
695.331	24.8349
695.626	24.8943
695.924	28.5901
696.22	25.0155
696.518	19.0197
696.814	20.2835
697.112	26.3893
697.408	16.7818
697.705	28.9261
698.001	27.7374
698.299	28.9737
698.595	20.559
698.893	32.6743
699.188	23.0787
699.486	29.1828
699.782	30.4798
700.08	23.3635
700.375	21.0832
700.673	19.9976
700.969	20.1146
701.267	16.6265
701.562	24.01
701.86	20.5142
702.156	14.5888
702.453	20.7345
702.749	28.069
703.047	24.5369
703.342	23.424
703.638	13.8375
703.936	27.2248
704.231	15.2255
704.529	16.5095
704.824	18.9836
705.122	20.2412
705.417	19.0911
705.715	13.1189
706.011	13.2052
706.306	24.1728
706.604	20.6967
706.899	16.0008
707.197	16.13
707.492	17.4778
707.79	16.4206
708.085	15.373
708.381	22.7553
708.678	11.9503
708.974	9.62574
709.271	12.1507
709.566	15.8811
709.864	15.9742
710.159	18.4927
710.455	16.1726
710.752	21.1121
711.048	13.9438
711.345	18.8747
711.64	16.5387
711.936	16.6176
712.233	9.44157
712.528	19.1976
712.824	12.025
713.121	14.5378
713.416	8.59402
713.714	8.69341
714.009	20.8855
714.304	18.5489
714.601	4.10603
714.897	21.1139
715.194	12.7311
715.489	12.8051
715.784	5.60379
716.082	12.9344
716.377	9.39771
716.672	11.9119
716.969	21.6907
717.264	9.72557
717.56	14.7265
717.857	10.0109
718.152	10.1321
718.447	9.05818
718.744	15.2687
719.039	15.4174
719.336	16.7755
719.632	8.41977
719.927	15.8349
720.224	6.23739
720.519	6.3452
720.814	6.44667
721.111	15.0704
721.406	12.7484
721.701	9.20576
721.998	0.797249
722.293	6.98021
722.588	11.9422
722.883	3.53127
723.18	9.71133
723.475	2.49017
723.77	14.7245
724.067	1.41811
724.362	16.075
724.657	10.0683
724.954	13.7766
725.249	7.77681
725.544	-1.85738
725.841	5.51672
726.135	0.762672
726.43	8.18003
726.725	10.7668
727.022	1.17282
727.317	-3.57095
727.612	-1.0089
727.909	16.1988
728.203	4.14212
728.498	-5.5027
728.793	1.91703
729.09	9.33036
729.385	6.97839
729.679	4.62212
729.976	7.14478
730.271	8.43307
730.566	4.83711
730.86	3.68073
731.157	6.18846
731.452	9.90703
731.747	2.66467
732.041	6.38553
732.338	8.89803
732.633	0.471016
732.927	6.6654
733.222	1.89327
733.519	9.31384
733.813	-0.329529
734.108	5.87171
734.403	1.10746
734.699	4.8778
734.994	0.100243
735.288	-3.46661
735.583	5.17604
735.878	1.62609
736.174	-4.37564
736.469	-0.610809
736.763	4.38489
737.058	-1.60986
737.354	7.04626
737.649	-0.191605
737.943	9.68009
738.238	7.32577
738.532	2.52356
738.829	1.38455
739.123	-5.86925
739.418	2.76334
739.712	6.50269
740.007	9.01735
740.303	-3.12697
740.598	4.27452
740.892	-0.552521
741.186	-6.59878
741.481	-4.08541
741.777	6.97045
742.071	-0.276024
742.366	7.13006
742.66	-2.53664
742.955	-1.22729
743.249	-1.13827
743.545	-3.47855
743.84	-3.3793
744.134	2.82195
744.428	4.13902
744.722	0.571693
745.017	10.4433
745.313	5.65497
745.607	3.29352
745.901	0.929428
746.196	3.45372
746.49	-5.01981
746.784	-0.0644836
747.08	-4.87598
747.375	8.6339
747.669	-4.71725
747.963	-4.63103
748.257	-5.76584
748.551	4.08161
748.845	6.58997
749.14	-5.55365
749.436	6.71712
749.73	6.78198
750.024	-4.13202
750.318	-5.28413
750.612	-2.77641
750.906	4.60901
751.2	-3.85808
751.494	2.28776
751.79	-1.3137
752.085	-6.10535
752.379	-4.79929
752.673	5.04364
752.967	-2.15188
753.261	2.84375
753.555	1.73958
753.849	11.6144
754.143	0.742027
754.437	-2.8219
754.733	3.35854
755.026	9.52876
755.32	-1.40112
755.614	1.05598
755.908	-2.61242
756.202	4.70063
756.496	-0.145485
756.79	-0.113434
757.084	4.81104
757.378	1.28454
757.672	2.61896
757.966	-3.38209
758.261	-5.7562
758.555	5.23929
758.849	0.457489
759.143	0.504532
759.437	-4.32949
759.73	-3.06633
760.024	0.631104
760.318	6.76015
760.612	1.9948
760.906	3.29536
761.199	-3.89556
761.493	-0.178391
761.787	-3.75174
762.081	-3.64138
762.374	1.32346
762.668	7.4677
762.962	-4.6137
763.255	5.10818
763.549	2.73433
763.843	-2.03725
764.136	2.87989
764.43	5.37521
764.724	1.80836
765.017	-4.17873
765.311	-0.480072
765.604	-4.05047
765.9	-2.77608
766.194	-0.291245
766.487	2.19466
766.781	7.10194
767.074	2.32126
767.368	8.42598
767.661	2.44332
767.955	2.51117
768.249	1.37205
768.542	0.22805
768.836	3.91954
769.127	2.79692
769.421	6.50299
769.714	-0.677483
770.008	3.00718
770.301	4.26644
770.594	-2.94331
770.888	4.34
771.181	-1.6544
771.475	-2.81268
771.768	5.66402
772.061	-0.309944
772.355	-5.06802
772.648	5.81534
772.942	2.25938
773.235	9.55059
773.528	2.40397
773.822	1.29853
774.115	4.98368
774.408	3.86308
774.702	5.14217
774.995	0.415642
775.288	1.69717
775.582	2.96648
775.875	-0.569603
776.168	9.15327
776.461	-1.60701
776.753	4.44016
777.046	2.03491
777.339	1.96245
777.632	6.56577
777.925	1.83004
778.219	4.38013
778.512	6.82744
778.805	11.7129
779.098	3.46135
779.391	8.33176
779.685	1.21678
779.978	8.45161
780.269	1.33389
780.562	1.42605
780.855	1.51308
781.148	5.1699
781.441	5.23315
781.734	8.87627
782.027	7.73069
782.32	-1.78043
782.614	5.43876
782.907	3.10358
783.198	4.35171
783.491	5.60442
783.784	-0.276718
784.077	9.34942
784.37	14.1889
784.663	9.47761
784.956	-0.0102539
785.249	3.62916
785.54	10.846
785.833	6.13444
786.126	4.99905
786.418	7.44355
786.711	6.30721
787.004	0.404366
787.297	12.3719
787.588	4.0885
787.881	6.52637
788.174	5.3761
788.467	8.98796
788.76	4.24706
789.052	0.668434
789.345	5.4799
789.636	12.737
789.929	9.38904
790.222	4.7299
790.515	0.0147858
790.807	3.68243
791.1	3.76029
791.391	11.9893
791.684	3.66226
791.976	10.8175
792.269	8.53444
792.562	3.89713
792.855	9.88136
793.145	7.56109
793.438	7.61252
793.731	10.0499
794.023	8.92432
794.316	5.46235
794.607	6.76188
794.899	8.05175
795.192	9.34048
795.485	4.6979
795.777	9.55116
796.068	3.51475
796.361	11.7553
796.653	4.88873
796.946	7.56721
797.236	11.1864
797.529	12.3534
797.822	1.39661
798.114	14.3067
798.407	14.3188
798.697	13.2778
798.99	6.35387
799.282	13.478
799.575	12.4557
799.865	10.1758
800.158	13.8135
800.45	11.5179
800.743	8.0203
801.033	15.1761
801.326	14.052
801.618	14.1197
801.911	15.3475
802.201	11.8814
802.493	10.7695
802.786	4.94765
803.078	12.1181
803.369	13.375
803.661	14.6322
803.953	6.44286
804.246	11.2431
804.536	11.3296
804.828	19.7002
805.121	9.14655
805.413	8.03638
805.703	15.1897
805.996	8.161
806.288	21.2089
806.578	11.8148
806.87	10.691
807.163	10.7471
807.455	7.2721
807.745	8.53175
808.037	19.261
808.33	8.7205
808.62	11.1637
808.912	21.8742
809.204	19.566
809.495	11.3657
809.787	7.88937
810.079	15.0392
810.371	11.5553
810.661	12.7997
810.953	14.0447
811.245	17.6536
811.536	17.7188
811.828	15.4211
812.12	21.3976
812.41	13.2249
812.702	16.8538
812.994	14.5755
813.284	11.1175
813.576	17.1125
813.868	17.2176
814.158	14.9398
814.45	5.55425
814.742	3.25193
815.032	15.1173
815.324	16.345
815.616	11.6683
815.906	17.6153
816.198	17.665
816.49	13.0018
816.78	18.9452
817.072	21.3526
817.362	10.8077
817.654	14.4103
817.946	16.8404
818.236	16.9354
818.528	11.1572
818.82	7.70753
819.11	19.5753
819.401	7.84871
819.691	17.356
819.983	6.80801
820.275	6.87155
820.565	21.0808
820.857	12.8827
821.148	10.5851
821.438	16.5454
821.73	9.56588
822.02	14.3739
822.312	23.9154
822.603	16.94
822.893	18.2129
823.185	14.7567
823.475	11.2905
823.766	10.177
824.056	14.9689
824.348	13.8601
824.639	15.112
824.929	18.7314
825.221	18.8
825.511	16.4961
825.802	23.6296
826.094	11.9
826.383	17.8799
826.675	26.2125
826.965	10.9389
827.256	19.2739
827.546	15.8071
827.838	8.8016
828.127	17.145
828.419	18.413
828.71	17.3261
829	17.4241
829.291	15.1604
829.581	23.5266
829.872	18.8827
830.162	13.0482
830.454	16.6668
830.743	22.6498
831.035	23.9024
831.324	14.5161
831.616	14.597
831.907	21.7747
832.196	17.1183
832.488	23.103
832.777	18.4491
833.069	18.5285
833.358	19.7918
833.65	18.6895
833.939	17.5933
834.23	17.6885
834.52	21.3393
834.811	16.6901
835.101	21.5056
835.392	19.2114
835.681	19.2827
835.973	20.5247
836.262	19.4004
836.553	23.024
836.843	17.1699
837.134	25.5153
837.423	19.6519
837.714	17.3435
838.004	24.5125
838.295	17.4816
838.584	15.1872
838.875	11.7115
839.165	11.7882
839.456	21.3396
839.745	17.8704
840.034	15.5843
840.326	21.5862
840.615	18.1066
840.906	22.9066
841.195	24.1447
841.486	13.5452
841.775	19.5201
842.067	16.0265
842.356	29.0999
842.647	18.5129
842.936	20.9409
843.225	11.551
843.516	17.5419
843.805	14.0769
844.096	11.7991
844.385	17.801
844.676	16.7
844.965	14.4111
845.256	13.2943
845.546	14.5416
845.835	14.6037
846.126	20.5873
846.415	15.9207
846.706	20.7321
846.995	20.8295
847.284	13.8252
847.574	16.292
847.863	17.5715
848.154	18.8531
848.443	20.127
848.732	17.8247
849.023	21.4202
849.312	25.0173
849.603	15.6093
849.892	15.6805
850.181	21.6765
850.472	15.8233
850.76	14.7097
851.051	11.2271
851.34	12.4847
851.629	13.7381
851.92	17.3601
852.209	18.6219
852.5	15.1478
852.788	22.3341
853.077	12.9187
853.368	15.3472
853.657	8.2911
853.945	19.0069
854.236	11.9522
854.525	14.3775
854.814	14.4551
855.104	15.72
855.393	14.6165
855.684	17.0583
855.972	8.83497
856.261	10.0861
856.552	11.3457
856.841	7.85775
857.129	12.6465
857.42	20.9758
857.708	18.6528
857.997	18.7006
858.288	12.8416
858.576	8.19645
858.865	10.6373
859.156	4.79112
859.444	16.6809
859.733	6.10083
860.023	10.8889
860.312	15.6551
860.6	5.07859
860.889	11.0468
861.179	9.93445
861.468	15.9413
861.757	13.664
862.047	7.82455
862.336	10.2501
862.624	11.4915
862.914	9.18798
863.203	10.4212
863.491	10.4444
863.78	10.4899
864.07	2.29805
864.359	11.8051
864.647	2.43501
864.938	10.7572
865.226	12.0069
865.514	12.0809
865.803	7.43746
866.093	2.79969
866.381	1.708
866.67	1.78078
866.96	4.20486
867.248	1.902
867.537	1.94793
867.825	-0.349773
868.115	5.60443
868.404	9.19715
868.692	6.89862
868.98	6.95991
869.271	1.1331
869.559	5.91395
869.847	4.80404
870.135	14.2971
870.426	-2.1324
870.714	-4.42444
871.002	2.70749
871.29	1.59451
871.58	0.482887
871.869	8.7915
872.157	4.14511
872.445	-0.50058
872.733	7.80244
873.023	-0.38203
873.311	2.03339
873.6	0.918781
873.888	0.981174
874.176	1.04605
874.466	-4.76814
874.754	2.36076
875.042	-2.28216
875.33	4.83771
875.62	-0.984119
875.908	0.24913
876.196	7.3585
876.484	1.53831
876.772	-1.92624
877.06	-6.56424
877.35	0.545368
877.638	4.12288
877.926	3.00259
878.214	-2.81155
878.502	3.11744
878.792	3.17833
879.08	-1.45445
879.368	2.12966
879.656	-0.151814
879.944	2.26041
880.232	2.32381
880.522	1.21254
880.81	0.109528
881.098	-0.9837
881.386	-5.60408
881.674	2.6897
881.961	3.93825
882.251	0.487904
882.539	-0.618683
882.827	-2.90895
883.115	-4.02917
883.403	4.24233
883.69	-0.404984
883.978	-0.362652
884.268	-0.321243
884.556	-2.6208
884.844	-2.57893
885.131	3.30597
885.419	-1.34159
885.707	-5.97955
885.995	-2.43302
886.282	-3.56341
886.572	-2.35122
886.86	-2.28717
887.147	1.29403
887.435	3.72503
887.723	-3.19815
888.011	-0.785378
888.298	-1.88408
888.586	0.51844
888.874	-2.93075
889.163	0.640491
889.451	-2.7939
889.738	1.94888
890.026	-5.00551
890.314	-0.268818
890.601	-2.54668
890.889	4.52284
891.176	-7.11089
891.464	5.79234
891.752	-2.33552
892.039	-2.28477
892.327	-5.73564
892.616	-5.68464
892.904	-2.13527
893.191	-3.25808
893.479	-0.888771
893.766	-2.01583
894.054	-3.13924
894.341	-0.76786
894.629	0.443005
894.916	0.496155
895.203	-4.1015
895.491	-1.72355
895.778	-3.99244
896.066	-1.60345
896.353	0.789173
896.641	-1.46507
896.928	-0.224697
897.215	-0.142044
897.503	-9.37779
897.79	3.5096
898.077	0.0790863
898.367	-2.19053
898.654	-6.79519
898.941	-0.920547
899.229	3.77927
899.516	-2.00092
899.803	-5.45109
900.091	-3.08353
900.378	-4.20387
900.665	-1.83367
900.952	-2.94506
901.24	-2.89093
901.527	-6.31886
901.814	-1.60818
902.101	-6.19129
902.389	-3.80507
902.676	-1.41045
902.963	-0.172432
903.25	-3.59619
903.537	-5.868
903.825	-5.81423
904.112	-4.58495
904.399	-2.20617
904.686	3.64101
904.973	-4.46985
905.26	2.52536
905.545	4.87616
905.833	-4.36876
906.12	-0.852215
906.407	-3.12537
906.694	-4.23233
906.981	-4.17782
907.268	-2.95419
907.555	-1.71126
907.842	1.84647
908.129	-0.401134
908.416	0.826668
908.703	-2.59461
908.99	0.947536
909.277	-2.48858
909.564	-2.44327
909.851	-3.5632
910.138	-1.1997
910.425	1.16025
910.712	-4.60881
910.999	-1.09707
911.284	2.41031
911.571	-5.66953
911.858	-5.62983
912.145	-4.42667
912.432	-2.06096
912.718	0.293972
913.005	2.64671
913.292	-4.24421
913.579	-3.04229
913.866	-3.00009
914.153	0.511589
914.44	-1.75436
914.724	-5.17308
915.011	-2.81645
915.298	-0.461079
915.585	-1.5642
915.872	-1.50708
916.158	-1.45385
916.445	0.909721
916.732	2.11723
917.019	-5.92432
917.303	2.21611
917.59	-2.35987
917.877	-3.4689
918.164	-2.27224
918.45	-3.38907
918.737	-2.19415
919.024	1.31523
919.31	-3.26244
919.595	-2.06777
919.882	-0.879257
920.168	1.465
920.455	-4.26442
920.742	0.392536
921.028	-3.02225
921.315	-0.663212
921.6	-7.54152
921.886	-4.03876
922.173	-1.6913
922.459	-3.95939
922.746	-5.07189
923.032	-2.72832
923.319	-3.84327
923.604	-2.65206
923.89	-4.91951
924.177	0.883095
924.463	3.22952
924.75	-1.3379
925.034	-1.29609
925.321	-3.5648
925.607	-0.0714684
925.894	-4.63749
926.18	-4.59852
926.466	-2.26088
926.751	1.22279
927.037	-1.05188
927.324	0.125744
927.61	3.60438
927.897	-0.96666
928.181	-5.53379
928.467	-2.05308
928.754	-2.01992
929.04	-1.9817
929.326	-3.08887
929.611	-1.89199
929.897	-1.844
930.184	1.64288
930.47	-1.76865
930.754	0.567303
931.041	-2.85085
931.327	-6.26969
931.613	1.80885
931.899	-0.461487
932.184	-5.03011
932.47	-6.14873
932.756	1.92211
933.042	-4.93722
933.327	-1.46531
933.613	-3.73246
933.899	0.889965
934.185	2.06782
934.47	2.09688
934.756	-0.169884
935.042	-0.146767
935.328	-1.26993
935.612	-2.39347
935.898	1.06367
936.185	-2.34692
936.471	1.11623
936.755	-3.43464
937.041	0.0330429
937.327	-2.2222
937.613	-6.7664
937.897	3.58286
938.183	2.48183
938.469	-0.910835
938.753	2.56163
939.04	2.59096
939.326	0.310669
939.612	0.314507
939.896	-6.52884
940.182	-4.20594
940.468	0.408028
940.752	-1.85519
941.038	2.7481
941.324	3.87723
941.608	-4.15938
941.894	2.70497
942.18	-2.9465
942.466	-1.76707
942.75	-1.77181
943.035	-4.04758
943.321	-2.86189
943.605	1.75418
943.891	4.08575
944.177	-0.448227
944.461	-0.421051
944.747	-3.82887
945.033	-0.384003
945.317	-0.370975
945.602	1.92344
945.888	-1.48608
946.172	0.810799
946.458	-0.313152
946.744	-4.85529
947.028	0.867428
947.313	-0.24984
947.599	-3.64124
947.883	-1.32888
948.169	-3.58673
948.452	-3.56391
948.738	-5.82234
949.024	4.46656
949.308	1.06581
949.593	-2.33691
949.879	-3.4618
950.163	-0.0297394
950.448	2.25967
950.732	-2.28655
951.018	1.14249
951.303	1.15333
951.587	-2.25188
951.873	-5.65508
952.158	-3.36414
952.442	-3.34693
952.728	0.0834694
953.011	-1.03648
953.297	-4.43027
953.583	-2.13569
953.866	-4.39186
954.152	0.17654
954.435	-2.07935
954.721	-0.919529
955.006	0.241802
955.29	2.53901
955.576	1.41746
955.859	-1.98152
956.145	3.72017
956.428	-1.95602
956.714	0.32962
956.999	-4.20773
957.283	-1.92606
957.568	-4.189
957.852	-1.90488
958.137	2.64638
958.42	-1.88981
958.706	-5.28703
958.991	-1.86771
959.275	-1.85102
959.56	1.56808
959.844	-0.68581
960.129	-2.94306
960.412	-5.20226
960.698	-0.654556
960.981	-1.78936
961.266	-1.7948
961.552	-1.79014
961.835	-0.644623
962.12	-2.89787
962.404	0.516697
962.689	-0.600758
962.972	-0.583977
963.258	-1.69564
963.541	-1.67471
963.826	-2.79519
964.109	-2.78941
964.395	-7.32516
964.678	-3.96103
964.963	-1.70663
965.246	0.551743
965.532	-5.10088
965.815	-1.68275
966.1	-4.9306
966.383	-1.47601
966.668	-3.81978
966.952	-2.66754
967.237	-2.61951
967.52	0.78405
967.805	-0.375965
968.088	-2.66879
968.373	-2.69371
968.657	2.9565
968.942	-0.441456
969.225	0.705303
969.51	-6.06437
969.793	-0.40731
970.078	-4.9164
970.361	1.87116
970.646	-2.6314
970.929	1.89663
971.212	-4.87277
971.497	-1.47622
971.78	0.792782
972.065	0.80024
972.348	-3.71122
972.633	-2.57607
972.916	-2.56811
973.201	-3.69127
973.484	0.825977
973.769	-2.55217
974.052	-2.5433
974.335	-0.272591
974.62	0.878658
974.903	2.02813
975.188	2.04208
975.471	-2.46617
975.756	-2.45645
976.039	0.938934
976.322	-2.43958
976.606	-1.30357
976.889	-5.80928
977.174	-8.05694
977.457	-3.53707
977.742	-1.27638
978.025	-2.39992
978.307	-4.64731
978.592	-3.50978
978.875	2.13956
979.16	-2.35854
979.443	-2.34753
979.725	-5.71551
980.01	-2.3222
980.293	-0.0530396
980.576	-2.29217
980.86	-0.0106277
981.143	0.00799179
981.428	-6.74607
981.711	-3.34538
981.993	-3.33085
982.278	-1.06312
982.561	-4.43849
982.845	-2.18096
983.128	-4.43685
983.411	-2.18479
983.695	0.074585
983.978	-5.54554
984.261	-3.28767
984.545	-1.03027
984.828	-1.02948
985.111	1.21976
985.395	-3.26861
985.678	-3.26143
985.96	2.36672
986.245	-2.11279
986.527	-4.33972
986.81	2.41812
987.095	-0.938511
987.377	2.43943
987.66	-6.53155
987.944	-4.27008
988.227	0.234627
988.509	-3.11791
988.794	-7.59132
989.076	-4.20946
989.359	-1.94691
989.643	-0.805901
989.926	-4.15027
990.208	1.47884
990.492	-2.98099
990.775	1.5344
991.057	-0.677238
991.342	-6.25162
991.624	-2.84209
991.907	-1.6868
992.189	-8.40092
992.473	-1.63646
992.756	-1.61419
993.038	-0.469887
993.322	-1.56953
993.605	0.702705
993.887	0.72316
994.169	-0.385418
994.454	0.743458
994.736	0.776154
995.018	0.820042
995.303	-5.86527
995.585	-0.199284
995.867	-4.64602
996.149	-4.58435
996.434	-2.28476
996.716	1.14637
996.998	1.18932
997.28	0.110012
997.565	1.26509
997.847	-2.11262
998.129	1.27066
998.411	-5.45589
998.695	-3.20392
998.978	-2.0584
999.26	-1.98401
999.542	-2.99222
999.826	-2.92889
