#Acq. time (s)=	30
#Accumulations=	2
#Range (cm-¹)=	1200...2365
#Windows=	3
#Auto scanning=	Off
#Autofocus=	Off
#Macrospot=	Off
#AutoExposure=	Off
#Spike filter=	Multiple accum.
#Delay time (s)=	2
#Binning=	1
#Readout mode=	Signal
#DeNoise=	Off
#ICS correction=	On
#Dark correction=	Off
#Inst. Process=	Off
#Detector Gain=	Best Dynamic
#Detector ADC=	50 kHz HS
#Detector temperature (°C)=	-60.09
#Instrument=	LabRAM HR Evol
#Detector=	SIN-EM FIVIS
#Objective=	x100_VIS_LWD
#Grating=	1800 (450-850nm)
#ND Filter=	100%
#Laser=	532nm_Edge
#Hole=	100.021
#Temperature=	0
#Range=	Visible
#StageXY=	75x50mm Scan+
#StageZ=	Z motor
#X (µm)=	0
#Y (µm)=	0
#Z (µm)=	-1.6
#Full time(mm:ss)=	3:11
#Project=	21_11_26
#Sample=	BU19(2)w
#Site=	
#Title=	BU19(2)w-A-FF1b-FI01-V_1800 (450-850nm)_532nm_Edge_100%_x100_VIS_LWD_H100um_30sX2
#Remark=	
#Date=	26.11.2021 14:10
#Acquired=	26.11.2021 14:10:41
#Base:Fit=	16.12.2021 16:00:56
#Base:Sub=	16.12.2021 16:02:24
1202.72	6.8654
1203	18.7745
1203.28	17.7023
1203.56	16.5692
1203.84	14.3502
1204.11	13.2263
1204.39	7.80852
1204.67	6.71611
1204.95	7.77694
1205.23	13.1195
1205.5	9.85085
1205.78	13.0269
1206.06	5.46072
1206.34	12.9229
1206.61	10.7253
1206.89	10.673
1207.17	8.47688
1207.45	8.42921
1207.73	11.601
1208	8.34803
1208.28	9.38188
1208.56	14.6931
1208.84	15.7158
1209.11	4.97359
1209.39	12.4153
1209.67	9.17047
1209.95	11.276
1210.23	5.89449
1210.5	11.1962
1210.78	12.208
1211.06	14.2874
1211.34	11.0317
1211.61	9.90855
1211.89	13.0582
1212.17	9.80006
1212.45	5.47897
1212.72	10.7581
1213	3.24738
1213.28	0.000671387
1213.56	2.08458
1213.83	9.49506
1214.11	10.5103
1214.39	10.4754
1214.67	6.18115
1214.94	7.20838
1215.22	9.2987
1215.5	14.5806
1215.78	10.2799
1216.05	10.2355
1216.33	1.66674
1216.61	12.2467
1216.89	2.60938
1217.16	11.0514
1217.44	6.74128
1217.72	9.87027
1218	1.31532
1218.27	0.199615
1218.55	5.45369
1218.83	8.5833
1219.1	4.28869
1219.38	8.48595
1219.66	9.49784
1219.94	7.32479
1220.21	12.5739
1220.49	6.16359
1220.77	8.24035
1221.04	7.13156
1221.32	2.83866
1221.6	2.78381
1221.88	6.96909
1222.15	12.2057
1222.43	6.83841
1222.71	13.1195
1222.98	11.983
1223.26	12.9646
1223.54	8.65942
1223.81	10.7017
1224.09	10.633
1224.37	6.33912
1224.65	8.38895
1224.92	8.32972
1225.2	11.4404
1225.48	11.3903
1225.76	6.07082
1226.03	9.19553
1226.31	5.98654
1226.59	9.10199
1226.86	3.76943
1227.14	13.2104
1227.42	9.98361
1227.69	3.57338
1227.97	7.68697
1228.25	7.60175
1228.52	7.51878
1228.8	11.6197
1229.08	12.5726
1229.35	8.31415
1229.63	10.5171
1229.91	6.37519
1230.18	4.16115
1230.46	5.11168
1230.74	10.3069
1231.01	14.4761
1231.29	11.2282
1231.57	5.80081
1231.84	12.0651
1232.12	1.50441
1232.4	4.60361
1232.67	6.64682
1232.95	8.69522
1233.23	9.69086
1233.5	18.0371
1233.78	4.32788
1234.06	9.53181
1234.33	10.5363
1234.61	8.38937
1234.89	8.34645
1235.16	8.30465
1235.44	-1.20205
1235.71	8.21173
1235.99	11.3213
1236.27	6.01749
1236.54	11.2216
1236.82	5.90545
1237.1	8.99767
1237.37	9.98318
1237.65	17.2639
1237.93	11.9362
1238.2	17.1102
1238.48	12.8355
1238.76	16.9561
1239.03	6.39795
1239.31	14.7242
1239.58	17.8083
1239.86	9.36282
1240.14	11.4034
1240.41	5.06039
1240.69	11.2976
1240.97	11.2477
1241.24	12.2477
1241.52	13.2472
1241.79	13.1897
1242.07	15.2222
1242.35	18.3067
1242.62	15.1129
1242.9	15.0658
1243.18	13.9762
1243.45	21.2719
1243.73	10.7372
1244	16.9767
1244.28	14.8338
1244.56	15.8304
1244.83	12.6303
1245.11	22.0065
1245.39	11.4601
1245.66	16.6315
1245.94	23.888
1246.21	21.7178
1246.49	20.61
1246.76	20.5539
1247.04	19.4576
1247.32	17.3128
1247.59	27.7231
1247.87	16.1594
1248.14	25.5206
1248.42	26.4875
1248.7	24.3306
1248.97	24.2775
1249.25	25.2791
1249.52	18.9604
1249.8	22.0443
1250.08	17.8095
1250.35	24.0371
1250.63	23.9721
1250.9	20.7674
1251.18	21.7475
1251.45	22.7292
1251.73	16.399
1252.01	17.3835
1252.28	19.4114
1252.56	22.4832
1252.83	23.4653
1253.11	20.2701
1253.39	27.5138
1253.66	19.1108
1253.94	29.4998
1254.21	24.2485
1254.49	26.3049
1254.76	20.0119
1255.04	24.1494
1255.31	25.1477
1255.59	26.1526
1255.87	25.0628
1256.14	27.1019
1256.42	24.9723
1256.69	32.2441
1256.97	39.5237
1257.24	26.9491
1257.52	38.3901
1257.79	45.6428
1258.07	64.3862
1258.35	55.9798
1258.62	50.7063
1258.9	45.4312
1259.17	45.3639
1259.45	43.2309
1259.72	40.0681
1260	44.2158
1260.27	49.4368
1260.55	57.7203
1260.82	62.8704
1261.1	64.8724
1261.37	74.1904
1261.65	77.257
1261.92	90.7968
1262.2	102.373
1262.48	116.132
1262.75	132.939
1263.02	147.211
1263.3	178.222
1263.58	189.544
1263.85	205.402
1264.13	193.029
1264.4	160.814
1264.68	158.792
1264.95	123.074
1265.23	103.133
1265.5	87.4174
1265.78	79.0065
1266.05	62.226
1266.33	67.412
1266.6	56.9342
1266.88	57.9577
1267.15	53.7613
1267.43	50.6139
1267.7	52.6982
1267.98	35.9565
1268.25	48.5086
1268.53	42.2388
1268.8	45.3815
1269.08	46.4141
1269.35	49.5392
1269.63	43.2312
1269.9	44.2384
1270.18	50.467
1270.45	50.3999
1270.73	45.1083
1271	49.2371
1271.28	49.1854
1271.55	46.0058
1271.83	47.0058
1272.1	48.0277
1272.38	51.1601
1272.65	53.2532
1272.93	36.5067
1273.2	51.1666
1273.47	48.0207
1273.75	48.0184
1274.03	42.7735
1274.3	46.965
1274.57	50.0991
1274.85	50.0744
1275.12	53.1874
1275.4	56.3053
1275.67	60.4853
1275.95	61.5253
1276.22	48.9253
1276.5	58.3699
1276.77	56.2637
1277.05	64.6586
1277.32	60.448
1277.6	63.6016
1277.87	69.9089
1278.14	78.3208
1278.42	73.0662
1278.69	82.5272
1278.97	84.6453
1279.24	90.9544
1279.52	93.0579
1279.79	103.544
1280.07	114.025
1280.34	139.222
1280.61	167.587
1280.89	201.238
1281.16	251.73
1281.44	320.175
1281.71	418.151
1281.99	564.509
1282.26	785.519
1282.53	1083.49
1282.81	1423.66
1283.08	1869.72
1283.36	2407.45
1283.63	2908.8
1283.91	3175.66
1284.18	2993.78
1284.45	2368.77
1284.73	1643.66
1285	1068.62
1285.28	690.295
1285.55	460.316
1285.83	321.144
1286.1	242.169
1286.37	188.509
1286.65	154.791
1286.92	142.099
1287.2	115.758
1287.47	105.202
1287.75	98.8458
1288.02	89.3295
1288.29	85.0883
1288.57	73.4953
1288.84	70.3266
1289.12	73.4783
1289.39	62.9574
1289.66	61.9121
1289.94	60.8675
1290.21	46.1336
1290.49	58.7793
1290.76	50.3383
1291.03	55.58
1291.31	46.0817
1291.58	50.2807
1291.86	45.0014
1292.13	48.1453
1292.4	47.0816
1292.68	49.1839
1292.95	35.4751
1293.22	37.5634
1293.5	44.9302
1293.77	37.5797
1294.05	38.6641
1294.32	49.2406
1294.59	34.4808
1294.87	40.7996
1295.14	48.1652
1295.42	24.9741
1295.69	33.4427
1295.96	28.2076
1296.24	34.6017
1296.51	28.2927
1296.79	34.6371
1297.06	28.2911
1297.33	28.2754
1297.61	33.5379
1297.88	33.5134
1298.15	32.4306
1298.43	22.8974
1298.7	28.183
1298.97	30.2838
1299.25	26.0412
1299.52	26.0258
1299.79	32.3419
1300.07	27.0598
1300.34	28.1279
1300.62	19.6875
1300.89	26.0227
1301.16	26.0166
1301.44	16.5095
1301.71	22.8469
1301.98	33.4201
1302.25	22.8717
1302.53	20.7656
1302.8	22.8803
1303.08	24.9918
1303.35	29.2116
1303.62	19.6972
1303.9	29.1873
1304.17	24.9616
1304.44	20.7412
1304.72	16.5193
1304.99	17.5762
1305.26	19.6807
1305.54	17.558
1305.81	22.8203
1306.08	18.5843
1306.35	21.7333
1306.63	19.6115
1306.9	17.4993
1307.18	22.7764
1307.45	18.5694
1307.72	25.9598
1308	16.4712
1308.27	19.6402
1308.54	17.5407
1308.81	15.4326
1309.09	19.6621
1309.36	16.5163
1309.63	19.6993
1309.91	18.6626
1310.18	13.4007
1310.45	17.6277
1310.73	13.4097
1311	15.5286
1311.27	10.2637
1311.55	17.6639
1311.82	12.3994
1312.09	20.8588
1312.37	11.3811
1312.64	19.8482
1312.91	19.8639
1313.18	13.5357
1313.46	12.4791
1313.73	16.7103
1314	17.7704
1314.28	15.6653
1314.55	15.677
1314.82	13.5824
1315.09	14.6578
1315.37	27.3496
1315.64	17.8694
1315.91	10.5001
1316.18	15.8039
1316.46	15.8145
1316.73	12.6554
1317	12.6666
1317.28	15.8473
1317.55	14.8061
1317.82	19.0566
1318.09	16.967
1318.37	15.9312
1318.64	10.668
1318.91	5.40341
1319.18	12.8154
1319.46	17.0558
1319.73	10.7313
1320	5.46408
1320.28	12.8811
1320.55	5.50452
1320.82	10.8009
1321.09	20.3153
1321.37	9.756
1321.64	12.9224
1321.91	6.58634
1322.18	6.59388
1322.46	9.75957
1322.73	17.1534
1323	8.72585
1323.27	11.8996
1323.55	8.74368
1323.82	15.0987
1324.09	8.79635
1324.36	10.9279
1324.64	7.78402
1324.91	13.0791
1325.18	20.4801
1325.45	11.0172
1325.73	17.3472
1326	12.067
1326.27	15.2089
1326.54	10.9701
1326.81	18.338
1327.09	5.73167
1327.36	12.0915
1327.63	7.95012
1327.9	14.3191
1328.18	17.531
1328.45	10.2059
1328.72	13.422
1328.99	11.3606
1329.27	13.5031
1329.54	10.3553
1329.81	16.7192
1330.08	9.35738
1330.35	13.5985
1330.63	17.8353
1330.9	9.41167
1331.17	8.36865
1331.44	16.8088
1331.71	8.37864
1331.99	9.43085
1332.26	11.5415
1332.53	11.5507
1332.8	8.40174
1333.07	-0.00701904
1333.35	19.98
1333.62	11.5749
1333.89	8.43102
1334.16	11.5936
1334.43	13.705
1334.71	17.9166
1334.98	6.38189
1335.25	17.9438
1335.52	6.41791
1335.79	9.58444
1336.07	12.7509
1336.34	13.8199
1336.61	11.744
1336.88	9.66994
1337.15	11.7913
1337.43	8.67259
1337.7	6.60354
1337.97	11.8698
1338.24	17.1251
1338.51	18.1889
1338.78	10.8799
1339.06	11.9497
1339.33	10.9292
1339.6	12.0086
1339.87	17.2814
1340.14	15.226
1340.42	16.31
1340.69	6.92281
1340.96	17.4332
1341.23	11.1837
1341.5	18.5471
1341.77	9.15341
1342.04	12.3234
1342.32	13.3956
1342.59	12.3707
1342.86	7.15737
1343.13	8.22377
1343.4	20.8034
1343.67	9.33039
1343.95	19.8243
1344.22	15.6781
1344.49	14.6717
1344.76	11.5724
1345.03	7.42157
1345.3	12.6777
1345.58	15.8373
1345.85	12.7184
1346.12	9.60592
1346.39	13.8006
1346.66	19.0248
1346.93	17.997
1347.2	15.9282
1347.47	10.7312
1347.75	13.8809
1348.02	11.8237
1348.29	10.8134
1348.56	16.0597
1348.83	11.9269
1349.1	14.0416
1349.37	13.0285
1349.65	14.0982
1349.92	11.003
1350.19	21.4453
1350.46	14.1865
1350.73	16.2978
1351	24.6477
1351.27	20.5087
1351.54	18.4588
1351.81	18.4829
1352.09	22.6799
1352.36	18.5627
1352.63	15.4951
1352.9	17.6345
1353.17	21.8627
1353.44	20.8785
1353.71	28.2781
1353.98	21.1027
1354.25	18.9926
1354.53	25.1663
1354.8	20.9734
1355.07	21.027
1355.34	23.1569
1355.61	24.2138
1355.88	13.8592
1356.15	27.4344
1356.42	22.2918
1356.69	25.4378
1356.96	26.5148
1357.24	18.2454
1357.51	16.2078
1357.78	28.7057
1358.05	22.5104
1358.32	29.8104
1358.59	24.6532
1358.86	26.7625
1359.13	15.3814
1359.4	27.8628
1359.67	19.6019
1359.94	26.8993
1360.22	32.1101
1360.49	27.9872
1360.76	24.9043
1361.03	33.2255
1361.3	18.7652
1361.57	33.3147
1361.84	32.3246
1362.11	33.4045
1362.38	27.2297
1362.65	32.4477
1362.92	33.5242
1363.19	32.5355
1363.46	35.6971
1363.73	48.1899
1364	35.8237
1364.28	43.1362
1364.55	40.0779
1364.82	55.6593
1365.09	46.3771
1365.36	48.4811
1365.63	35.0507
1365.9	39.221
1366.17	37.1817
1366.44	40.3165
1366.71	44.483
1366.98	40.3703
1367.25	42.4571
1367.52	45.5947
1367.79	39.4364
1368.06	41.5677
1368.33	58.1655
1368.6	76.8314
1368.87	122.378
1369.15	176.201
1369.41	166.967
1369.68	133.947
1369.95	79.182
1370.23	56.4774
1370.5	61.6863
1370.77	49.3095
1371.04	44.1834
1371.31	46.2853
1371.58	50.4426
1371.85	46.3322
1372.12	54.6034
1372.39	49.4586
1372.66	58.7588
1372.93	50.5357
1373.2	57.7884
1373.47	52.6747
1373.74	61.9909
1374.01	52.7595
1374.28	64.1396
1374.55	66.2468
1374.82	68.3544
1375.09	70.4604
1375.36	66.38
1375.63	69.5297
1375.9	67.5397
1376.17	74.8035
1376.44	77.9568
1376.71	72.8296
1376.98	73.8847
1377.25	87.281
1377.52	87.2797
1377.79	92.4985
1378.06	88.4736
1378.33	98.8826
1378.6	90.7703
1378.87	103.274
1379.14	97.1702
1379.41	110.624
1379.68	109.629
1379.95	115.847
1380.22	122.052
1380.49	125.125
1380.76	129.158
1381.03	133.248
1381.3	131.18
1381.57	134.352
1381.84	142.588
1382.11	141.529
1382.38	145.6
1382.65	169.195
1382.92	178.411
1383.19	175.303
1383.46	187.608
1383.73	212.21
1384	226.576
1384.27	265.553
1384.54	294.329
1384.81	364.14
1385.08	421.703
1385.34	531.652
1385.61	714.603
1385.88	990.988
1386.15	1477.94
1386.42	2262.71
1386.69	3598.42
1386.96	5232
1387.23	6778.87
1387.5	6578.51
1387.77	4884.87
1388.04	2990.87
1388.31	1659.51
1388.58	958.604
1388.85	661.999
1389.12	457.709
1389.39	350.281
1389.66	280.551
1389.93	238.546
1390.2	187.181
1390.46	176.799
1390.73	153.193
1391	136.84
1391.27	136.824
1391.54	129.693
1391.81	123.588
1392.08	118.486
1392.35	104.163
1392.62	91.9002
1392.89	95.0081
1393.16	90.9534
1393.43	87.9263
1393.7	83.8784
1393.97	81.8795
1394.23	75.7885
1394.5	75.8399
1394.77	81.0085
1395.04	67.7617
1395.31	71.9274
1395.58	65.8666
1395.85	79.2466
1396.12	75.2184
1396.39	67.0859
1396.66	66.1128
1396.93	62.0662
1397.2	61.0894
1397.46	52.9444
1397.73	59.124
1398	64.2886
1398.27	56.1651
1398.54	60.3241
1398.81	55.2822
1399.08	52.2803
1399.35	52.3461
1399.62	60.6099
1399.89	55.5647
1400.16	55.6351
1400.42	59.789
1400.69	55.7695
1400.96	56.8798
1401.23	59.0008
1401.5	44.7212
1401.77	49.9136
1402.04	58.1664
1402.31	59.2868
1402.58	51.2064
1402.84	55.4286
1403.11	52.4556
1403.38	67.9448
1403.65	52.6233
1403.92	59.8718
1404.19	61.9638
1404.46	68.1201
1404.73	63.0678
1404.99	69.2745
1405.26	76.5029
1405.53	73.4655
1405.8	84.7847
1406.07	90.9748
1406.34	92.0391
1406.61	102.336
1406.87	123.909
1407.14	137.303
1407.41	170.179
1407.68	192.812
1407.95	253.376
1408.22	286.264
1408.49	356.068
1408.76	357.179
1409.02	352.143
1409.29	301.988
1409.56	240.538
1409.83	182.154
1410.1	150.427
1410.37	108.431
1410.63	103.334
1410.9	80.7973
1411.17	66.4697
1411.44	65.4803
1411.71	55.2765
1411.98	53.2754
1412.25	45.1374
1412.51	47.2598
1412.78	48.3717
1413.05	47.464
1413.32	40.4456
1413.59	35.4204
1413.86	38.501
1414.12	44.6069
1414.39	34.4318
1414.66	32.4919
1414.93	29.5074
1415.2	34.6968
1415.47	37.8402
1415.73	34.8215
1416	28.7241
1416.27	30.8445
1416.54	29.8848
1416.81	30.9798
1417.07	33.1022
1417.34	30.0902
1417.61	28.1045
1417.88	25.0904
1418.15	30.2923
1418.42	31.3821
1418.68	28.3627
1418.95	20.2054
1419.22	28.488
1419.49	24.4392
1419.76	27.5753
1420.02	29.6779
1420.29	24.5878
1420.56	23.609
1420.83	30.8439
1421.1	26.7823
1421.36	23.7505
1421.63	22.7788
1421.9	23.869
1422.17	27.0263
1422.44	28.1365
1422.7	37.4663
1422.97	27.2892
1423.24	27.4072
1423.51	19.2895
1423.77	27.4266
1424.04	25.2945
1424.31	20.2445
1424.58	34.5894
1424.85	25.4289
1425.11	35.7556
1425.38	29.715
1425.65	34.9119
1425.92	27.7826
1426.19	22.736
1426.45	19.7138
1426.72	28.9933
1426.99	18.7811
1427.26	18.8246
1427.52	20.9164
1427.79	23.0001
1428.06	19.9664
1428.33	8.75307
1428.59	14.9521
1428.86	15.0119
1429.13	17.1223
1429.4	20.2581
1429.67	15.2034
1429.93	19.3679
1430.2	16.3655
1430.47	16.4394
1430.74	11.3846
1431	18.6365
1431.27	19.7462
1431.54	17.7725
1431.81	20.9202
1432.07	13.7942
1432.34	8.71228
1432.61	16.967
1432.87	15.9911
1433.14	17.0586
1433.41	20.1713
1433.68	18.1552
1433.95	13.0697
1434.21	14.1392
1434.48	15.2157
1434.75	12.2254
1435.01	13.3184
1435.28	17.4775
1435.55	15.4861
1435.82	10.4189
1436.08	15.5979
1436.35	15.652
1436.62	10.583
1436.89	6.53836
1437.15	12.7375
1437.42	19.9604
1437.69	8.74945
1437.95	16.9947
1438.22	15.0007
1438.49	13.0124
1438.76	8.97966
1439.02	15.1874
1439.29	20.3685
1439.56	9.15847
1439.82	13.3211
1440.09	11.3396
1440.36	14.4854
1440.63	9.42145
1440.89	11.5319
1441.16	16.7162
1441.43	13.6989
1441.69	9.64947
1441.96	9.6982
1442.23	15.9013
1442.49	11.8664
1442.76	11.9239
1443.03	6.8611
1443.3	2.80919
1443.56	9.0106
1443.83	9.05969
1444.1	13.2111
1444.36	16.34
1444.63	10.248
1444.9	7.2402
1445.16	10.3831
1445.43	11.4791
1445.7	12.5565
1445.97	6.45164
1446.23	7.52871
1446.5	8.60594
1446.77	4.5547
1447.03	7.68291
1447.3	9.78507
1447.57	10.8607
1447.83	8.85873
1448.1	9.93377
1448.37	8.96252
1448.63	7.9994
1448.9	10.1144
1449.17	13.2482
1449.43	7.1475
1449.7	14.3771
1449.97	8.27179
1450.23	10.3689
1450.5	6.31459
1450.77	7.38957
1451.03	13.5899
1451.3	6.46507
1451.57	4.46512
1451.83	3.4896
1452.1	4.56387
1452.37	3.58928
1452.63	8.76309
1452.9	1.64474
1453.17	1.69918
1453.43	3.80568
1453.7	4.88663
1453.97	5.9642
1454.23	6.01375
1454.5	5.03906
1454.77	9.19041
1455.03	6.16843
1455.3	9.29335
1455.56	10.367
1455.83	5.29647
1456.1	3.30563
1456.36	8.48549
1456.63	3.4122
1456.9	5.51024
1457.16	1.45612
1457.43	7.649
1457.7	3.59953
1457.96	2.62377
1458.23	4.72198
1458.49	1.69992
1458.76	7.89802
1459.03	6.92658
1459.29	5.9549
1459.56	0.883904
1459.82	-0.0895615
1460.09	4.05769
1460.36	4.10549
1460.62	5.17738
1460.89	5.22454
1461.16	6.29458
1461.42	7.36344
1461.69	8.43197
1461.95	2.33256
1462.22	5.44725
1462.49	9.58373
1462.75	5.53136
1463.02	6.59573
1463.28	5.61302
1463.55	5.65295
1463.82	4.67141
1464.08	8.80845
1464.35	5.80189
1464.61	6.89124
1464.88	2.85959
1465.15	7.02081
1465.41	2.9462
1465.68	3.95225
1465.94	6.01215
1466.21	0.953983
1466.48	4.07442
1466.74	4.1188
1467.01	3.13044
1467.27	4.19349
1467.54	3.2242
1467.8	6.3299
1468.07	4.33455
1468.34	5.40022
1468.6	0.346344
1468.87	4.47271
1469.13	7.57742
1469.4	5.58054
1469.67	3.58315
1469.93	3.62301
1470.2	1.62255
1470.46	3.70094
1470.73	7.81843
1470.99	5.82221
1471.26	5.86549
1471.53	7.94373
1471.79	2.88971
1472.06	3.94912
1472.32	0.937309
1472.59	4.03632
1472.85	5.09896
1473.12	3.10673
1473.39	2.13118
1473.65	4.2074
1473.92	5.26497
1474.18	1.23459
1474.45	0.259357
1474.71	7.42739
1474.98	2.38658
1475.24	1.41532
1475.51	2.47782
1475.78	6.59216
1476.04	5.61515
1476.31	6.67188
1476.57	6.71212
1476.84	0.648233
1477.1	1.70417
1477.37	5.81075
1477.63	6.86816
1477.9	-0.208618
1478.16	6.95236
1478.43	8.008
1478.69	6.01032
1478.96	5.03144
1479.22	5.06901
1479.49	5.10571
1479.76	2.0937
1480.02	2.12923
1480.29	1.14925
1480.55	5.24121
1480.82	6.28817
1481.08	5.30835
1481.35	7.37624
1481.61	5.38277
1481.88	3.39843
1482.14	4.45985
1482.41	1.46265
1482.67	2.52531
1482.94	1.55614
1483.2	6.67342
1483.47	3.6725
1483.73	3.71548
1484	6.80265
1484.26	-0.266338
1484.53	2.80764
1484.79	5.87376
1485.06	-0.203463
1485.32	6.88241
1485.59	3.87044
1485.85	6.91759
1486.12	4.00026
1486.38	3.03573
1486.65	6.1286
1486.91	8.15684
1487.18	9.22807
1487.44	3.1926
1487.71	6.26162
1487.97	11.3567
1488.24	4.30087
1488.5	5.34688
1488.77	2.34103
1489.03	7.43269
1489.3	2.40476
1489.56	2.43962
1489.83	5.51034
1490.09	4.53439
1490.36	4.57205
1490.62	2.58605
1490.89	5.65433
1491.15	1.63986
1491.42	5.71604
1491.68	3.72806
1491.95	5.78585
1492.21	6.83382
1492.48	4.85021
1492.74	1.85294
1493	1.88785
1493.27	0.912523
1493.53	3.98175
1493.8	8.05935
1494.06	2.02931
1494.33	2.06583
1494.59	1.09289
1494.86	5.17517
1495.12	9.25327
1495.39	5.23987
1495.65	2.23438
1495.92	2.25916
1496.18	6.32542
1496.45	6.35448
1496.71	4.36565
1496.97	6.41555
1497.24	5.43655
1497.5	3.45242
1497.77	6.51456
1498.03	2.51027
1498.3	6.58047
1498.56	5.60581
1498.82	8.66834
1499.09	9.71283
1499.35	1.67384
1499.62	8.7751
1499.88	10.8306
1500.15	6.82916
1500.41	6.8638
1500.68	5.88725
1500.94	6.92889
1501.2	3.93213
1501.47	6.99005
1501.73	8.02563
1502	7.04701
1502.26	6.06948
1502.52	7.10955
1502.79	6.12972
1503.05	11.199
1503.32	4.16356
1503.58	10.2429
1503.85	5.22646
1504.11	7.2747
1504.37	9.32633
1504.64	9.35946
1504.9	10.3994
1505.17	2.36176
1505.43	9.44811
1505.7	6.44929
1505.96	5.46301
1506.22	8.5052
1506.49	6.51862
1506.75	4.53335
1507.02	9.60248
1507.28	-0.438431
1507.54	2.61575
1507.81	5.67023
1508.07	2.67686
1508.34	8.75035
1508.6	7.77064
1508.86	10.8237
1509.13	9.84673
1509.39	9.87667
1509.66	5.87488
1509.92	10.9421
1510.18	10.9749
1510.45	3.95154
1510.71	8.00522
1510.98	8.02743
1511.24	8.04807
1511.5	7.06026
1511.77	9.08858
1512.03	2.05654
1512.29	8.10322
1512.56	7.10976
1512.82	5.11485
1513.08	4.13018
1513.35	10.1756
1513.61	8.18852
1513.88	6.20536
1514.14	5.2359
1514.4	4.27034
1514.67	8.31824
1514.93	5.32805
1515.2	1.33112
1515.46	3.35845
1515.72	5.38518
1515.99	9.41599
1516.25	8.42881
1516.51	12.4596
1516.78	6.46525
1517.04	8.49398
1517.3	0.49646
1517.57	11.5504
1517.83	5.56061
1518.09	5.58831
1518.36	5.61922
1518.62	7.65185
1518.88	9.6854
1519.15	8.70939
1519.41	4.72439
1519.67	7.76127
1519.94	5.78097
1520.2	7.81127
1520.47	7.8328
1520.73	10.8642
1520.99	9.88719
1521.26	6.90486
1521.52	12.9518
1521.78	11.9736
1522.05	8.98578
1522.31	8.00302
1522.57	8.02297
1522.84	9.04559
1523.1	8.06233
1523.36	9.08297
1523.62	5.08594
1523.89	11.1099
1524.15	6.11419
1524.41	6.1304
1524.68	5.14626
1524.94	12.1732
1525.2	6.19117
1525.47	10.2208
1525.73	6.23802
1525.99	9.26947
1526.26	10.2993
1526.52	14.3387
1526.78	7.35208
1527.05	9.38083
1527.31	8.39916
1527.57	12.4247
1527.84	8.43498
1528.1	8.45326
1528.36	10.4757
1528.63	9.49061
1528.89	6.50235
1529.15	12.5305
1529.41	10.5458
1529.68	5.5575
1529.94	6.57736
1530.2	6.59274
1530.47	8.61429
1530.73	11.6415
1530.99	10.667
1531.25	8.68987
1531.52	8.71451
1531.78	8.73467
1532.04	9.75399
1532.31	7.77008
1532.57	7.78517
1532.83	10.8139
1533.09	9.83976
1533.36	9.87046
1533.62	8.89671
1533.88	11.9292
1534.15	7.93787
1534.41	8.95922
1534.67	9.97875
1534.94	8.99138
1535.2	10.0089
1535.46	10.024
1535.72	10.0354
1535.99	9.03451
1536.25	11.046
1536.51	15.0624
1536.77	12.0627
1537.04	12.067
1537.3	12.0726
1537.56	8.08302
1537.82	10.0932
1538.09	16.112
1538.35	11.1205
1538.61	9.12702
1538.87	11.1396
1539.14	10.1531
1539.4	10.1786
1539.66	9.21331
1539.92	10.2541
1540.19	7.28205
1540.45	12.321
1540.71	8.34227
1540.97	5.35838
1541.24	5.3771
1541.5	13.4004
1541.76	11.4092
1542.02	9.41097
1542.29	6.41244
1542.55	9.42499
1542.81	9.43196
1543.07	12.4427
1543.34	9.44683
1543.6	11.4549
1543.86	11.4584
1544.12	6.461
1544.39	8.47686
1544.65	10.4932
1544.91	8.51353
1545.17	10.5384
1545.43	12.5613
1545.7	7.58285
1545.96	10.6075
1546.22	5.61736
1546.48	11.6444
1546.74	9.65243
1547.01	14.6759
1547.27	10.686
1547.53	11.7051
1547.79	9.7176
1548.06	16.7363
1548.32	10.7208
1548.58	11.7347
1548.84	10.7478
1549.1	14.7768
1549.37	11.7525
1549.63	8.73033
1549.89	13.7332
1550.15	9.76514
1550.42	7.80855
1550.68	8.86877
1550.94	11.9261
1551.2	11.9712
1551.46	12.9636
1551.73	10.9705
1551.99	11.979
1552.25	11.9795
1552.51	11.0021
1552.77	13.0357
1553.03	15.0508
1553.3	12.0389
1553.56	13.028
1553.82	7.01418
1554.08	13.0408
1554.34	13.0441
1554.61	11.0393
1554.87	13.0429
1555.13	16.0464
1555.39	14.0481
1555.65	15.0575
1555.91	10.0586
1556.18	15.0794
1556.44	16.0913
1556.7	16.0951
1556.96	13.1002
1557.22	8.10337
1557.48	15.1269
1557.75	9.12611
1558.01	16.1457
1558.27	11.14
1558.53	11.1384
1558.79	13.1411
1559.06	12.1372
1559.32	13.1358
1559.58	15.1353
1559.84	15.1357
1560.1	14.1378
1560.36	13.1415
1560.63	10.1476
1560.89	9.15378
1561.15	12.1579
1561.41	8.16831
1561.67	12.1758
1561.93	9.19116
1562.19	15.2065
1562.46	15.2252
1562.72	14.2329
1562.98	11.2382
1563.24	16.243
1563.5	10.2517
1563.76	10.2557
1564.02	9.26085
1564.29	13.2799
1564.55	12.2998
1564.81	13.3116
1565.07	12.3152
1565.33	9.30209
1565.59	12.249
1565.85	11.1768
1566.11	14.1257
1566.38	14.2803
1566.64	10.3298
1566.9	13.318
1567.16	9.30528
1567.42	15.3347
1567.68	14.373
1567.94	9.3687
1568.2	15.3503
1568.47	13.3608
1568.73	8.37183
1568.99	9.37933
1569.25	9.38166
1569.51	8.37588
1569.77	11.3724
1570.03	15.375
1570.29	12.3848
1570.55	12.3904
1570.82	10.3969
1571.08	12.3998
1571.34	9.40486
1571.6	15.4022
1571.86	11.4044
1572.12	9.40501
1572.38	14.4028
1572.64	12.405
1572.9	15.3982
1573.17	12.4015
1573.43	14.3973
1573.69	14.3952
1573.95	11.4
1574.21	11.4045
1574.47	10.4159
1574.73	14.4206
1574.99	11.4368
1575.25	12.4475
1575.51	14.4574
1575.78	14.4673
1576.04	13.4728
1576.3	14.4727
1576.56	11.4772
1576.82	8.47883
1577.08	15.4643
1577.34	11.4589
1577.6	10.4515
1577.86	13.4364
1578.12	15.4227
1578.38	12.4226
1578.64	13.4157
1578.9	12.419
1579.17	14.4148
1579.43	16.4105
1579.69	12.4253
1579.95	12.4293
1580.21	6.45341
1580.47	15.4322
1580.73	12.443
1580.99	18.4264
1581.25	14.4352
1581.51	12.4373
1581.77	9.44396
1582.03	9.43913
1582.29	17.4048
1582.55	9.43284
1582.81	18.3979
1583.07	9.4306
1583.33	15.4064
1583.59	13.4142
1583.85	18.3944
1584.11	16.3994
1584.38	11.4204
1584.64	15.4081
1584.9	16.4073
1585.16	22.3862
1585.42	16.4096
1585.68	15.4118
1585.94	14.4152
1586.2	20.3877
1586.46	12.4125
1586.72	17.3816
1586.98	13.3935
1587.24	15.3792
1587.5	13.3851
1587.76	19.3518
1588.02	17.3598
1588.28	11.3902
1588.54	16.3676
1588.8	13.3862
1589.06	14.3862
1589.32	20.3624
1589.58	14.3941
1589.84	17.3836
1590.1	15.393
1590.36	17.3834
1590.62	14.3986
1590.88	18.3852
1591.14	22.3716
1591.4	16.394
1591.66	12.4091
1591.92	17.3847
1592.18	14.3923
1592.44	16.374
1592.7	17.3558
1592.96	15.3554
1593.22	13.3586
1593.48	13.3443
1593.74	21.2811
1594	16.2935
1594.26	17.2754
1594.52	16.2751
1594.78	17.2665
1595.04	17.2692
1595.3	16.2815
1595.56	17.2783
1595.82	12.3078
1596.08	17.2564
1596.34	18.2466
1596.6	9.30526
1596.86	16.2558
1597.12	16.2548
1597.38	17.2484
1597.64	18.2427
1597.9	12.2826
1598.16	17.2465
1598.42	21.2136
1598.68	15.244
1598.94	19.203
1599.2	17.2048
1599.46	19.1796
1599.72	19.1697
1599.98	22.1363
1600.24	16.1737
1600.5	14.1807
1600.76	16.1539
1601.02	19.1156
1601.28	18.1085
1601.54	15.1196
1601.8	18.0756
1602.06	22.0222
1602.32	20.0296
1602.58	16.0588
1602.84	18.0262
1603.1	15.0448
1603.36	19.9786
1603.62	11.0665
1603.88	17.9803
1604.14	18.9618
1604.4	19.9456
1604.66	14.0099
1604.92	22.9058
1605.17	16.9696
1605.43	18.9439
1605.69	20.9188
1605.95	18.9403
1606.21	18.9407
1606.47	16.9634
1606.73	22.8997
1606.99	17.9531
1607.25	23.8582
1607.51	16.0608
1607.77	15.1624
1608.03	20.8766
1608.29	19.7337
1608.55	22.4372
1608.81	23.5387
1609.07	21.3897
1609.32	18.7005
1609.58	22.8992
1609.84	17.4186
1610.1	18.38
1610.36	20.513
1610.62	17.2363
1610.88	18.745
1611.14	18.7058
1611.4	19.6557
1611.66	20.3899
1611.92	19.3384
1612.18	18.4838
1612.44	18.7105
1612.69	22.3815
1612.95	16.081
1613.21	18.8879
1613.47	21.068
1613.73	23.1969
1613.99	20.9556
1614.25	20.2177
1614.51	16.0746
1614.77	21.3996
1615.03	22.4132
1615.29	18.2049
1615.54	20.7464
1615.8	22.3704
1616.06	20.7483
1616.32	20.6596
1616.58	17.0598
1616.84	20.9368
1617.1	19.1157
1617.36	20.8257
1617.62	24.1236
1617.88	19.0014
1618.13	21.9562
1618.39	22.4411
1618.65	22.9245
1618.91	21.1361
1619.17	23.9925
1619.43	19.5305
1619.69	21.9829
1619.95	19.7263
1620.2	21.347
1620.46	23.7721
1620.72	23.9032
1620.98	23.073
1621.24	22.6516
1621.5	21.5432
1621.76	21.6826
1622.02	20.478
1622.27	19.7742
1622.53	20.4197
1622.79	22.1723
1623.05	24.3962
1623.31	24.3251
1623.57	24.5975
1623.83	22.2939
1624.09	21.8782
1624.34	23.4956
1624.6	21.9639
1624.86	22.7376
1625.12	21.2876
1625.38	21.28
1625.64	20.9868
1625.9	23.918
1626.15	24.5488
1626.41	24.2222
1626.67	22.3554
1626.93	23.1292
1627.19	25.9356
1627.45	26.7183
1627.7	22.6844
1627.96	21.2293
1628.22	24.893
1628.48	22.3516
1628.74	22.6285
1629	22.4789
1629.26	22.992
1629.51	21.8075
1629.77	23.3612
1630.03	22.9045
1630.29	24.2396
1630.55	23.739
1630.81	23.8554
1631.06	21.3102
1631.32	21.609
1631.53	25.4896
1631.79	19.5777
1632.05	24.5039
1632.31	22.5326
1632.57	24.4932
1632.84	23.512
1633.1	23.5264
1633.36	22.5162
1633.62	19.5293
1633.88	23.4577
1634.14	24.4411
1634.4	25.4257
1634.66	21.4771
1634.93	23.4413
1635.19	23.4322
1635.45	18.4938
1635.71	19.4686
1635.97	24.3843
1636.23	19.4441
1636.49	25.3423
1636.75	18.4318
1637.02	23.3431
1637.28	24.3122
1637.54	24.2953
1637.8	22.3132
1638.06	28.2106
1638.32	29.182
1638.58	24.2461
1638.84	23.2496
1639.1	23.2414
1639.37	29.1389
1639.63	28.1453
1639.89	26.1674
1640.15	27.1422
1640.41	24.1788
1640.67	28.1086
1640.93	25.1556
1641.19	25.1531
1641.46	24.1612
1641.72	24.1492
1641.98	23.1507
1642.24	22.1541
1642.5	26.0806
1642.76	24.1007
1643.02	18.1836
1643.28	20.1418
1643.54	18.1632
1643.8	23.0744
1644.06	19.1249
1644.33	29.9363
1644.59	25.9834
1644.85	23.0165
1645.11	19.0708
1645.37	22.0163
1645.63	20.045
1645.89	22.007
1646.15	25.9348
1646.41	21.9849
1646.67	24.922
1646.93	26.8754
1647.19	22.9281
1647.46	23.8978
1647.72	21.9165
1647.98	29.7706
1648.24	22.8763
1648.5	25.8191
1648.76	21.8835
1649.02	21.8825
1649.28	17.9577
1649.54	20.9097
1649.8	24.8333
1650.06	26.7873
1650.32	32.6835
1650.58	22.8441
1650.85	20.8756
1651.11	23.8292
1651.37	21.858
1651.63	24.8104
1651.89	25.7889
1652.15	19.8669
1652.41	26.7557
1652.67	24.7772
1652.93	22.7922
1653.19	24.7478
1653.45	26.7062
1653.71	24.7263
1653.97	20.7777
1654.23	23.7286
1654.49	23.722
1654.75	22.7287
1655.01	21.7366
1655.27	21.7326
1655.53	25.6754
1655.8	28.6383
1656.06	21.7408
1656.32	19.768
1656.57	23.7128
1656.84	25.6814
1657.1	25.6739
1657.36	24.6759
1657.62	22.6881
1657.88	19.7127
1658.14	29.5688
1658.4	22.6478
1658.66	21.6466
1658.92	23.6039
1659.18	27.533
1659.44	25.5434
1659.7	21.5823
1659.96	24.524
1660.22	22.5326
1660.48	16.6115
1660.74	21.5365
1661	21.5336
1661.26	24.4906
1661.52	17.584
1661.78	20.5425
1662.04	22.51
1662.3	17.5693
1662.56	22.4533
1662.82	20.552
1663.08	18.6088
1663.34	21.5417
1663.6	19.5504
1663.86	25.4581
1664.12	22.3925
1664.38	22.4297
1664.64	18.4819
1664.9	20.4504
1665.16	19.474
1665.42	21.4488
1665.68	21.3919
1665.94	23.3135
1666.2	22.4323
1666.46	23.421
1666.72	19.4514
1666.98	26.2949
1667.24	20.2288
1667.5	24.2929
1667.76	16.3772
1668.02	24.2555
1668.28	19.3073
1668.54	15.3444
1668.8	17.3086
1669.06	16.3297
1669.32	22.2673
1669.58	22.2624
1669.84	20.2782
1670.1	22.2455
1670.36	18.2804
1670.62	18.2706
1670.88	22.2348
1671.14	20.2628
1671.4	16.2948
1671.66	21.2239
1671.92	20.2239
1672.18	23.1812
1672.44	23.1754
1672.69	14.2706
1672.95	16.2377
1673.21	19.1933
1673.47	21.1618
1673.73	15.2223
1673.99	17.1925
1674.25	16.1981
1674.51	19.1604
1674.77	21.1339
1675.03	15.1948
1675.29	19.1497
1675.55	20.136
1675.81	15.182
1676.07	20.121
1676.33	17.1417
1676.59	16.1437
1676.85	17.1257
1677.11	17.1172
1677.37	18.0966
1677.63	14.1259
1677.89	19.0609
1678.14	17.0664
1678.4	21.9954
1678.66	18.0199
1678.92	14.0474
1679.18	16.0102
1679.44	18.9617
1679.7	14.9944
1679.96	13.9925
1680.22	14.9675
1680.48	15.9433
1680.74	15.9297
1681	9.98777
1681.26	15.9031
1681.52	15.8917
1681.78	19.8331
1682.03	13.8957
1682.29	14.874
1682.55	16.8407
1682.81	11.8922
1683.07	12.8692
1683.33	14.8344
1683.59	14.8244
1683.85	11.8512
1684.11	16.78
1684.37	15.7802
1684.63	15.7649
1684.89	16.7397
1685.14	15.7407
1685.4	11.7801
1685.66	15.7198
1685.92	17.6851
1686.18	13.7262
1686.44	11.7426
1686.7	14.6988
1686.96	10.746
1687.22	11.7279
1687.48	13.6951
1687.73	9.73167
1687.99	11.694
1688.25	12.6683
1688.51	15.6182
1688.77	13.6299
1689.03	11.6407
1689.29	15.5723
1689.55	13.5828
1689.81	17.514
1690.06	15.5238
1690.32	10.5744
1690.58	14.5081
1690.84	12.5346
1691.1	11.5434
1691.36	10.5506
1691.62	11.53
1691.88	10.5376
1692.13	16.4532
1692.39	11.5094
1692.65	10.5114
1692.91	10.4974
1693.17	11.4685
1693.43	14.4107
1693.69	13.4054
1693.95	9.44238
1694.2	13.3691
1694.46	18.2799
1694.72	13.3364
1694.98	8.39698
1695.24	10.3576
1695.5	12.3208
1695.76	12.3138
1696.01	13.2922
1696.27	13.2858
1696.53	9.34028
1696.79	11.3055
1697.05	9.32532
1697.31	11.2843
1697.57	10.2838
1697.82	5.34164
1698.08	11.2336
1698.34	8.26405
1698.6	10.2185
1698.86	10.2043
1699.12	11.175
1699.38	15.0997
1699.63	12.1382
1699.89	3.27547
1700.15	8.18715
1700.41	12.1151
1700.67	3.24537
1700.92	11.106
1701.18	12.0797
1701.44	10.1017
1701.7	12.0574
1701.96	7.12577
1702.22	15.9607
1702.47	12.9959
1702.73	9.0486
1702.99	11.9823
1703.25	9.02386
1703.51	13.9277
1703.77	14.8994
1704.02	11.94
1704.28	4.07016
1704.54	13.8894
1704.8	14.8686
1705.06	7.98279
1705.32	11.9035
1705.57	4.03251
1705.83	10.9022
1706.09	10.894
1706.35	10.8804
1706.61	5.95381
1706.86	8.88466
1707.12	8.86846
1707.38	11.7968
1707.64	11.781
1707.9	6.85844
1708.16	7.82146
1708.41	5.84271
1708.67	9.74572
1708.93	13.6444
1709.19	6.76863
1709.44	8.71206
1709.7	7.72027
1709.96	10.647
1710.22	13.5753
1710.48	12.5892
1710.73	7.68748
1710.99	5.72404
1711.25	6.69982
1711.51	9.63278
1711.77	10.6073
1712.02	12.5611
1712.28	11.5744
1712.54	4.70705
1712.8	9.58698
1713.06	9.56565
1713.31	7.58714
1713.57	12.4566
1713.83	7.54821
1714.09	8.50602
1714.34	10.4465
1714.6	8.48093
1714.86	9.44715
1715.12	9.4377
1715.38	12.3597
1715.63	7.47409
1715.89	6.49637
1716.15	6.4887
1716.41	6.47877
1716.66	10.3745
1716.92	12.3132
1717.18	8.39015
1717.44	8.37154
1717.69	5.42392
1717.95	9.30268
1718.21	7.3316
1718.47	9.26119
1718.72	7.29508
1718.98	5.33345
1719.24	8.24362
1719.5	10.1832
1719.75	9.20201
1720.01	12.1137
1720.27	8.21471
1720.53	11.1301
1720.78	9.17239
1721.04	6.23914
1721.3	6.22405
1721.56	10.1025
1721.81	9.11597
1722.07	7.15656
1722.33	6.16967
1722.59	6.15505
1722.84	12.9431
1723.1	8.0698
1723.36	6.11347
1723.62	9.01505
1723.87	8.03346
1724.13	6.08427
1724.39	9.9589
1724.64	7.03774
1724.9	7.02607
1725.16	2.15875
1725.42	8.93284
1725.67	9.88433
1725.93	8.89556
1726.19	8.88102
1726.45	8.87054
1726.7	4.02085
1726.96	8.85755
1727.22	7.87732
1727.47	9.79676
1727.73	5.91536
1727.99	4.94735
1728.24	7.84533
1728.5	12.6764
1728.76	7.81533
1729.02	8.73203
1729.27	11.5714
1729.53	2.86205
1729.79	6.73258
1730.05	14.4692
1730.3	2.8834
1730.56	9.62033
1730.82	8.63967
1731.07	6.69995
1731.33	10.5941
1731.59	-0.0404892
1731.84	5.7528
1732.1	5.74614
1732.36	9.60405
1732.61	5.72964
1732.87	10.5515
1733.13	6.67621
1733.39	7.62965
1733.64	8.57978
1733.9	4.70038
1734.16	11.4358
1734.41	6.59704
1734.67	9.47418
1734.93	7.53001
1735.18	4.62345
1735.44	5.57187
1735.7	5.55793
1735.95	5.54613
1736.21	7.46124
1736.47	7.45276
1736.72	12.2561
1736.98	4.54749
1737.24	6.46243
1737.49	6.45255
1737.75	3.55734
1738.01	7.39552
1738.26	4.49984
1738.52	9.29542
1738.78	8.32185
1739.03	8.30977
1739.29	8.29672
1739.55	5.40065
1739.8	5.38437
1740.06	7.28521
1740.32	6.3074
1740.57	10.1263
1740.83	3.40026
1741.09	8.18019
1741.34	8.1679
1741.6	7.19774
1741.86	7.18636
1742.11	5.26101
1742.37	4.29551
1742.63	5.24632
1742.88	7.15378
1743.14	7.14562
1743.4	6.1816
1743.65	10.0046
1743.91	5.21108
1744.16	10.9415
1744.42	9.97397
1744.68	5.18135
1744.93	5.17454
1745.19	7.08283
1745.45	6.1222
1745.7	8.03065
1745.96	7.0679
1746.22	4.19037
1746.47	8.00473
1746.73	6.08004
1746.98	3.19959
1747.24	6.05492
1747.5	6.04184
1747.75	2.21082
1748.01	5.06428
1748.27	7.92025
1748.52	6.96065
1748.78	3.13848
1749.03	5.99916
1749.29	5.04231
1749.55	6.95108
1749.8	5.99704
1750.06	6.95402
1750.32	2.18022
1750.57	7.91587
1750.83	8.87452
1751.08	6.00553
1751.34	3.13705
1751.6	9.82596
1751.85	6.94991
1752.11	6.93696
1752.36	4.05748
1752.62	5.00211
1752.88	5.94686
1753.13	6.89084
1753.39	7.83446
1753.64	5.91595
1753.9	3.9987
1754.15	5.89834
1754.41	7.79542
1754.67	7.78458
1754.92	4.9157
1755.18	3.00135
1755.43	8.71362
1755.69	8.70581
1755.95	5.83799
1756.2	5.82799
1756.46	8.67438
1756.71	2.94879
1756.97	4.8402
1757.23	6.73055
1757.48	7.66939
1757.74	3.85728
1757.99	6.70367
1758.25	9.55571
1758.5	2.90254
1758.76	4.80487
1759.02	9.56004
1759.27	3.84787
1759.53	7.65138
1759.78	9.55311
1760.04	5.74295
1760.3	4.78597
1760.55	7.63476
1760.81	3.82311
1761.06	5.71928
1761.32	8.56475
1761.57	4.75138
1761.83	4.74315
1762.08	6.63787
1762.34	10.4349
1762.6	5.67787
1762.85	10.4337
1763.11	3.77907
1763.36	2.82599
1763.62	4.72361
1763.87	5.67259
1764.13	5.67205
1764.38	7.57454
1764.64	10.4321
1764.89	8.53947
1765.15	8.54209
1765.4	4.73645
1765.66	9.49639
1765.92	5.68807
1766.17	8.54282
1766.43	8.54039
1766.68	9.48886
1766.94	6.62779
1767.19	9.47884
1767.45	6.62023
1767.7	5.66344
1767.96	2.80181
1768.21	8.50454
1768.47	10.4012
1768.73	4.68778
1768.98	5.63464
1769.24	3.71812
1769.49	4.65054
1769.75	7.48279
1770	9.36863
1770.26	7.46832
1770.51	11.273
1770.77	6.52969
1771.02	5.57813
1771.28	6.5284
1771.53	6.53475
1771.79	4.64251
1772.04	6.54605
1772.3	5.59488
1772.55	8.45125
1772.81	6.55353
1773.06	3.70213
1773.32	4.65532
1773.57	6.56028
1773.83	3.70636
1774.08	5.61104
1774.34	7.51564
1774.59	5.61169
1774.85	13.2281
1775.1	6.56621
1775.36	6.56703
1775.61	4.666
1775.87	9.44234
1776.12	6.59014
1776.38	4.68601
1776.63	9.45226
1776.89	6.58923
1777.14	12.3029
1777.4	8.48288
1777.65	7.52491
1777.91	4.6594
1778.16	9.41562
1778.42	5.59826
1778.67	11.3048
1778.93	8.43967
1779.18	5.57421
1779.44	7.46745
1779.69	8.41223
1779.95	4.60501
1780.2	4.61218
1780.46	6.51647
1780.71	4.61399
1780.97	7.47101
1781.22	6.52114
1781.47	6.52068
1781.73	7.47295
1781.98	4.61838
1782.24	4.62137
1782.49	4.62506
1782.75	5.58364
1783	8.44571
1783.26	7.49575
1783.51	7.49837
1783.77	3.68896
1784.02	8.45827
1784.28	8.46225
1784.53	7.51378
1784.79	2.75183
1785.04	1.80125
1785.29	2.75676
1785.55	7.52655
1785.8	7.52409
1786.06	6.566
1786.31	6.56192
1786.57	4.65393
1786.82	2.74779
1787.08	8.47645
1787.33	5.61988
1787.58	8.49155
1787.84	0.863579
1788.09	4.70073
1788.35	5.67536
1788.6	7.6079
1788.86	3.7922
1789.11	1.88179
1789.37	6.67585
1789.62	3.8132
1789.87	7.65311
1790.13	4.78171
1790.38	9.57782
1790.64	3.83002
1790.89	6.70598
1791.15	6.70418
1791.4	5.73833
1791.65	3.80364
1791.91	2.84311
1792.16	2.84012
1792.42	7.62862
1792.67	1.88341
1792.93	2.84241
1793.18	5.71953
1793.43	1.88995
1793.69	1.89048
1793.94	0.932562
1794.2	5.72673
1794.45	1.89496
1794.7	4.769
1794.96	6.68054
1795.21	2.85607
1795.47	0.959347
1795.72	0.97262
1795.97	4.81884
1796.23	2.90357
1796.48	4.82911
1796.74	3.87443
1796.99	1.95902
1797.25	4.84694
1797.5	1.00871
1797.75	1.97416
1798.01	3.90044
1798.26	1.01966
1798.51	1.02224
1798.77	2.94711
1799.02	4.8707
1799.28	4.8693
1799.53	3.90491
1799.78	3.90068
1800.04	5.8175
1800.29	0.0467739
1800.55	5.80816
1800.8	1.96222
1801.05	4.84191
1801.31	3.87996
1801.56	5.80042
1801.81	1.95881
1802.07	2.92072
1802.32	1.96242
1802.58	1.00475
1802.83	3.89114
1803.08	5.81847
1803.34	2.94146
1803.59	4.87082
1803.84	0.0685825
1804.1	7.76495
1804.35	3.92032
1804.61	5.84836
1804.86	1.04441
1805.11	2.97432
1805.37	2.98116
1805.62	0.10058
1805.87	3.95919
1806.13	2.03971
1806.38	3.9719
1806.64	4.9407
1806.89	3.01817
1807.14	3.02136
1807.4	3.02307
1807.65	3.98791
1807.9	2.06119
1808.16	3.98994
1808.41	3.99126
1808.66	3.9928
1808.92	2.06672
1809.17	3.03251
1809.42	5.92643
1809.68	3.03632
1809.93	2.07434
1810.18	2.07638
1810.44	3.04238
1810.69	0.151096
1810.94	4.00731
1811.2	6.89908
1811.45	6.8996
1811.7	2.07965
1811.96	6.90051
1812.21	5.93783
1812.46	1.11982
1812.72	4.98055
1812.97	4.02145
1813.22	2.09859
1813.48	4.03293
1813.73	5.96527
1813.98	5.00586
1814.24	5.97875
1814.49	6.95354
1814.74	3.10097
1815	0.213379
1815.25	1.18556
1815.5	1.19082
1815.76	1.1942
1816.01	5.06269
1816.26	4.0988
1816.52	6.03473
1816.77	3.13813
1817.02	6.04158
1817.27	8.94109
1817.53	3.1383
1817.78	3.12659
1818.03	2.15279
1818.29	6.98447
1818.54	4.09353
1818.79	6.03521
1819.05	0.24292
1819.3	7.00761
1819.55	1.21264
1819.8	7.01655
1820.06	3.15498
1820.31	4.12572
1820.56	4.13052
1820.82	4.13588
1821.07	3.17335
1821.32	5.11193
1821.58	5.11748
1821.83	3.18865
1822.08	-0.676607
1822.33	3.19891
1822.59	-0.668612
1822.84	9.01426
1823.09	4.17756
1823.34	-1.62799
1823.6	4.18152
1823.85	4.18061
1824.1	1.27559
1824.36	7.0837
1824.61	2.24807
1824.86	4.18814
1825.11	1.28786
1825.37	3.22852
1825.62	0.328119
1825.87	6.1421
1826.12	3.23902
1826.38	1.30366
1826.63	5.17967
1826.88	7.11917
1827.14	3.24752
1827.39	2.28239
1827.64	3.25534
1827.89	3.26015
1828.15	3.26463
1828.4	1.32869
1828.65	3.26711
1828.9	3.26611
1829.16	2.29524
1829.41	4.23157
1829.66	5.20076
1829.91	5.20136
1830.17	3.26455
1830.42	2.29472
1830.67	7.13454
1830.92	7.13299
1831.18	2.2943
1831.43	6.17204
1831.68	4.2413
1831.93	3.27861
1832.19	3.28398
1832.44	4.25814
1832.69	4.26406
1832.94	3.30264
1833.2	7.1855
1833.45	0.403078
1833.7	7.19063
1833.95	5.2567
1834.2	2.35166
1834.46	5.26392
1834.71	5.25815
1834.96	3.30686
1835.21	1.35845
1835.47	5.21975
1835.72	3.27777
1835.97	7.14123
1836.22	2.30638
1836.48	3.26918
1836.73	6.29679
1836.98	3.38219
1837.23	2.37707
1837.48	2.36627
1837.74	5.25442
1837.99	6.20567
1838.24	3.27598
1838.49	5.19342
1838.74	2.29334
1839	4.27576
1839.25	4.29865
1839.5	2.37371
1839.75	6.25545
1840	0.446987
1840.26	4.33264
1840.51	4.3082
1840.76	3.32235
1841.01	1.37344
1841.27	3.29586
1841.52	6.18358
1841.77	4.24028
1842.02	2.29987
1842.27	4.22231
1842.53	5.17939
1842.78	5.17163
1843.03	3.24964
1843.28	4.21348
1843.53	0.360247
1843.78	1.32655
1844.04	4.22252
1844.29	0.363424
1844.54	-0.599182
1844.79	1.33515
1845.04	0.373074
1845.3	2.30008
1845.55	2.30321
1845.8	4.23464
1846.05	1.3537
1846.3	2.33248
1846.55	4.27669
1846.81	2.36608
1847.06	6.21701
1847.31	3.28155
1847.56	2.27409
1847.81	3.22998
1848.07	3.23266
1848.32	1.32252
1848.57	3.26372
1848.82	2.28858
1849.07	2.28358
1849.32	5.17505
1849.57	0.358105
1849.83	1.31551
1850.08	3.23372
1850.33	1.30412
1850.58	4.18091
1850.83	7.05808
1851.09	2.24751
1851.34	3.20459
1851.59	3.20151
1851.84	-0.641907
1852.09	2.23864
1852.34	-0.641209
1852.59	0.320927
1852.84	2.24358
1853.1	1.2854
1853.35	-0.633615
1853.6	0.327139
1853.85	6.08683
1854.1	1.28372
1854.35	1.27872
1854.6	1.27252
1854.86	2.22639
1855.11	2.22436
1855.36	2.22247
1855.61	0.299992
1855.86	0.294046
1856.11	1.2495
1856.36	-1.62424
1856.61	5.08137
1856.87	1.25226
1857.12	-0.661402
1857.37	1.25522
1857.62	5.08584
1857.87	6.04208
1858.12	2.21066
1858.37	0.294014
1858.63	1.2483
1858.88	4.11532
1859.13	-1.62926
1859.38	3.14959
1859.63	3.14468
1859.88	0.273863
1860.13	1.23139
1860.38	2.18967
1860.63	5.06168
1860.89	0.288006
1861.14	1.25084
1861.39	2.21332
1861.64	0.30687
1861.89	5.09755
1862.14	2.23029
1862.39	5.10185
1862.64	2.22916
1862.9	2.22558
1863.15	1.26503
1863.4	3.17333
1863.65	0.301359
1863.9	1.25386
1864.15	3.16205
1864.4	3.1591
1864.65	2.20119
1864.9	1.24352
1865.15	3.14995
1865.4	4.0996
1865.66	0.27602
1865.91	4.0858
1866.16	2.16981
1866.41	3.11404
1866.66	-0.706837
1866.91	-0.714617
1867.16	2.1336
1867.41	-1.6816
1867.66	7.82445
1867.91	3.06218
1868.16	-0.743759
1868.41	3.05842
1868.67	2.10794
1868.92	4.01171
1869.17	3.06451
1869.42	2.1156
1869.67	4.01754
1869.92	2.11659
1870.17	2.11707
1870.42	4.01871
1870.67	2.11839
1870.92	3.06973
1871.17	4.02146
1871.42	5.92377
1871.67	0.221668
1871.92	4.02173
1872.17	2.11876
1872.42	5.9173
1872.68	1.16704
1872.93	0.214655
1873.18	4.95902
1873.43	3.05828
1873.68	1.16036
1873.93	4.95722
1874.18	4.00594
1874.43	0.206839
1874.68	1.15205
1874.93	3.99309
1875.18	3.98776
1875.43	3.03398
1875.68	6.81908
1875.93	2.07303
1876.18	3.9541
1876.43	4.8921
1876.68	2.04648
1876.93	4.87995
1877.18	2.04012
1877.43	2.97426
1877.68	-0.819504
1877.93	0.0994625
1878.18	1.0655
1878.44	3.05477
1878.69	2.07207
1878.93	0.169731
1879.19	-0.777643
1879.44	3.98121
1879.69	2.10112
1879.94	1.14781
1880.19	3.03559
1880.44	2.0892
1880.69	5.8762
1880.94	-0.744019
1881.19	2.09274
1881.44	3.98658
1881.69	3.03036
1881.94	3.01864
1882.19	0.170656
1882.44	2.99397
1882.69	5.81293
1882.94	4.85011
1883.19	1.07003
1883.44	2.93878
1883.69	5.96663
1883.94	4.89332
1884.19	1.04982
1884.44	1.99589
1884.69	2.01303
1884.94	2.00077
1885.19	-0.81641
1885.44	3.91407
1885.69	0.145658
1885.94	3.9249
1886.19	3.94028
1886.44	1.1155
1886.69	0.176544
1886.94	8.67514
1887.19	4.88702
1887.44	4.8821
1887.69	6.76402
1887.94	0.154694
1888.19	2.03619
1888.44	2.03033
1888.69	0.13669
1888.94	1.07188
1889.19	2.94903
1889.44	-0.823959
1889.69	1.99773
1889.94	7.64634
1890.19	4.8224
1890.44	3.88517
1890.69	2.00979
1890.94	3.90094
1891.19	2.02051
1891.43	0.137217
1891.68	3.90355
1891.94	3.90446
1892.18	5.78743
1892.43	5.78723
1892.68	3.90426
1892.93	2.9601
1893.18	3.89718
1893.43	4.82948
1893.68	-0.827911
1893.93	1.98202
1894.18	4.79976
1894.43	1.98569
1894.68	1.03785
1894.93	3.85319
1895.18	6.67065
1895.43	2.91491
1895.68	5.73683
1895.93	2.92222
1896.18	1.98692
1896.43	1.99154
1896.68	6.69725
1896.93	7.6447
1897.18	0.128168
1897.42	2.9541
1897.68	2.01724
1897.92	4.84162
1898.17	3.902
1898.42	3.90145
1898.67	4.83982
1898.92	2.01491
1899.17	6.71074
1899.42	2.00455
1899.67	4.81983
1899.92	2.93865
1900.17	4.81525
1900.42	3.87328
1900.67	6.69143
1900.92	3.87533
1901.16	2.93973
1901.41	3.88489
1901.66	2.9519
1901.91	4.83826
1902.16	2.96469
1902.41	0.150703
1902.66	2.97886
1902.91	3.92083
1903.16	5.8006
1903.41	4.85796
1903.66	4.85543
1903.91	7.67475
1904.16	4.85284
1904.41	3.91219
1904.65	2.03185
1904.9	2.03179
1905.15	4.85156
1905.4	5.79132
1905.65	3.91162
1905.9	1.09083
1906.15	3.90383
1906.4	3.89504
1906.65	2.95269
1906.9	3.88947
1907.14	4.82649
1907.39	2.94712
1907.64	3.88719
1907.89	3.88957
1908.14	2.95471
1908.39	2.96051
1908.64	0.144991
1908.89	6.72391
1909.14	2.96921
1909.39	3.91396
1909.63	4.86028
1909.88	3.92798
1910.13	2.99645
1910.38	1.12428
1910.63	4.89838
1910.88	6.79087
1911.13	7.74014
1911.38	1.15278
1911.62	3.98167
1911.87	3.98335
1912.12	4.92566
1912.37	2.09844
1912.62	11.5158
1912.87	4.9226
1913.12	2.09749
1913.37	4.9236
1913.61	6.80888
1913.86	3.04589
1914.11	5.88103
1914.36	1.17783
1914.61	6.84112
1914.86	0.246655
1915.11	3.08205
1915.36	2.14431
1915.6	0.261248
1915.85	4.03759
1916.1	1.2064
1916.35	1.20464
1916.6	3.09058
1916.85	1.20029
1917.1	4.02474
1917.34	4.02009
1917.59	4.01627
1917.84	4.95638
1918.09	4.95485
1918.34	4.95584
1918.59	3.07432
1918.83	2.1374
1919.08	3.08795
1919.33	4.98354
1919.58	3.1051
1919.83	4.06086
1920.08	5.01562
1920.33	3.13151
1920.57	1.24299
1920.82	1.24015
1921.07	4.07659
1921.32	5.02897
1921.57	5.98208
1921.81	5.04117
1922.06	4.09958
1922.31	8.83094
1922.56	3.15637
1922.81	2.20852
1923.06	5.98672
1923.31	7.87323
1923.55	4.08877
1923.8	0.30538
1924.05	4.08373
1924.3	5.02473
1924.55	5.01943
1924.79	5.01576
1925.04	1.23555
1925.29	0.291622
1925.54	4.07422
1925.79	3.13486
1926.04	3.14295
1926.28	1.25892
1926.53	0.319265
1926.78	4.11045
1927.03	3.17255
1927.28	6.018
1927.52	3.1818
1927.77	6.02625
1928.02	2.24135
1928.27	5.08571
1928.52	5.08853
1928.76	4.14287
1929.01	2.25115
1929.26	10.783
1929.51	1.3102
1929.76	2.26339
1930	5.11609
1930.25	2.2774
1930.5	2.28495
1930.75	1.34176
1931	3.2468
1931.24	5.14726
1931.49	3.24866
1931.74	-0.551502
1931.99	3.24203
1932.24	6.0853
1932.48	3.23348
1932.73	4.17806
1932.98	1.32687
1933.23	5.11998
1933.47	-1.5246
1933.72	4.16805
1933.97	1.32875
1934.22	2.28978
1934.46	4.20628
1934.71	-0.523794
1934.96	7.10899
1935.21	6.17898
1935.46	7.14973
1935.7	1.44351
1935.95	2.40508
1936.2	0.480581
1936.45	-0.475716
1936.69	1.42801
1936.94	8.09426
1937.19	5.22876
1937.44	2.36341
1937.68	8.07078
1937.93	3.30283
1938.18	4.2489
1938.43	3.29054
1938.68	1.386
1938.92	2.34591
1939.17	2.34813
1939.42	5.20818
1939.67	4.25965
1939.91	6.16757
1940.16	2.3605
1940.41	2.36061
1940.66	3.31905
1940.9	5.23128
1941.15	5.24953
1941.4	1.44254
1941.64	2.39577
1941.89	0.482941
1942.14	4.28852
1942.39	3.31723
1942.63	2.37242
1942.88	0.489029
1943.13	1.44848
1943.38	5.26787
1943.62	6.20939
1943.87	1.42432
1944.12	6.18308
1944.37	5.24665
1944.61	3.34264
1944.86	1.43758
1945.11	2.39717
1945.35	4.31289
1945.6	2.40767
1945.85	4.32429
1946.1	5.28518
1946.34	4.33327
1946.59	4.33624
1946.84	1.46895
1947.09	1.46914
1947.33	4.3365
1947.58	4.33268
1947.83	3.37213
1948.07	9.10744
1948.32	4.32464
1948.57	2.41054
1948.82	8.14384
1949.06	2.40679
1949.31	2.41008
1949.56	4.32708
1949.8	6.24516
1950.05	5.29429
1950.3	4.3432
1950.54	5.3113
1950.79	6.28134
1951.04	6.29055
1951.29	6.3008
1951.53	3.43393
1951.78	8.24097
1952.03	2.48961
1952.27	4.41349
1952.52	5.37644
1952.77	6.33998
1953.01	0.574755
1953.26	2.49871
1953.51	3.46458
1953.76	4.41581
1954	4.40334
1954.25	6.30252
1954.49	3.40667
1954.74	4.34896
1954.99	4.33423
1955.24	6.24436
1955.48	-2.38006
1955.73	3.36911
1955.98	1.45804
1956.22	4.34348
1956.47	5.32112
1956.72	6.28729
1956.96	3.41518
1957.21	1.49767
1957.46	3.42265
1957.7	2.4659
1957.95	6.31232
1958.2	5.35381
1958.44	5.35489
1958.69	3.43277
1958.94	0.548632
1959.18	4.38914
1959.43	0.53787
1959.68	6.29851
1959.92	5.33454
1960.17	6.28866
1960.42	5.32129
1960.66	2.43364
1960.91	4.34753
1961.16	4.34008
1961.4	4.33294
1961.65	1.44727
1961.9	6.24076
1962.14	4.32029
1962.39	6.23926
1962.63	6.23829
1962.88	7.1973
1963.13	4.31686
1963.37	4.31581
1963.62	5.27458
1963.87	4.31345
1964.11	4.31264
1964.36	2.39359
1964.61	7.19562
1964.85	6.23256
1965.1	1.42698
1965.35	4.30584
1965.59	6.22285
1965.84	10.062
1966.08	4.30132
1966.33	6.22548
1966.58	8.1514
1966.82	3.35159
1967.07	6.2368
1967.32	7.19954
1967.56	3.35144
1967.81	4.31047
1968.05	3.34929
1968.3	7.19329
1968.55	6.2309
1968.79	8.15059
1969.04	2.37748
1969.29	7.17592
1969.53	7.16573
1969.78	9.07449
1970.02	6.18061
1970.27	4.25019
1970.52	6.16144
1970.76	8.07401
1971.01	7.10632
1971.25	5.18025
1971.5	5.17431
1971.75	2.29128
1971.99	2.28661
1972.24	6.12276
1972.48	7.08238
1972.73	3.244
1972.98	6.1191
1973.22	7.0731
1973.47	6.10614
1973.71	3.22006
1973.96	2.25361
1974.21	7.99901
1974.45	4.15948
1974.7	6.07265
1974.94	6.07009
1975.19	5.10995
1975.44	7.9855
1975.68	6.06943
1975.93	10.8658
1976.17	6.07263
1976.42	7.99128
1976.66	6.07221
1976.91	5.1113
1977.16	8.94566
1977.4	7.98265
1977.65	7.01852
1977.89	7.01216
1978.14	4.12773
1978.39	4.12023
1978.63	7.94804
1978.88	10.8173
1979.12	6.9783
1979.37	10.8093
1979.61	4.09793
1979.86	7.92925
1980.1	7.92766
1980.35	9.84243
1980.6	4.08527
1980.84	5.0356
1981.09	8.86037
1981.33	5.9803
1981.58	5.97303
1981.82	10.756
1982.07	6.91946
1982.31	10.7464
1982.56	12.6575
1982.81	6.9032
1983.05	6.89495
1983.3	8.79899
1983.54	10.7001
1983.79	8.77596
1984.03	5.89981
1984.28	8.76422
1984.52	9.7144
1984.77	6.83869
1985.02	8.74552
1985.26	10.6491
1985.51	4.90162
1985.75	8.71793
1986	9.67074
1986.24	7.75804
1986.49	6.80336
1986.73	3.93703
1986.98	7.76114
1987.22	8.71297
1987.47	11.5811
1987.71	6.79123
1987.96	10.6023
1988.21	8.67641
1988.45	11.5263
1988.7	8.64304
1988.94	7.6614
1989.19	10.4933
1989.43	6.74466
1989.68	10.4768
1989.92	9.52509
1990.17	8.63543
1990.41	7.78853
1990.66	8.56258
1990.9	9.78853
1991.15	9.59437
1991.39	8.15438
1991.64	5.22027
1991.88	10.6892
1992.13	8.11288
1992.37	8.67633
1992.62	9.18837
1992.86	10.7661
1993.11	11.8981
1993.35	7.198
1993.6	12.6806
1993.84	10.9283
1994.09	10.7422
1994.33	10.4823
1994.58	8.92706
1994.82	9.56063
1995.07	9.61444
1995.31	8.84551
1995.56	14.9104
1995.8	11.733
1996.05	12.1803
1996.29	8.63783
1996.54	9.76233
1996.78	9.75388
1997.03	11.7954
1997.27	12.6673
1997.52	10.9799
1997.76	11.4061
1998.01	5.88999
1998.25	11.8371
1998.5	12.3216
1998.74	11.5879
1998.99	10.3898
1999.23	10.8281
1999.48	13.4499
1999.72	13.1301
1999.97	10.756
2000.21	12.9019
2000.46	10.6827
2000.7	13.1842
2000.95	12.5303
2001.19	9.97366
2001.43	12.1909
2001.68	12.8919
2001.92	12.7433
2002.17	14.3544
2002.41	12.3213
2002.66	14.2951
2002.9	12.607
2003.15	12.209
2003.39	11.5894
2003.64	12.5226
2003.88	12.4531
2004.13	12.0692
2004.37	11.6558
2004.61	13.0819
2004.86	14.305
2005.1	14.8976
2005.35	13.0735
2005.59	10.3003
2005.84	9.91881
2006.08	13.0784
2006.33	14.9155
2006.57	11.0261
2006.81	12.759
2007.06	11.3812
2007.3	9.46648
2007.55	11.9618
2007.79	12.1477
2008.04	12.4099
2008.28	10.9332
2008.53	13.4714
2008.77	12.6622
2009.01	11.332
2009.26	11.4474
2009.5	10.7727
2009.75	8.25988
2009.99	12.5266
2010.24	12.9052
2010.48	14.5541
2010.73	14.0547
2010.97	13.3568
2011.21	13.4259
2011.46	13.4244
2011.7	15.7821
2011.95	11.6661
2012.19	13.3056
2012.43	7.84177
2012.68	11.6024
2012.92	11.5966
2013.17	12.5273
2013.42	11.5703
2013.67	10.6088
2013.91	7.77471
2014.16	8.69972
2014.41	9.62154
2014.66	9.6005
2014.9	14.2744
2015.15	12.3893
2015.4	10.5108
2015.64	11.451
2015.89	14.2703
2016.14	9.57725
2016.39	14.2645
2016.63	11.454
2016.88	13.3566
2017.13	10.5393
2017.37	7.71447
2017.62	16.1637
2017.87	9.57475
2018.11	11.4396
2018.36	11.4226
2018.61	11.4046
2018.86	9.51223
2019.1	13.2476
2019.35	11.3548
2019.6	8.52759
2019.84	9.45493
2020.09	9.44698
2020.34	9.4412
2020.58	13.1838
2020.83	13.1788
2021.08	9.42804
2021.33	14.1097
2021.57	10.3624
2021.82	8.48613
2022.07	11.2913
2022.31	12.2213
2022.56	9.40382
2022.81	10.3305
2023.05	13.1269
2023.3	8.43452
2023.55	9.35988
2023.8	13.0905
2024.04	11.209
2024.29	11.1981
2024.54	12.1228
2024.78	10.2389
2025.03	12.092
2025.27	10.2092
2025.52	9.26164
2025.77	9.24856
2026.02	7.3704
2026.26	10.154
2026.51	8.28888
2026.76	9.23099
2027	6.44823
2027.25	12.075
2027.5	10.2328
2027.74	13.9911
2027.99	6.49816
2028.23	8.34551
2028.48	8.31223
2028.73	7.28851
2028.98	5.50165
2029.22	13.1083
2029.47	6.48064
2029.72	14.935
2029.96	9.25401
2030.21	12.0157
2030.45	11.9711
2030.7	9.168
2030.95	6.34171
2031.19	7.29366
2031.44	6.37626
2031.69	5.43555
2031.93	7.29883
2032.18	9.16291
2032.43	7.30298
2032.67	7.31045
2032.92	10.1212
2033.17	9.19533
2033.41	2.65893
2033.66	11.0746
2033.91	7.34189
2034.15	7.34351
2034.4	8.2587
2034.64	7.29956
2034.89	8.19735
2035.14	10.9845
2035.38	9.13015
2035.63	7.27155
2035.87	9.15497
2036.12	9.17654
2036.37	9.19091
2036.61	8.25128
2036.86	6.36175
2037.11	7.29459
2037.35	7.2994
2037.6	8.23127
2037.84	8.2268
2038.09	8.22074
2038.34	9.14861
2038.58	3.53298
2038.83	8.19833
2039.08	2.58401
2039.32	7.24796
2039.57	11.9099
2039.81	7.23138
2040.06	10.0226
2040.31	3.47601
2040.55	5.33183
2040.8	9.98592
2041.04	10.9075
2041.29	9.03237
2041.54	8.0914
2041.78	5.2892
2042.03	4.35241
2042.27	6.20987
2042.52	8.06741
2042.77	7.12604
2043.01	7.12081
2043.26	5.25457
2043.5	8.98165
2043.75	4.32783
2044	8.99886
2044.24	5.27889
2044.49	6.2138
2044.73	5.27672
2044.98	8.06504
2045.23	8.97991
2045.47	7.0845
2045.72	6.18814
2045.96	7.12793
2046.21	5.30207
2046.45	5.34822
2046.7	4.38512
2046.95	10.8931
2047.19	8.06424
2047.44	8.06308
2047.68	6.18458
2047.93	10.8194
2048.17	7.08056
2048.42	7.07941
2048.67	7.07849
2048.91	2.41641
2049.16	5.21407
2049.4	3.35397
2049.65	1.4917
2049.89	7.09575
2050.14	5.23793
2050.39	6.17741
2050.63	8.98594
2050.88	6.18629
2051.12	7.11975
2051.37	8.0496
2051.61	6.17257
2051.86	6.16119
2052.11	3.35737
2052.35	6.15689
2052.6	6.15932
2052.84	4.29051
2053.09	3.35762
2053.33	7.09675
2053.58	4.2976
2053.82	6.17215
2054.07	6.18456
2054.31	8.05877
2054.56	6.19011
2054.8	4.31805
2055.05	4.3152
2055.3	3.37613
2055.54	4.3073
2055.79	4.29825
2056.03	2.4228
2056.28	8.02914
2056.52	7.08903
2056.77	7.0835
2057.01	8.94877
2057.26	6.14238
2057.5	7.07656
2057.75	6.1422
2058	3.33914
2058.24	5.21162
2058.49	4.27893
2058.73	5.21962
2058.98	5.22445
2059.22	6.16468
2059.47	4.29543
2059.71	5.23143
2059.96	4.29501
2060.2	2.42131
2060.45	4.28819
2060.69	7.08977
2060.94	8.02035
2061.18	5.21452
2061.43	6.15316
2061.67	4.28209
2061.92	6.15408
2062.16	4.28041
2062.41	2.40704
2062.65	4.28
2062.9	4.28135
2063.14	6.15703
2063.39	3.35047
2063.63	3.35349
2063.88	0.544271
2064.12	6.16867
2064.37	5.23237
2064.61	9.92007
2064.86	5.23507
2065.1	4.30026
2065.35	3.36758
2065.59	8.06536
2065.84	5.25766
2066.08	5.26345
2066.33	3.39016
2066.57	9.02651
2066.82	8.08746
2067.06	4.33294
2067.31	6.21331
2067.55	3.39655
2067.8	6.21728
2068.04	5.28136
2068.29	2.46482
2068.53	10.9253
2068.78	8.10626
2069.02	6.2297
2069.27	0.588137
2069.51	2.46309
2069.76	9.03186
2070	5.25868
2070.25	3.37404
2070.49	4.31465
2070.73	6.20485
2070.98	7.15943
2071.22	5.2936
2071.47	7.17132
2071.71	4.33981
2071.96	6.25479
2072.2	7.20809
2072.45	5.32129
2072.69	2.49308
2072.94	5.31593
2073.18	5.31224
2073.43	2.48656
2073.67	5.30845
2073.92	2.4842
2074.16	2.48411
2074.4	7.1928
2074.65	5.31197
2074.89	10.0263
2075.14	4.38163
2075.38	0.620806
2075.63	4.40293
2075.87	10.0782
2076.12	6.3148
2076.36	5.37578
2076.6	-0.288322
2076.85	5.37623
2077.09	3.48426
2077.34	5.36517
2077.58	4.41398
2077.83	5.34284
2078.07	2.50969
2078.31	3.45539
2078.56	5.34746
2078.8	4.40608
2079.05	4.40805
2079.29	3.468
2079.54	6.30573
2079.78	5.37548
2080.03	4.43648
2080.27	5.38572
2080.51	0.665758
2080.76	1.61355
2081	9.17346
2081.25	1.61021
2081.49	3.49757
2081.74	3.49629
2081.98	5.38518
2082.22	-1.22984
2082.47	6.33047
2082.71	3.49769
2082.96	6.33395
2083.2	9.16931
2083.45	3.49841
2083.69	6.33186
2083.93	5.38541
2084.18	5.38521
2084.42	1.60557
2084.67	6.32979
2084.91	5.38513
2085.15	5.38593
2085.4	6.33106
2085.64	5.38582
2085.89	7.27589
2086.13	3.4977
2086.37	10.1223
2086.62	5.40524
2086.86	4.46636
2087.11	5.41526
2087.35	6.36508
2087.59	3.53152
2087.84	4.48069
2088.08	2.58825
2088.32	3.53519
2088.57	2.58963
2088.81	6.37688
2089.06	3.53913
2089.3	4.48725
2089.54	4.49204
2089.79	4.49722
2090.03	5.45243
2090.28	3.56105
2090.52	2.61549
2090.76	6.40727
2091.01	-0.221775
2091.25	4.51916
2091.5	3.57511
2091.74	4.52631
2091.98	3.58625
2092.23	3.59498
2092.47	4.55319
2092.72	6.46107
2092.96	4.57387
2093.2	3.63274
2093.45	4.59021
2093.69	0.798073
2093.93	2.70549
2094.18	3.66229
2094.42	6.52033
2094.66	6.52284
2094.91	2.72044
2095.15	4.62121
2095.39	7.47171
2095.64	3.66507
2095.88	5.56118
2096.13	5.55762
2096.37	3.65477
2096.61	2.70346
2096.86	6.50313
2097.1	5.55278
2097.34	5.54955
2097.59	3.64516
2097.83	5.53923
2098.07	0.790882
2098.32	4.58765
2098.56	2.68866
2098.8	4.58393
2099.05	3.63587
2099.29	9.33082
2099.53	6.48271
2099.78	6.4824
2100.02	3.63596
2100.27	6.48437
2100.51	4.58842
2100.75	4.59121
2101	2.69695
2101.24	6.50267
2101.48	10.3086
2101.73	2.71622
2101.97	4.61887
2102.21	4.62019
2102.45	1.77139
2102.7	3.67251
2102.94	5.57172
2103.18	2.7194
2103.43	4.61398
2103.67	8.40936
2103.92	2.71422
2104.16	4.61258
2104.4	1.76689
2104.64	4.61868
2104.89	2.7258
2105.13	4.63075
2105.37	4.63648
2105.62	1.79343
2105.86	4.65155
2106.1	6.55957
2106.35	4.66381
2106.59	7.5202
2106.83	1.81991
2107.08	6.57616
2107.32	5.63009
2107.56	6.58371
2107.8	1.82862
2108.05	5.62741
2108.29	2.77066
2108.53	3.71497
2108.78	3.70918
2109.02	3.70511
2109.26	3.70473
2109.51	5.60694
2109.75	3.71721
2109.99	4.67499
2110.23	2.77741
2110.48	-1.02036
2110.72	5.63156
2110.96	3.73364
2111.21	2.78585
2111.45	3.73772
2111.69	2.78805
2111.93	1.83669
2112.18	4.68527
2112.42	0.887213
2112.66	3.73826
2112.91	3.74336
2113.15	6.59814
2113.39	3.75436
2113.63	5.66413
2113.88	4.72236
2114.12	-0.0248318
2114.36	5.67878
2114.61	4.7282
2114.85	1.87906
2115.09	3.78355
2115.33	6.63801
2115.58	3.78778
2115.82	2.83761
2116.06	0.937643
2116.31	4.73864
2116.55	4.73536
2116.79	0.933342
2117.03	4.73235
2117.28	2.83429
2117.52	4.73506
2117.76	2.83976
2118	2.83974
2118.25	3.78762
2118.49	1.88727
2118.73	-0.0148277
2118.97	5.67298
2119.22	3.77201
2119.46	6.61377
2119.7	1.86973
2119.94	-1.92429
2120.19	4.70852
2120.43	3.75969
2120.67	3.76122
2120.91	1.87
2121.16	6.61604
2121.4	6.62209
2121.64	2.8401
2121.88	2.84998
2122.13	0.013773
2122.37	4.76551
2122.61	3.82531
2122.85	0.0368271
2123.1	3.84001
2123.34	8.59294
2123.58	2.90291
2123.82	2.90734
2124.07	5.75648
2124.31	1.0104
2124.55	0.0604038
2124.79	4.80149
2125.03	0.0511723
2125.28	4.78277
2125.52	2.8782
2125.76	3.81955
2126	1.92055
2126.25	2.86305
2126.49	4.75229
2126.73	1.91109
2126.97	3.80117
2127.21	5.6903
2127.46	3.79647
2127.7	4.74318
2127.94	3.79991
2128.18	7.58361
2128.43	0.966732
2128.67	2.85941
2128.91	0.972794
2129.15	0.976749
2129.39	1.92479
2129.64	2.8717
2129.88	5.70903
2130.12	4.76654
2130.36	2.87904
2130.6	2.88136
2130.85	2.88324
2131.09	2.88457
2131.33	1.94058
2131.57	0.051672
2131.81	4.77388
2132.06	2.88531
2132.3	3.83094
2132.54	8.55218
2132.78	3.83049
2133.02	1.94205
2133.27	2.88732
2133.51	6.66558
2133.75	1.95291
2133.99	2.90189
2134.23	3.85015
2134.48	3.85573
2134.72	4.80473
2134.96	1.97709
2135.2	2.92443
2135.44	6.70283
2135.68	1.98743
2135.93	1.98925
2136.17	4.81938
2136.41	4.81497
2136.65	5.75356
2136.89	5.75368
2137.14	4.81682
2137.38	3.87984
2137.62	3.885
2137.86	3.8927
2138.1	3.90344
2138.34	5.79201
2138.59	5.78812
2138.83	4.84389
2139.07	6.73945
2139.31	1.0959
2139.55	4.8797
2139.79	3.92718
2140.03	4.86373
2140.28	3.92123
2140.52	6.74822
2140.76	3.9231
2141	6.75069
2141.24	2.9858
2141.49	3.93034
2141.73	4.87748
2141.97	4.87657
2142.21	2.99229
2142.45	3.93625
2142.69	4.8826
2142.93	0.185888
2143.18	3.96135
2143.42	3.04704
2143.66	1.15727
2143.9	3.91813
2144.14	9.5611
2144.38	5.81328
2144.62	0.187963
2144.87	5.84457
2145.11	-0.729082
2145.35	3.96353
2145.59	4.91142
2145.83	3.03747
2146.07	3.98152
2146.31	3.98453
2146.55	3.98747
2146.8	7.75057
2147.04	3.05382
2147.28	3.05651
2147.52	4.93754
2147.76	3.05994
2148	4.94098
2148.24	4.94347
2148.48	4.94559
2148.73	4.94775
2148.97	7.76658
2149.21	5.88951
2149.45	4.9503
2149.69	5.88749
2149.93	-0.685801
2150.17	5.87939
2150.42	2.12656
2150.66	4.00174
2150.9	6.81649
2151.14	1.19792
2151.38	8.70473
2151.62	3.09087
2151.86	2.16179
2152.1	3.10947
2152.34	2.1793
2152.58	0.312925
2152.83	5.00437
2153.07	4.06846
2153.31	2.19415
2153.55	3.13309
2153.79	6.88591
2154.03	4.0774
2154.27	5.0157
2154.51	5.95143
2154.75	4.07421
2154.99	2.19615
2155.24	4.06326
2155.48	8.73322
2155.72	4.0539
2155.96	1.24747
2156.2	3.11614
2156.44	0.31424
2156.68	3.12044
2156.92	0.322931
2157.16	4.06504
2157.4	4.07139
2157.64	0.342773
2157.89	1.28673
2158.13	0.36306
2158.37	1.30792
2158.61	2.25002
2158.85	5.995
2159.09	2.2613
2159.33	3.19994
2159.57	0.39946
2159.81	3.20486
2160.05	5.07409
2160.29	1.33774
2160.53	3.20522
2160.77	6.00606
2161.01	4.14013
2161.25	5.07668
2161.5	4.1485
2161.74	3.21936
2161.98	4.15623
2162.22	6.02759
2162.46	2.30235
2162.7	5.10779
2162.94	6.97968
2163.18	1.38663
2163.42	6.05341
2163.66	5.12417
2163.9	0.465305
2164.14	0.469332
2164.38	3.26999
2164.62	3.2709
2164.86	0.474955
2165.11	-0.453922
2165.35	3.28063
2165.59	4.2219
2165.83	4.229
2166.07	1.44063
2166.31	3.3114
2166.55	6.11032
2166.79	3.31894
2167.03	4.25324
2167.27	6.1172
2167.51	2.39484
2167.75	3.32668
2167.99	2.39481
2168.23	1.45885
2168.47	4.24412
2168.71	3.31702
2168.95	1.46399
2169.19	4.26153
2169.43	1.48265
2169.67	5.21485
2169.91	3.36934
2170.15	1.52433
2170.39	1.54105
2170.63	2.48489
2170.87	9.94462
2171.11	5.29318
2171.35	3.43251
2171.59	2.50616
2171.83	2.5028
2172.07	-1.228
2172.31	6.20758
2172.56	1.56204
2172.79	4.35256
2173.04	3.42683
2173.28	6.2205
2173.51	5.2981
2173.76	4.37583
2174	0.668438
2174.24	6.25433
2174.48	2.54688
2174.72	1.62587
2174.96	0.704042
2175.2	1.64048
2175.44	1.64731
2175.68	3.51158
2175.92	3.51712
2176.16	4.45274
2176.4	6.31695
2176.64	3.53442
2176.88	1.6796
2177.12	3.54315
2177.36	1.69273
2177.6	4.48756
2177.84	6.35332
2178.08	4.5022
2178.32	4.5106
2178.55	4.51532
2178.8	8.22986
2179.03	2.66017
2179.28	8.23755
2179.52	1.74699
2179.75	5.46877
2180	4.54803
2180.23	5.48386
2180.47	6.41959
2180.71	3.64079
2180.95	6.43179
2181.19	5.50899
2181.43	4.58736
2181.67	3.66482
2181.91	2.74094
2182.15	3.6736
2182.39	4.60768
2182.63	3.68369
2182.87	3.68868
2183.11	0.910521
2183.35	6.47865
2183.59	1.84288
2183.83	7.40554
2184.07	2.7723
2184.31	2.77576
2184.55	5.55936
2184.79	1.85943
2185.03	5.57413
2185.27	4.65789
2185.51	3.74083
2185.75	1.89685
2185.99	6.54227
2186.23	5.62774
2186.47	7.49508
2186.7	1.94345
2186.95	6.59675
2187.18	1.97332
2187.42	5.70139
2187.66	2.93176
2187.9	4.80251
2188.14	1.09646
2188.38	4.8164
2188.62	1.10512
2188.86	2.96486
2189.1	4.82329
2189.34	2.9684
2189.58	5.75212
2189.82	2.96822
2190.06	5.75015
2190.3	2.04602
2190.54	2.05272
2190.78	2.98794
2191.01	1.14369
2191.25	3.00768
2191.49	4.86976
2191.73	4.87908
2191.97	3.9618
2192.21	4.89932
2192.45	2.12711
2192.69	3.0644
2192.93	6.78504
2193.17	5.86991
2193.41	1.24277
2193.65	6.82323
2193.89	4.05259
2194.13	5.92926
2194.36	5.02164
2194.6	3.17944
2194.84	5.98081
2195.08	3.19809
2195.32	2.27325
2195.56	2.27845
2195.8	1.35304
2196.04	4.14287
2196.28	2.28536
2196.52	4.14143
2196.76	6.9252
2197	3.21378
2197.23	3.21657
2197.47	9.71348
2197.71	6.93389
2197.95	7.86931
2198.19	3.2402
2198.43	5.10606
2198.67	2.33677
2198.91	7.9195
2199.15	7.93635
2199.38	3.31097
2199.62	2.39723
2199.86	3.34256
2200.1	1.49955
2200.34	9.88964
2200.58	5.26174
2200.82	7.14449
2201.06	5.30145
2201.3	6.24912
2201.54	1.60425
2201.77	2.53355
2202.01	5.30755
2202.25	4.32788
2202.49	1.51547
2202.73	5.24986
2202.97	5.3055
2203.21	6.26521
2203.45	0.68491
2203.68	3.47714
2203.92	4.4379
2204.16	9.20006
2204.4	3.574
2204.64	4.51205
2204.88	6.38941
2205.12	3.58167
2205.36	6.35956
2205.59	3.5534
2205.83	7.26598
2206.07	7.26915
2206.31	2.62879
2206.55	-0.147718
2206.79	4.51054
2207.03	7.29712
2207.26	1.72836
2207.5	4.52903
2207.74	4.54165
2207.98	3.62457
2208.22	5.49856
2208.46	4.58144
2208.7	8.31778
2208.93	4.60688
2209.17	3.68716
2209.41	6.49113
2209.65	5.56916
2209.89	3.71424
2210.13	2.7897
2210.36	6.52344
2210.6	3.74027
2210.84	2.81987
2211.08	3.76314
2211.32	5.63868
2211.56	6.58246
2211.8	2.86588
2212.03	3.81117
2212.27	4.75681
2212.51	3.83551
2212.75	2.91203
2212.99	3.85054
2213.23	5.72074
2213.46	2.92761
2213.7	6.66091
2213.94	5.73092
2214.18	5.73984
2214.42	6.68525
2214.66	4.83854
2214.89	2.05631
2215.13	2.06622
2215.37	3.00912
2215.61	5.8188
2215.85	3.96011
2216.08	3.96805
2216.32	3.04177
2216.56	9.58429
2216.8	2.1216
2217.04	2.12772
2217.28	2.13397
2217.51	4.00826
2217.75	4.01643
2217.99	4.95847
2218.23	4.03189
2218.47	3.10508
2218.7	6.8481
2218.94	2.18912
2219.18	7.80319
2219.42	3.14506
2219.66	5.95966
2219.9	5.96984
2220.13	0.373272
2220.37	3.18638
2220.61	2.25821
2220.85	7.87154
2221.09	5.07388
2221.32	-0.528543
2221.56	2.276
2221.8	4.14445
2222.04	4.14567
2222.27	6.01486
2222.51	3.2178
2222.75	0.423578
2222.99	1.36558
2223.23	5.11046
2223.46	4.18746
2223.7	6.06667
2223.94	-0.459408
2224.18	5.16058
2224.42	2.37127
2224.65	4.25507
2224.89	5.20357
2225.13	0.538553
2225.37	0.550041
2225.6	3.37012
2225.84	3.38397
2226.08	4.33268
2226.32	3.40811
2226.56	2.48329
2226.79	2.49363
2227.03	-0.306351
2227.27	2.5166
2227.51	1.58938
2227.74	3.47409
2227.98	6.29562
2228.22	2.55041
2228.46	3.49272
2228.69	3.49734
2228.93	2.56447
2229.17	2.5696
2229.41	0.699734
2229.64	3.51844
2229.88	5.40428
2230.12	1.66611
2230.36	7.30682
2230.6	4.50339
2230.83	5.45316
2231.07	3.58755
2231.31	1.72127
2231.55	1.73288
2231.78	1.74471
2232.02	4.574
2232.26	1.76613
2232.5	6.47652
2232.73	4.60788
2232.97	4.61871
2233.21	3.68923
2233.45	2.75913
2233.68	5.59212
2233.92	4.66218
2234.16	4.67185
2234.39	6.56329
2234.63	5.62643
2234.87	2.80663
2235.11	4.69171
2235.34	0.929281
2235.58	0.927132
2235.82	6.56922
2236.06	-0.00690269
2236.29	3.76134
2236.53	3.76845
2236.77	3.77554
2237	1.9011
2237.24	0.967361
2237.48	-0.903461
2237.72	2.87068
2237.95	1.94406
2238.19	6.66849
2238.43	1.03152
2238.67	5.75555
2238.9	0.111801
2239.14	3.89577
2239.38	1.08024
2239.61	3.91749
2239.85	3.92068
2240.09	5.80906
2240.33	1.0919
2240.56	3.92004
2240.8	4.86501
2241.04	3.93832
2241.27	3.95308
2241.51	5.84689
2241.75	4.91027
2241.99	4.91746
2242.22	3.98048
2242.46	4.93157
2242.7	4.9395
2242.93	3.05972
2243.17	5.89738
2243.41	3.06919
2243.64	4.01482
2243.88	6.84723
2244.12	1.18771
2244.36	5.91033
2244.59	2.14116
2244.83	2.14945
2245.07	4.0494
2245.3	5.00897
2245.54	5.96816
2245.78	2.19862
2246.01	3.15319
2246.25	5.99958
2246.49	6.95541
2246.72	3.18115
2246.96	-3.43398
2247.2	4.14242
2247.43	6.04334
2247.67	6.0506
2247.91	5.10978
2248.14	1.32795
2248.38	3.22394
2248.62	6.06585
2248.85	3.22948
2249.09	4.17866
2249.33	7.0201
2249.56	4.18459
2249.8	2.30043
2250.04	7.03981
2250.27	6.09711
2250.51	7.04413
2250.75	7.04273
2250.98	4.20296
2251.22	1.36358
2251.46	0.417797
2251.69	7.03687
2251.93	5.14835
2252.17	2.3168
2252.4	6.10542
2252.64	0.439054
2252.88	4.23083
2253.11	4.24257
2253.35	2.36639
2253.59	7.11459
2253.82	3.33691
2254.06	3.34626
2254.3	7.14561
2254.53	5.25856
2254.77	1.47295
2255.01	1.47677
2255.24	9.0628
2255.48	3.37872
2255.72	5.27855
2255.95	7.17926
2256.19	6.23548
2256.42	4.34653
2256.66	6.25177
2256.9	2.46451
2257.13	2.47144
2257.37	2.47846
2257.61	8.181
2257.84	3.44144
2258.08	4.39664
2258.32	4.40105
2258.55	1.55611
2258.79	0.61075
2259.02	8.2142
2259.26	3.47139
2259.5	4.42796
2259.73	3.48294
2259.97	4.43799
2260.2	4.44359
2260.44	4.44893
2260.68	8.25653
2260.91	3.50827
2261.15	7.31811
2261.39	1.62247
2261.62	2.5811
2261.86	0.681698
2262.1	2.58842
2262.33	6.39913
2262.57	6.40381
2262.8	8.31363
2263.04	5.46596
2263.28	3.56955
2263.51	4.53071
2263.75	6.44633
2263.98	4.55168
2264.22	2.6567
2264.46	-1.14808
2264.69	4.58633
2264.93	4.59568
2265.16	4.60376
2265.4	2.7009
2265.64	5.57247
2265.87	4.61994
2266.11	-1.10883
2266.34	6.53286
2266.58	4.61855
2266.81	2.70465
2267.05	5.56402
2267.29	0.788107
2267.52	2.69439
2267.76	5.55451
2267.99	4.59789
2268.23	2.68627
2268.47	2.68364
2268.7	1.73005
2268.94	1.73209
2269.17	5.55108
2269.41	0.788609
2269.65	3.6579
2269.88	7.4837
2270.12	6.53862
2270.35	2.72906
2270.59	-0.128544
2270.82	4.65418
2271.06	4.65837
2271.3	4.66487
2271.53	2.75818
2271.77	6.58686
2272	3.72254
2272.24	1.81487
2272.47	4.68788
2272.71	2.77578
2272.95	5.64771
2273.18	3.73619
2273.42	2.78137
2273.65	5.65387
2273.89	8.52671
2274.12	4.70073
2274.36	7.57371
2274.6	3.74691
2274.83	2.79136
2275.07	6.62197
2275.3	3.75224
2275.54	4.71123
2275.77	4.71309
2276.01	3.755
2276.24	3.75876
2276.48	2.8069
2276.72	2.81281
2276.95	1.85974
2277.18	3.78125
2277.42	1.86928
2277.66	2.83567
2277.89	3.80381
2278.13	4.77308
2278.36	1.90317
2278.6	2.86669
2278.83	4.78904
2279.07	1.90761
2279.3	4.78765
2279.54	6.70632
2279.78	3.82025
2280.01	-0.0304832
2280.24	-0.0371361
2280.48	1.87512
2280.72	1.86918
2280.95	-0.0536232
2281.19	2.81877
2281.42	3.77431
2281.66	4.72888
2281.89	1.85036
2282.13	5.68615
2282.36	2.81134
2282.6	5.69009
2282.83	3.77649
2283.07	3.78126
2283.3	2.82647
2283.54	3.79184
2283.77	0.920214
2284.01	6.69251
2284.24	5.74202
2284.48	6.71478
2284.71	1.91245
2284.95	5.76108
2285.19	6.72798
2285.42	1.92145
2285.65	5.77119
2285.89	6.73291
2286.12	4.80111
2286.36	1.90435
2286.59	6.71106
2286.83	2.86398
2287.06	3.82827
2287.3	3.83815
2287.54	2.88322
2287.77	1.92196
2288	4.81215
2288.24	6.74424
2288.47	4.81363
2288.71	0.95491
2288.94	2.87585
2289.18	6.72125
2289.41	2.86026
2289.65	3.81157
2289.88	1.87704
2290.12	3.78854
2290.35	5.7057
2290.59	8.58481
2290.82	3.77597
2291.06	4.73558
2291.29	5.69858
2291.53	3.77973
2291.76	0.899252
2292	3.7888
2292.23	0.903109
2292.47	1.86708
2292.7	3.79468
2292.94	5.72425
2293.17	6.69095
2293.41	3.80264
2293.64	0.912653
2293.88	4.76753
2294.11	2.83861
2294.34	5.72539
2294.58	6.68307
2294.81	1.85829
2295.05	4.74113
2295.28	-1.04479
2295.52	2.80186
2295.75	4.72136
2295.99	5.67761
2296.22	7.59683
2296.46	2.77455
2296.69	5.648
2296.93	2.75717
2297.16	2.75596
2297.39	0.83153
2297.63	0.83231
2297.86	3.72207
2298.1	2.76276
2298.33	5.65752
2298.57	4.69649
2298.8	2.76938
2299.04	7.59014
2299.27	5.66578
2299.51	2.77498
2299.74	2.77567
2299.97	1.80981
2300.21	3.73514
2300.44	0.837664
2300.68	5.65661
2300.91	7.58558
2301.15	4.69204
2301.38	1.79644
2301.61	7.5863
2301.85	7.58451
2302.08	2.75492
2302.32	5.64605
2302.55	4.67458
2302.79	0.808468
2303.02	5.63073
2303.25	6.59126
2303.49	2.72541
2303.72	3.68602
2303.96	0.787148
2304.19	1.75038
2304.43	3.68091
2304.66	4.64624
2304.89	6.57627
2305.13	3.67872
2305.36	1.74723
2305.6	3.67777
2305.83	6.57321
2306.07	3.67248
2306.3	3.67133
2306.53	2.70355
2306.77	4.63331
2307	6.56258
2307.24	4.62466
2307.47	7.519
2307.7	1.71311
2307.94	0.73937
2308.17	2.66572
2308.41	3.62515
2308.64	2.65237
2308.87	-0.250635
2309.11	3.61036
2309.34	5.5421
2309.58	1.67604
2309.81	4.57731
2310.04	0.712542
2310.28	5.5489
2310.51	4.57936
2310.75	1.67311
2310.98	-0.267136
2311.21	3.59497
2311.45	1.6502
2311.68	6.46481
2311.92	6.44205
2312.15	7.39291
2312.38	1.58887
2312.62	4.4761
2312.85	4.46659
2313.08	2.52847
2313.32	3.48802
2313.55	3.48592
2313.79	3.48847
2314.02	-0.36965
2314.25	3.49541
2314.49	3.49768
2314.72	5.43337
2314.95	0.603609
2315.19	3.50778
2315.42	5.44186
2315.66	5.42963
2315.89	4.45081
2316.12	0.573313
2316.36	5.39482
2316.59	4.409
2316.82	5.36215
2317.06	3.42196
2317.29	3.41618
2317.52	1.48099
2317.76	4.3741
2317.99	0.511919
2318.23	5.34124
2318.46	5.32685
2318.69	4.35146
2318.93	5.30826
2319.16	4.33335
2319.39	7.21937
2319.63	4.31455
2319.86	9.13129
2320.09	8.15883
2320.33	8.15362
2320.56	9.11407
2320.79	4.28376
2321.03	8.1411
2321.26	5.2446
2321.5	7.17446
2321.73	6.20893
2321.96	10.0727
2322.2	5.24609
2322.43	8.14821
2322.66	4.2841
2322.9	9.11502
2323.13	6.20815
2323.36	7.1708
2323.6	3.30029
2323.83	12.9653
2324.06	11.9954
2324.3	13.9251
2324.53	10.0504
2324.76	18.7458
2325	16.7972
2325.23	17.7464
2325.46	22.5571
2325.7	20.6098
2325.93	25.4244
2326.16	27.3406
2326.4	37.943
2326.63	44.6802
2326.86	54.3089
2327.09	75.509
2327.33	109.237
2327.56	165.127
2327.79	194.016
2328.03	243.134
2328.26	230.57
2328.49	198.771
2328.73	143.828
2328.96	94.6692
2329.19	75.3669
2329.43	52.2186
2329.66	35.8183
2329.89	33.8813
2330.13	30.0212
2330.36	30.9863
2330.59	19.4191
2330.82	13.6318
2331.06	15.5495
2331.29	11.691
2331.52	6.87286
2331.76	8.79845
2331.99	2.05474
2332.22	2.05548
2332.46	5.89734
2332.69	6.85001
2332.92	1.06259
2333.16	2.98027
2333.39	3.93479
2333.62	5.85197
2333.85	3.91886
2334.09	1.98659
2334.32	7.75248
2334.55	3.89392
2334.79	2.92046
2335.02	5.79736
2335.25	1.94295
2335.48	5.78405
2335.72	3.85455
2335.95	9.62083
2336.18	4.8098
2336.41	5.76604
2336.65	5.75852
2336.88	2.86755
2337.11	3.82344
2337.34	2.85652
2337.58	2.85082
2337.81	2.84535
2338.04	4.7615
2338.28	-0.0509739
2338.51	0.904951
2338.74	1.86072
2338.97	-0.0665264
2339.21	3.77481
2339.44	2.8101
2339.67	-2.00018
2339.91	4.72339
2340.14	0.872751
2340.37	6.6319
2340.6	2.77982
2340.84	5.65368
2341.07	4.6832
2341.3	2.75154
2341.53	-1.09968
2341.77	1.76721
2342	2.71592
2342.23	0.789646
2342.46	4.61794
2342.7	2.6928
2342.93	5.56255
2343.16	0.764431
2343.39	4.59498
2343.63	2.67472
2343.86	2.67029
2344.09	5.54169
2344.32	3.62182
2344.56	1.70323
2344.79	2.65968
2345.02	1.69736
2345.25	4.56861
2345.49	1.6875
2345.72	4.55584
2345.95	4.54614
2346.18	0.706945
2346.41	2.61551
2346.65	0.695837
2346.88	3.56489
2347.11	1.64606
2347.34	2.59909
2347.58	-0.27737
2347.81	5.4643
2348.04	1.63311
2348.27	2.58999
2348.5	6.42135
2348.74	-0.282076
2348.97	3.54669
2349.2	0.669701
2349.43	4.49396
2349.67	1.60993
2349.9	2.55485
2350.13	3.49715
2350.36	5.39165
2350.59	4.41541
2350.83	3.42613
2351.06	2.41936
2351.29	1.50391
2351.52	3.49648
2351.75	5.43687
2351.99	1.55796
2352.22	1.53085
2352.45	1.5323
2352.68	4.39842
2352.91	4.38177
2353.15	6.26353
2353.38	5.29073
2353.61	0.533989
2353.84	5.29501
2354.07	1.47994
2354.31	0.527861
2354.54	1.47957
2354.77	3.39102
2355	5.30326
2355.23	0.538464
2355.47	6.25449
2355.7	2.44167
2355.93	3.39274
2356.16	1.48553
2356.39	1.4824
2356.63	5.28422
2356.86	-0.437349
2357.09	2.40953
2357.32	-1.39838
2357.55	5.25592
2357.79	4.3023
2358.02	3.34949
2358.25	5.24872
2358.48	3.347
2358.71	3.34706
2358.94	2.39365
2359.18	4.29348
2359.41	5.244
2359.64	1.44532
2359.87	0.495335
2360.1	5.24239
2360.33	3.34054
2360.57	3.33767
2360.8	2.38594
2361.03	3.33235
2361.26	1.43266
2361.49	0.482138
2361.72	1.42828
2361.96	2.37402
2362.19	2.37157
2362.42	4.26346
2362.65	3.31358
2362.88	4.25906
2363.11	2.36485
2363.34	2.36506
2363.58	0.47331
2363.81	6.15307
2364.04	2.37036
2364.27	2.37261
2364.5	2.37443
2364.73	1.43042
2364.97	0.486914
