#Acq. time (s)=	30
#Accumulations=	2
#Range (cm-¹)=	1200...2365
#Windows=	3
#Auto scanning=	Off
#Autofocus=	Off
#Macrospot=	Off
#AutoExposure=	Off
#Spike filter=	Multiple accum.
#Delay time (s)=	2
#Binning=	1
#Readout mode=	Signal
#DeNoise=	Off
#ICS correction=	On
#Dark correction=	Off
#Inst. Process=	Off
#Detector Gain=	Best Dynamic
#Detector ADC=	50 kHz HS
#Detector temperature (°C)=	-60.09
#Instrument=	LabRAM HR Evol
#Detector=	SIN-EM FIVIS
#Objective=	x100_VIS_LWD
#Grating=	1800 (450-850nm)
#ND Filter=	100%
#Laser=	532nm_Edge
#Hole=	100.021
#Temperature=	0
#Range=	Visible
#StageXY=	75x50mm Scan+
#StageZ=	Z motor
#X (µm)=	0
#Y (µm)=	0
#Z (µm)=	-47.2
#Full time(mm:ss)=	3:22
#Project=	21_11_26
#Sample=	BU19(2)w
#Site=	
#Title=	BU19(2)w-A-FF1-FI01-V_1800 (450-850nm)_532nm_Edge_100%_x100_VIS_LWD_H100um_30sX2
#Remark=	
#Date=	26.11.2021 11:36
#Acquired=	26.11.2021 11:36:17
#Base:Fit=	16.12.2021 16:00:56
#Base:Sub=	16.12.2021 16:04:20
1202.72	4.7682
1203	8.19299
1203.28	5.08373
1203.56	6.22148
1203.84	4.1189
1204.11	6.33659
1204.39	-0.0421524
1204.67	3.28086
1204.95	18.434
1205.23	7.76345
1205.5	9.98023
1205.78	11.1177
1206.06	3.66098
1206.34	4.79389
1206.61	12.3609
1206.89	2.76717
1207.17	1.75439
1207.45	3.95943
1207.73	9.38288
1208	9.45079
1208.28	10.5935
1208.56	10.6619
1208.84	3.23384
1209.11	0.0891533
1209.39	8.709
1209.67	2.36483
1209.95	3.50963
1210.23	11.0646
1210.5	10.0583
1210.78	6.90094
1211.06	6.95027
1211.34	10.2065
1211.61	4.91888
1211.89	8.17355
1212.17	8.2192
1212.45	7.19913
1212.72	5.12036
1213	6.23723
1213.28	13.7429
1213.56	-0.0472374
1213.83	10.6605
1214.11	12.8418
1214.39	7.58784
1214.67	8.71962
1214.94	1.33187
1215.22	10.9766
1215.5	9.97208
1215.78	6.83704
1216.05	3.69978
1216.33	14.3872
1216.61	3.78408
1216.89	7.0079
1217.16	12.3564
1217.44	1.76744
1217.72	3.93333
1218	2.91092
1218.27	2.95343
1218.55	5.11887
1218.83	5.16095
1219.1	8.39149
1219.38	4.19614
1219.66	5.30441
1219.94	9.59259
1220.21	10.6936
1220.49	7.56055
1220.77	4.42927
1221.04	7.65764
1221.32	5.57972
1221.6	7.7383
1221.88	3.53493
1222.15	5.68536
1222.43	12.0653
1222.71	6.78706
1222.98	6.80257
1223.26	2.58759
1223.54	11.0658
1223.81	5.79843
1224.09	7.93452
1224.37	0.562618
1224.65	2.70425
1224.92	6.95867
1225.2	4.88108
1225.48	12.3097
1225.76	3.91301
1226.03	9.23847
1226.31	11.3984
1226.59	1.93102
1226.86	17.8031
1227.14	10.4388
1227.42	6.24405
1227.69	13.635
1227.97	10.4461
1228.25	4.12479
1228.52	8.33853
1228.8	10.4191
1229.08	7.25336
1229.35	11.4864
1229.63	5.3605
1229.91	7.63
1230.18	14.9886
1230.46	7.58237
1230.74	12.8598
1231.01	8.68607
1231.29	5.52369
1231.57	8.59257
1231.84	13.8893
1232.12	9.71554
1232.4	8.6931
1232.67	13.9692
1232.95	3.49097
1233.23	9.8206
1233.5	15.0959
1233.78	16.1733
1234.06	12.0034
1234.33	13.0878
1234.61	8.9192
1234.89	12.1081
1235.16	11.0947
1235.44	18.484
1235.71	11.1584
1235.99	9.08953
1236.27	13.326
1236.54	3.88753
1236.82	10.2132
1237.1	13.3815
1237.37	17.5951
1237.65	11.2925
1237.93	16.5443
1238.2	13.3941
1238.48	16.5418
1238.76	19.6872
1239.03	12.3487
1239.31	15.5056
1239.58	13.4217
1239.86	12.3884
1240.14	11.3576
1240.41	10.3287
1240.69	10.3495
1240.97	11.4203
1241.24	14.5891
1241.52	16.7083
1241.79	16.7223
1242.07	18.8257
1242.35	18.8373
1242.62	13.6184
1242.9	9.4496
1243.18	14.7179
1243.45	24.18
1243.73	17.9079
1244	12.6853
1244.28	25.2877
1244.56	9.57969
1244.83	16.9312
1245.11	14.8456
1245.39	22.1839
1245.66	17.9917
1245.94	14.8424
1246.21	22.1657
1246.49	15.8909
1246.76	22.1821
1247.04	18.0117
1247.32	21.1664
1247.59	28.5023
1247.87	24.3298
1248.14	21.1975
1248.42	27.4624
1248.7	26.4162
1248.97	28.519
1249.25	28.5387
1249.52	27.5131
1249.8	25.4304
1250.08	26.4881
1250.35	25.4572
1250.63	28.5921
1250.9	17.0857
1251.18	23.3552
1251.45	18.1292
1251.73	27.5335
1252.01	21.2656
1252.28	29.6208
1252.56	28.5747
1252.83	26.4847
1253.11	25.4372
1253.39	22.3045
1253.66	24.3968
1253.94	28.5835
1254.21	28.6086
1254.49	29.6798
1254.76	26.5772
1255.04	22.419
1255.31	31.8286
1255.59	36.024
1255.87	27.6815
1256.14	25.6009
1256.42	22.483
1256.69	29.8107
1256.97	35.0564
1257.24	36.1164
1257.52	31.9449
1257.79	40.2989
1258.07	44.4788
1258.35	57.0126
1258.62	54.9262
1258.9	47.6172
1259.17	47.6047
1259.45	50.744
1259.72	49.7226
1260	50.7918
1260.27	47.711
1260.55	61.2697
1260.82	49.7702
1261.1	60.1792
1261.37	63.2921
1261.65	70.5854
1261.92	77.915
1262.2	84.3045
1262.48	93.9011
1262.75	101.325
1263.02	111.531
1263.3	134.296
1263.58	134.222
1263.85	134.412
1264.13	160.678
1264.4	145.203
1264.68	137.989
1264.95	129.517
1265.23	119.031
1265.5	102.318
1265.78	84.5478
1266.05	77.2188
1266.33	69.9136
1266.6	59.4824
1266.88	55.3263
1267.15	52.2198
1267.43	60.6173
1267.7	63.7938
1267.98	52.3295
1268.25	45.0476
1268.53	43.0056
1268.8	47.2383
1269.08	52.5044
1269.35	48.3397
1269.63	38.9314
1269.9	53.6037
1270.18	43.115
1270.45	46.2374
1270.73	48.3201
1271	51.4457
1271.28	52.484
1271.55	54.5794
1271.83	47.2505
1272.1	46.2209
1272.38	52.5326
1272.65	53.618
1272.93	49.478
1273.2	49.5134
1273.47	51.6449
1273.75	44.3445
1274.03	48.5728
1274.3	46.511
1274.57	52.83
1274.85	47.5996
1275.12	53.8986
1275.4	57.0554
1275.67	61.2729
1275.95	60.2517
1276.22	55.0339
1276.5	60.3171
1276.77	52.9982
1277.05	72.9787
1277.32	56.2028
1277.6	63.592
1277.87	77.2886
1278.14	63.6667
1278.42	73.1599
1278.69	73.1929
1278.97	75.3415
1279.24	84.8384
1279.52	93.2867
1279.79	116.432
1280.07	104.858
1280.34	124.833
1280.61	142.715
1280.89	172.191
1281.16	199.572
1281.44	245.939
1281.71	321.821
1281.99	423.987
1282.26	585.035
1282.53	773.539
1282.81	1021.06
1283.08	1335.63
1283.36	1650.6
1283.63	1910.88
1283.91	2120.34
1284.18	2205.42
1284.45	2115.16
1284.73	1774.09
1285	1387.71
1285.28	994.662
1285.55	710.857
1285.83	463.19
1286.1	349.503
1286.37	259.035
1286.65	194.806
1286.92	169.503
1287.2	130.555
1287.47	116.869
1287.75	116.856
1288.02	105.262
1288.29	90.5238
1288.57	91.5866
1288.84	85.2881
1289.12	81.1
1289.39	79.0264
1289.66	67.4807
1289.94	68.5676
1290.21	67.5514
1290.49	68.6374
1290.76	52.8482
1291.03	62.3291
1291.31	40.2175
1291.58	50.7609
1291.86	66.5708
1292.13	62.3664
1292.4	49.742
1292.68	55.0276
1292.95	53.9814
1293.22	51.8801
1293.5	50.8453
1293.77	48.7841
1294.05	35.1366
1294.32	44.6756
1294.59	48.9181
1294.87	46.8228
1295.14	41.5574
1295.42	48.97
1295.69	50.0805
1295.96	37.4804
1296.24	50.2337
1296.51	46.0615
1296.79	45.0287
1297.06	43.9883
1297.33	38.7078
1297.61	38.7069
1297.88	41.8729
1298.15	36.5853
1298.43	37.6331
1298.7	36.6019
1298.97	36.6097
1299.25	41.8897
1299.52	39.7806
1299.79	31.3367
1300.07	35.5731
1300.34	34.5473
1300.62	44.0738
1300.89	33.5328
1301.16	35.656
1301.44	31.445
1301.71	26.1853
1301.98	29.3817
1302.25	35.7468
1302.53	43.164
1302.8	32.6192
1303.08	27.3525
1303.35	30.5322
1303.62	29.4834
1303.9	36.8772
1304.17	32.6666
1304.44	36.9087
1304.72	32.7015
1304.99	37.9966
1305.26	41.1701
1305.54	26.392
1305.81	36.9457
1306.08	30.6124
1306.35	32.7197
1306.63	28.5019
1306.9	31.6759
1307.18	29.5837
1307.45	26.4437
1307.72	23.299
1308	28.5892
1308.27	28.606
1308.54	26.5183
1308.81	28.6409
1309.09	28.6629
1309.36	36.0776
1309.63	27.6667
1309.91	31.9168
1310.18	32.9979
1310.45	34.0693
1310.73	24.5849
1311	37.2666
1311.27	25.6803
1311.55	24.6475
1311.82	33.1129
1312.09	28.9162
1312.37	24.7256
1312.64	30.0344
1312.91	31.1147
1313.18	23.7392
1313.46	22.6912
1313.73	19.5408
1314	20.6097
1314.28	23.7905
1314.55	26.9764
1314.82	27.0006
1315.09	25.972
1315.37	20.7218
1315.64	20.7499
1315.91	27.1155
1316.18	29.2577
1316.46	21.8811
1316.73	25.0653
1317	30.3629
1317.28	26.1567
1317.55	19.8408
1317.82	23.0396
1318.09	33.6303
1318.37	24.1488
1318.64	22.0595
1318.91	25.2513
1319.18	27.3854
1319.46	27.4044
1319.73	26.366
1320	26.3844
1320.28	26.4108
1320.55	31.7153
1320.82	26.4503
1321.09	18.011
1321.37	14.85
1321.64	21.1882
1321.91	14.8557
1322.18	25.4184
1322.46	19.0902
1322.73	29.6507
1323	22.2796
1323.27	20.1826
1323.55	29.6801
1323.82	23.3849
1324.09	24.4648
1324.36	27.652
1324.64	26.6178
1324.91	25.5871
1325.18	27.7165
1325.45	19.3082
1325.73	22.4766
1326	21.4143
1326.27	21.3978
1326.54	25.5818
1326.81	20.323
1327.09	20.3411
1327.36	21.4392
1327.63	24.6671
1327.9	19.4489
1328.18	32.1416
1328.45	22.7079
1328.72	26.9773
1328.99	21.7499
1329.27	22.8353
1329.54	23.9054
1329.81	20.7717
1330.08	18.6828
1330.35	28.1961
1330.63	21.8818
1330.9	25.0572
1331.17	20.847
1331.44	16.635
1331.71	25.0642
1331.99	15.5786
1332.26	28.2156
1332.53	28.2194
1332.8	29.2737
1333.07	29.2724
1333.35	22.9615
1333.62	25.066
1333.89	26.1201
1334.16	28.2254
1334.43	28.2299
1334.71	24.0357
1334.98	26.1433
1335.25	14.6089
1335.52	20.9183
1335.79	16.7347
1336.07	23.0427
1336.34	22.0082
1336.61	24.1209
1336.88	22.0402
1337.15	18.9132
1337.43	25.2223
1337.7	22.0978
1337.97	20.0202
1338.24	27.3647
1338.51	24.2312
1338.78	16.9154
1339.06	17.9785
1339.33	22.1863
1339.6	21.1636
1339.87	24.334
1340.14	25.4117
1340.42	23.3456
1340.69	26.5167
1340.96	24.4512
1341.23	27.6184
1341.5	19.2643
1341.77	28.7109
1342.04	20.3533
1342.32	29.7915
1342.59	24.5693
1342.86	21.4388
1343.13	21.4484
1343.4	19.3745
1343.67	23.5804
1343.95	13.147
1344.22	21.5406
1344.49	26.7986
1344.76	29.9638
1345.03	26.8473
1345.3	26.8631
1345.58	24.784
1345.85	24.7896
1346.12	28.9789
1346.39	22.715
1346.66	31.0603
1346.93	21.6717
1347.2	28.9825
1347.47	27.9446
1347.75	16.4832
1348.02	17.5425
1348.29	25.9014
1348.56	20.7123
1348.83	25.9467
1349.1	25.964
1349.37	25.9794
1349.65	30.1605
1349.92	23.9267
1350.19	23.9429
1350.46	23.9593
1350.73	23.9754
1351	17.7436
1351.27	25.039
1351.54	31.2976
1351.81	37.5465
1352.09	19.8918
1352.36	26.1586
1352.63	34.5155
1352.9	32.4813
1353.17	27.3315
1353.44	30.4941
1353.71	23.2962
1353.98	28.6012
1354.25	28.5617
1354.53	27.4417
1354.8	25.3195
1355.07	27.4347
1355.34	28.5093
1355.61	29.5521
1355.88	31.6453
1356.15	34.8174
1356.42	25.5022
1356.69	31.7496
1356.96	28.6557
1357.24	30.7563
1357.51	35.9712
1357.78	28.722
1358.05	34.9697
1358.32	31.8719
1358.59	35.0016
1358.86	39.1689
1359.13	36.0696
1359.4	30.8978
1359.67	29.88
1359.94	35.0856
1360.22	37.1688
1360.49	38.2113
1360.76	39.2548
1361.03	28.91
1361.3	34.1137
1361.57	35.1786
1361.84	38.3133
1362.11	38.339
1362.38	26.9677
1362.65	42.5231
1362.92	41.5097
1363.19	40.5018
1363.46	38.4667
1363.73	39.5469
1364	45.8024
1364.28	44.8082
1364.55	50.0172
1364.82	52.1132
1365.09	41.7768
1365.36	54.2184
1365.63	49.051
1365.9	51.1299
1366.17	48.0349
1366.44	50.1144
1366.71	52.1918
1366.98	48.0589
1367.25	47.0246
1367.52	40.8402
1367.79	41.8963
1368.06	47.1062
1368.33	47.1441
1368.6	55.4503
1368.87	59.6224
1369.15	79.3025
1369.41	110.361
1369.68	136.253
1369.95	140.398
1370.23	128.003
1370.5	89.7701
1370.77	58.7655
1371.04	59.8167
1371.31	63.9613
1371.58	48.4712
1371.85	50.5368
1372.12	54.6593
1372.39	58.78
1372.66	54.6508
1372.93	55.6874
1373.2	51.5786
1373.47	53.6587
1373.74	49.5555
1374.01	59.8819
1374.28	50.6311
1374.55	56.8377
1374.82	58.923
1375.09	59.9766
1375.36	64.1152
1375.63	61.0603
1375.9	59.0441
1376.17	65.2542
1376.44	65.2916
1376.71	66.3256
1376.98	77.6576
1377.25	70.4434
1377.52	72.4863
1377.79	77.6775
1378.06	64.3577
1378.33	76.7885
1378.6	67.6059
1378.87	70.7898
1379.14	79.0883
1379.41	77.0533
1379.68	82.2234
1379.95	78.1144
1380.22	85.3343
1380.49	86.3414
1380.76	85.2408
1381.03	95.5015
1381.3	98.5671
1381.57	107.878
1381.84	109.928
1382.11	115.028
1382.38	118.064
1382.65	125.217
1382.92	123.135
1383.19	133.365
1383.46	143.606
1383.73	159.992
1384	167.165
1384.27	186.646
1384.54	223.595
1384.81	249.283
1385.08	276.031
1385.34	338.723
1385.61	434.341
1385.88	560.756
1386.15	757.021
1386.42	1096.02
1386.69	1628.3
1386.96	2434.81
1387.23	3458.87
1387.5	4440.37
1387.77	4942.95
1388.04	4599.14
1388.31	3573.44
1388.58	2361.07
1388.85	1513.2
1389.12	924.106
1389.39	632.131
1389.66	451.503
1389.93	336.579
1390.2	266.677
1390.46	221.336
1390.73	196.663
1391	163.874
1391.27	149.474
1391.54	134.115
1391.81	125.933
1392.08	123.877
1392.35	100.307
1392.62	110.548
1392.89	101.339
1393.16	97.2552
1393.43	92.1524
1393.7	85.0054
1393.97	90.1423
1394.23	82.999
1394.5	70.742
1394.77	80.9985
1395.04	86.1405
1395.31	64.6956
1395.58	78.0492
1395.85	66.8344
1396.12	74.036
1396.39	73.0398
1396.66	71.0139
1396.93	72.0551
1397.2	71.0484
1397.46	64.9197
1397.73	71.0686
1398	59.8379
1398.27	64.9815
1398.54	56.8362
1398.81	61.9933
1399.08	68.1694
1399.35	68.2057
1399.62	58.0215
1399.89	60.1094
1400.16	68.3377
1400.42	63.2496
1400.69	63.2943
1400.96	56.1832
1401.23	58.2731
1401.5	51.1316
1401.77	58.3418
1402.04	58.3713
1402.31	61.5081
1402.58	55.4449
1402.84	71.9438
1403.11	62.7878
1403.38	58.7446
1403.65	60.8429
1403.92	62.9274
1404.19	57.8045
1404.46	72.1425
1404.73	76.2931
1404.99	77.3389
1405.26	67.0971
1405.53	77.3649
1405.8	84.5515
1406.07	77.383
1406.34	94.8212
1406.61	103.037
1406.87	115.355
1407.14	110.267
1407.41	127.734
1407.68	138.03
1407.95	172.928
1408.22	186.299
1408.49	206.849
1408.76	227.401
1409.02	264.368
1409.29	269.554
1409.56	267.558
1409.83	244.02
1410.1	192.775
1410.37	169.212
1410.63	142.535
1410.9	116.881
1411.17	92.262
1411.44	74.8396
1411.71	76.8988
1411.98	78.9619
1412.25	59.5221
1412.51	46.2448
1412.78	64.7465
1413.05	44.3285
1413.32	46.5092
1413.59	48.6444
1413.86	49.6336
1414.12	48.5223
1414.39	30.1108
1414.66	41.4732
1414.93	45.6454
1415.2	44.6421
1415.47	37.487
1415.73	37.516
1416	35.4932
1416.27	34.501
1416.54	41.7242
1416.81	39.7065
1417.07	28.4446
1417.34	30.5353
1417.61	41.8726
1417.88	32.6621
1418.15	34.7492
1418.42	31.6962
1418.68	34.8099
1418.95	30.7308
1419.22	40.0088
1419.49	28.7335
1419.76	30.8095
1420.02	34.9345
1420.29	28.7845
1420.56	27.773
1420.83	30.8679
1421.1	28.8277
1421.36	39.1076
1421.63	32.9703
1421.9	33.0018
1422.17	36.1279
1422.44	34.1259
1422.7	36.2319
1422.97	31.1589
1423.24	29.1866
1423.51	29.2721
1423.77	31.1981
1424.04	32.1086
1424.31	36.2561
1424.58	24.9435
1424.85	32.1425
1425.11	28.0898
1425.38	26.1105
1425.65	24.0939
1425.92	28.2143
1426.19	35.4446
1426.45	29.3112
1426.72	25.2234
1426.99	23.1832
1427.26	29.3441
1427.52	26.2768
1427.79	30.3754
1428.06	23.2112
1428.33	25.2758
1428.59	25.298
1428.86	30.4444
1429.13	26.3787
1429.4	24.3619
1429.67	29.5158
1429.93	18.2842
1430.2	14.2234
1430.47	23.4863
1430.74	20.4495
1431	24.594
1431.27	26.6979
1431.54	24.6926
1431.81	16.5178
1432.07	18.5961
1432.34	21.6902
1432.61	19.65
1432.87	19.6668
1433.14	19.6753
1433.41	18.6545
1433.68	20.7059
1433.95	21.7331
1434.21	21.744
1434.48	22.7871
1434.75	12.5947
1435.01	18.7777
1435.28	20.8543
1435.55	14.7309
1435.82	14.7543
1436.08	20.9247
1436.35	18.8964
1436.62	19.9416
1436.89	20.9855
1437.15	17.9312
1437.42	18.9751
1437.69	13.8766
1437.95	21.0644
1438.22	15.965
1438.49	15.9918
1438.76	20.1209
1439.02	15.0277
1439.29	24.2736
1439.56	24.3005
1439.82	12.0372
1440.09	16.1715
1440.36	14.159
1440.63	15.2141
1440.89	23.4442
1441.16	17.3158
1441.43	15.2911
1441.69	20.4378
1441.96	18.4014
1442.23	12.2687
1442.49	13.3269
1442.76	14.3767
1443.03	13.3839
1443.3	15.4517
1443.56	12.39
1443.83	16.5069
1444.1	17.5495
1444.36	14.495
1444.63	15.5459
1444.9	14.5574
1445.16	17.6691
1445.43	17.7083
1445.7	18.7524
1445.97	13.6402
1446.23	15.7099
1446.5	17.7794
1446.77	13.6949
1447.03	23.9688
1447.3	15.7822
1447.57	14.7738
1447.83	10.6882
1448.1	9.6802
1448.37	8.67636
1448.63	13.8325
1448.9	12.8393
1449.17	21.069
1449.43	11.8588
1449.7	19.0554
1449.97	11.8916
1450.23	13.9558
1450.5	12.9439
1450.77	6.81064
1451.03	12.9784
1451.3	14.0205
1451.57	14.0372
1451.83	12.0037
1452.1	7.92162
1452.37	14.0864
1452.63	15.1294
1452.9	18.2243
1453.17	12.0998
1453.43	13.1504
1453.7	10.1008
1453.97	16.2704
1454.23	14.2376
1454.5	13.2304
1454.77	6.07762
1455.03	9.17186
1455.3	11.2399
1455.56	8.1829
1455.83	8.20359
1456.1	9.25564
1456.36	13.3792
1456.63	13.3987
1456.9	15.464
1457.16	16.4999
1457.43	19.5849
1457.7	16.527
1457.96	12.4454
1458.23	0.170244
1458.49	8.38461
1458.76	5.33147
1459.03	17.6464
1459.29	12.5453
1459.56	11.5412
1459.82	16.684
1460.09	6.45521
1460.36	10.5693
1460.62	4.43813
1460.89	10.5997
1461.16	11.6376
1461.42	8.57781
1461.69	8.5907
1461.95	11.6744
1462.22	10.6614
1462.49	8.62441
1462.75	13.7505
1463.02	13.7584
1463.28	10.6969
1463.55	7.63633
1463.82	6.623
1464.08	7.66168
1464.35	14.851
1464.61	11.8214
1464.88	12.8786
1465.15	11.8938
1465.41	6.76031
1465.68	2.61922
1465.94	13.8335
1466.21	12.8255
1466.48	6.73202
1466.74	6.74526
1467.01	8.78519
1467.27	9.8166
1467.54	8.81734
1467.8	5.7709
1468.07	7.8251
1468.34	9.88006
1468.6	5.81562
1468.87	7.87128
1469.13	6.86534
1469.4	9.93736
1469.67	7.90886
1469.93	-0.239355
1470.2	6.90438
1470.46	10.9895
1470.73	8.96143
1470.99	7.95357
1471.26	7.96642
1471.53	8.99529
1471.79	6.96591
1472.06	4.93937
1472.32	13.0986
1472.59	4.96631
1472.85	13.1266
1473.12	10.086
1473.39	13.1525
1473.65	6.03513
1473.92	6.04451
1474.18	10.1258
1474.45	10.1378
1474.71	7.09971
1474.98	1.01174
1475.24	9.17134
1475.51	9.18667
1475.78	10.2179
1476.04	9.21093
1476.31	10.2375
1476.57	13.3003
1476.84	14.3281
1477.1	6.19711
1477.37	14.3417
1477.63	8.25004
1477.9	12.3306
1478.16	6.24196
1478.43	7.26835
1478.69	8.2912
1478.96	10.3321
1479.22	10.3396
1479.49	12.3785
1479.76	12.3838
1480.02	9.34044
1480.29	14.423
1480.55	11.3742
1480.82	10.3601
1481.08	12.3945
1481.35	4.28669
1481.61	11.3949
1481.88	3.29566
1482.14	7.37335
1482.41	13.4831
1482.67	6.39969
1482.94	-0.688234
1483.2	4.40085
1483.47	9.49511
1483.73	6.46422
1484	10.5389
1484.26	11.5653
1484.53	8.51512
1484.79	10.5339
1485.06	5.43364
1485.32	11.4675
1485.59	8.4239
1485.85	3.3508
1486.12	5.47143
1486.38	16.6416
1486.65	9.57556
1486.91	11.5689
1487.18	10.5898
1487.44	10.6081
1487.71	3.51551
1487.97	10.609
1488.24	11.6274
1488.5	8.59417
1488.77	11.6338
1489.03	10.6226
1489.3	13.6618
1489.56	8.6089
1489.83	4.5697
1490.09	0.531672
1490.36	7.62417
1490.62	7.63463
1490.89	13.7099
1491.15	5.62106
1491.42	8.65794
1491.68	10.6869
1491.95	13.7288
1492.21	2.61827
1492.48	10.7187
1492.74	5.67279
1493	11.747
1493.27	3.66846
1493.53	3.67872
1493.8	7.72994
1494.06	10.7711
1494.33	9.771
1494.59	7.76203
1494.86	3.73141
1495.12	10.8166
1495.39	10.8197
1495.65	4.754
1495.92	7.78106
1496.18	5.75968
1496.45	9.80118
1496.71	6.77639
1496.97	8.8
1497.24	8.80395
1497.5	5.78516
1497.77	7.81271
1498.03	9.83816
1498.3	11.8647
1498.56	2.79144
1498.82	2.8013
1499.09	4.83002
1499.35	7.86851
1499.62	8.88938
1499.88	7.89229
1500.15	9.92359
1500.41	4.88589
1500.68	6.91346
1500.94	5.91122
1501.2	5.91855
1501.47	10.9701
1501.73	16.0165
1502	0.884445
1502.26	5.93746
1502.52	7.96239
1502.79	3.93082
1503.05	7.9666
1503.32	7.96688
1503.58	7.97029
1503.85	8.97939
1504.11	9.99544
1504.37	7.99047
1504.64	8.00006
1504.9	9.01649
1505.17	10.0307
1505.43	6.00085
1505.7	4.99454
1505.96	7.00748
1506.22	11.0314
1506.49	16.0731
1506.75	4.99732
1507.02	10.0435
1507.28	9.04906
1507.54	10.0655
1507.81	7.05132
1508.07	8.06573
1508.34	7.06236
1508.6	7.06721
1508.86	4.05204
1509.13	8.09065
1509.39	7.09036
1509.66	13.1424
1509.92	11.1336
1510.18	7.1138
1510.45	15.1854
1510.71	8.12963
1510.98	3.09127
1511.24	7.11843
1511.5	8.12096
1511.77	10.1244
1512.03	7.09089
1512.29	14.1154
1512.56	9.0742
1512.82	6.04956
1513.08	9.05876
1513.35	3.03091
1513.61	13.0692
1513.88	5.0408
1514.14	9.07131
1514.4	9.09262
1514.67	10.1067
1514.93	8.09879
1515.2	9.09962
1515.46	15.118
1515.72	2.06373
1515.99	13.0963
1516.25	5.06367
1516.51	4.05844
1516.78	10.077
1517.04	8.0734
1517.3	10.0812
1517.57	12.0905
1517.83	9.08832
1518.09	8.09352
1518.36	4.09402
1518.62	12.1244
1518.88	4.10814
1519.15	3.11193
1519.41	12.1482
1519.67	0.117266
1519.94	8.14988
1520.2	13.1699
1520.47	6.14812
1520.73	6.14998
1520.99	3.14699
1521.26	12.1843
1521.52	8.17905
1521.78	8.18473
1522.05	8.18738
1522.31	12.2012
1522.57	4.17508
1522.84	6.18106
1523.1	10.193
1523.36	5.17622
1523.62	4.16676
1523.89	5.15877
1524.15	7.15668
1524.41	7.15239
1524.68	6.148
1524.94	11.1523
1525.2	13.1637
1525.47	9.16349
1525.73	3.15945
1525.99	6.17294
1526.26	13.1962
1526.52	3.19032
1526.78	12.2216
1527.05	9.22116
1527.31	9.2235
1527.57	12.2277
1527.84	7.21724
1528.1	3.20876
1528.36	6.21506
1528.63	5.21178
1528.89	10.2198
1529.15	7.21395
1529.41	12.2232
1529.68	8.21872
1529.94	9.2205
1530.2	7.214
1530.47	5.21231
1530.73	10.2256
1530.99	8.23334
1531.25	8.2439
1531.52	9.25451
1531.78	9.25788
1532.04	13.2657
1532.31	5.25314
1532.57	6.25259
1532.83	5.25729
1533.09	5.26925
1533.36	10.2976
1533.62	8.3068
1533.88	11.3238
1534.15	11.3293
1534.41	7.31838
1534.67	13.3369
1534.94	12.3324
1535.2	11.3268
1535.46	9.31931
1535.72	6.30559
1535.99	8.29315
1536.25	2.2719
1536.51	6.27268
1536.77	5.26025
1537.04	14.2567
1537.3	9.24053
1537.56	13.2384
1537.82	10.229
1538.09	5.22972
1538.35	3.22368
1538.61	11.2123
1538.87	6.2112
1539.14	8.20798
1539.4	9.2198
1539.66	3.24167
1539.92	10.2756
1540.19	9.29596
1540.45	5.30598
1540.71	10.3352
1540.97	10.3476
1541.24	9.35038
1541.5	14.3469
1541.76	10.3361
1542.02	3.31087
1542.29	8.31261
1542.55	5.29869
1542.81	13.3015
1543.07	7.28509
1543.34	5.27536
1543.6	4.26644
1543.86	2.25488
1544.12	2.24423
1544.39	11.247
1544.65	10.25
1544.91	10.259
1545.17	8.27067
1545.43	8.27969
1545.7	7.29445
1545.96	9.30604
1546.22	9.31158
1546.48	11.3198
1546.74	9.31422
1547.01	12.3215
1547.27	7.31748
1547.53	10.3281
1547.79	6.32435
1548.06	5.31445
1548.32	9.30098
1548.58	5.29559
1548.84	6.2989
1549.1	14.3232
1549.37	6.27537
1549.63	9.23607
1549.89	5.22895
1550.15	7.24911
1550.42	11.2931
1550.68	8.34879
1550.94	7.38792
1551.2	9.43424
1551.46	10.4108
1551.73	7.40215
1551.99	10.4057
1552.25	5.37438
1552.51	14.4265
1552.77	11.4312
1553.03	7.40791
1553.3	5.38827
1553.56	9.37445
1553.82	10.3706
1554.08	9.36338
1554.34	12.3632
1554.61	12.3501
1554.87	5.31903
1555.13	6.30731
1555.39	10.3089
1555.65	8.30189
1555.91	4.29391
1556.18	15.3148
1556.44	13.3108
1556.7	6.29162
1556.96	11.2994
1557.22	12.3028
1557.48	9.29895
1557.75	7.295
1558.01	8.29352
1558.27	6.28207
1558.53	3.26542
1558.79	10.2627
1559.06	3.24285
1559.32	4.23149
1559.58	10.2214
1559.84	12.2109
1560.1	2.2049
1560.36	7.19667
1560.63	5.19236
1560.89	7.18683
1561.15	6.18376
1561.41	9.17991
1561.67	7.18245
1561.93	9.18708
1562.19	6.19702
1562.46	10.2071
1562.72	4.205
1562.98	2.20146
1563.24	10.1973
1563.5	6.19737
1563.76	4.19211
1564.02	5.18819
1564.29	7.19974
1564.55	13.2167
1564.81	7.21575
1565.07	8.21202
1565.33	3.18737
1565.59	7.11914
1565.85	9.01704
1566.11	8.96463
1566.38	7.12959
1566.64	9.1736
1566.9	6.15251
1567.16	5.12712
1567.42	3.15524
1567.68	7.18575
1567.94	7.17486
1568.2	11.1446
1568.47	4.14929
1568.73	9.15156
1568.99	9.15226
1569.25	9.14627
1569.51	7.13029
1569.77	9.11845
1570.03	3.12074
1570.29	1.12245
1570.55	7.11733
1570.82	6.11616
1571.08	15.1077
1571.34	11.1059
1571.6	7.10267
1571.86	6.09519
1572.12	6.08619
1572.38	2.08698
1572.64	9.0718
1572.9	5.0672
1573.17	14.0454
1573.43	5.05183
1573.69	6.04149
1573.95	16.0137
1574.21	4.03595
1574.47	2.04333
1574.73	4.04522
1574.99	10.043
1575.25	14.0465
1575.51	5.0623
1575.78	4.06692
1576.04	7.06407
1576.3	8.05796
1576.56	9.05381
1576.82	10.0457
1577.08	2.03909
1577.34	11.01
1577.6	10.992
1577.86	5.98569
1578.12	7.96606
1578.38	6.95443
1578.64	6.94453
1578.9	3.94858
1579.17	8.93
1579.43	14.9083
1579.69	13.9089
1579.95	5.93267
1580.21	7.92938
1580.47	5.93488
1580.73	8.92429
1580.99	7.92248
1581.25	13.8974
1581.51	5.91198
1581.77	9.89119
1582.03	-0.0859051
1582.29	9.86808
1582.55	8.86569
1582.81	4.87491
1583.07	9.84974
1583.33	9.84427
1583.59	10.836
1583.85	3.85951
1584.11	8.83253
1584.38	6.83743
1584.64	8.82961
1584.9	9.82518
1585.16	4.84303
1585.42	8.82393
1585.68	5.83031
1585.94	9.81028
1586.2	5.81934
1586.46	8.79459
1586.72	6.79054
1586.98	0.808725
1587.24	4.7818
1587.5	5.76971
1587.76	5.76322
1588.02	7.74791
1588.28	8.73978
1588.54	5.75469
1588.8	4.76044
1589.06	8.74341
1589.32	10.7357
1589.58	6.75566
1589.84	8.74701
1590.1	10.7363
1590.36	9.73713
1590.62	6.74987
1590.88	7.74672
1591.14	8.74283
1591.4	3.7588
1591.66	12.718
1591.92	5.74091
1592.18	5.73362
1592.44	16.6723
1592.7	6.70185
1592.96	8.67936
1593.22	9.66451
1593.48	8.65161
1593.74	7.63819
1594	5.63128
1594.26	4.62486
1594.52	8.58944
1594.78	7.59266
1595.04	9.58045
1595.3	9.58512
1595.56	8.59336
1595.82	12.5646
1596.08	8.56809
1596.34	2.60433
1596.6	6.57355
1596.86	6.57029
1597.12	6.56811
1597.38	13.5205
1597.64	8.5537
1597.9	10.5405
1598.16	6.56194
1598.42	9.53483
1598.68	8.53069
1598.94	13.4809
1599.2	2.5467
1599.46	8.49178
1599.72	1.53494
1599.98	7.47877
1600.24	16.3966
1600.5	4.4829
1600.76	10.4222
1601.02	4.45977
1601.28	9.40051
1601.54	2.44782
1601.8	11.3473
1602.06	11.3321
1602.32	11.3195
1602.58	7.34828
1602.84	6.34663
1603.1	4.35506
1603.36	5.33255
1603.62	6.31095
1603.88	4.32479
1604.14	4.31808
1604.4	9.25711
1604.66	5.29913
1604.92	3.31895
1605.17	10.237
1605.43	8.25661
1605.69	13.1985
1605.95	11.2206
1606.21	9.24377
1606.47	10.2345
1606.73	5.28982
1606.99	7.2687
1607.25	5.30098
1607.51	6.28478
1607.77	9.18298
1608.03	5.46935
1608.29	8.28997
1608.55	4.40756
1608.81	9.95233
1609.07	3.51184
1609.32	4.47491
1609.58	4.79239
1609.84	13.3902
1610.1	8.09183
1610.36	9.49977
1610.62	2.33614
1610.88	7.14511
1611.14	10.3525
1611.4	2.39391
1611.66	12.6371
1611.92	7.34081
1612.18	8.84268
1612.44	9.17532
1612.69	8.03483
1612.95	8.5746
1613.21	5.94912
1613.47	10.84
1613.73	8.5932
1613.99	7.79141
1614.25	9.67369
1614.51	8.80031
1614.77	8.85524
1615.03	8.42502
1615.29	11.7281
1615.54	10.7073
1615.8	8.07551
1616.06	10.0259
1616.32	9.63613
1616.58	10.1593
1616.84	8.62539
1617.1	6.45094
1617.36	6.23245
1617.62	8.04456
1617.88	7.77631
1618.13	9.2299
1618.39	7.03719
1618.65	5.85566
1618.91	9.04021
1619.17	7.00654
1619.43	8.26001
1619.69	9.43464
1619.95	5.8867
1620.2	7.02799
1620.46	7.69319
1620.72	7.24404
1620.98	6.27345
1621.24	9.14468
1621.5	9.26582
1621.76	9.02639
1622.02	7.08179
1622.27	7.07562
1622.53	7.41691
1622.79	5.72255
1623.05	6.36786
1623.31	8.95508
1623.57	7.70252
1623.83	7.13938
1624.09	7.25579
1624.34	8.78247
1624.6	8.31962
1624.86	9.23692
1625.12	10.1416
1625.38	6.56343
1625.64	6.82702
1625.9	8.63846
1626.15	9.57089
1626.41	6.54576
1626.67	8.34259
1626.93	10.4849
1627.19	8.62148
1627.45	10.4739
1627.7	6.78247
1627.96	8.10299
1628.22	9.23798
1628.48	8.43684
1628.74	9.32931
1629	9.85048
1629.26	11.4697
1629.51	8.93746
1629.77	7.02056
1630.03	8.01642
1630.29	9.53094
1630.55	7.45544
1630.81	6.2365
1631.06	6.69636
1631.32	8.96206
1631.53	8.97781
1631.79	10.9501
1632.05	7.99771
1632.31	5.04371
1632.57	6.02419
1632.84	11.9445
1633.1	8.01556
1633.36	7.99978
1633.62	11.9203
1633.88	14.8685
1634.14	7.97297
1634.4	9.94638
1634.66	2.05967
1634.93	10.9284
1635.19	12.8959
1635.45	7.96287
1635.71	8.9431
1635.97	7.9514
1636.23	10.9009
1636.49	9.90772
1636.75	8.91476
1637.02	4.96653
1637.28	10.8676
1637.54	10.8575
1637.8	12.8201
1638.06	2.96966
1638.32	8.8708
1638.58	12.8016
1638.84	7.87378
1639.1	9.83972
1639.37	9.8367
1639.63	9.8332
1639.89	4.90812
1640.15	10.8105
1640.41	7.85314
1640.67	9.81977
1640.93	5.88552
1641.19	12.7796
1641.46	9.82394
1641.72	5.87976
1641.98	8.82681
1642.24	7.8368
1642.5	9.80082
1642.76	10.7806
1643.02	5.85424
1643.28	7.81875
1643.54	5.84638
1643.8	11.7482
1644.06	9.77371
1644.33	10.7508
1644.59	6.80631
1644.85	8.76656
1645.11	9.74628
1645.37	5.81078
1645.63	10.7322
1645.89	11.7163
1646.15	9.74578
1646.41	6.7873
1646.67	7.76432
1646.93	9.7254
1647.19	8.73649
1647.46	8.73003
1647.72	7.73982
1647.98	11.6676
1648.24	9.69721
1648.5	4.77862
1648.76	11.6668
1649.02	9.70387
1649.28	6.76648
1649.54	7.75493
1649.8	4.79517
1650.06	5.77326
1650.32	11.6763
1650.58	10.7004
1650.85	6.76741
1651.11	10.7112
1651.37	13.6716
1651.63	6.77659
1651.89	14.6594
1652.15	10.7153
1652.41	4.80006
1652.67	4.79878
1652.93	5.77848
1653.19	7.74257
1653.45	10.6939
1653.71	5.7653
1653.97	8.7202
1654.23	8.7213
1654.49	9.70663
1654.75	7.73465
1655.01	7.7346
1655.27	8.7223
1655.53	9.71296
1655.8	13.6661
1656.06	9.73196
1656.32	4.80428
1656.57	4.80687
1656.84	6.7815
1657.1	7.76787
1657.36	11.713
1657.62	5.78523
1657.88	6.76627
1658.14	8.7355
1658.4	4.78343
1658.66	8.72448
1658.92	7.73068
1659.18	10.6826
1659.44	9.68854
1659.7	7.70875
1659.96	9.67334
1660.22	6.70598
1660.48	8.67826
1660.74	7.69472
1661	6.71184
1661.26	8.68835
1661.52	5.73343
1661.78	6.72476
1662.04	8.69915
1662.3	5.73919
1662.56	5.70746
1662.82	7.74267
1663.08	7.7767
1663.34	9.73237
1663.6	3.79666
1663.86	5.76292
1664.12	6.67981
1664.38	8.6873
1664.64	3.75783
1664.9	8.69536
1665.16	11.6748
1665.42	10.6927
1665.68	7.6893
1665.94	9.62728
1666.2	5.76494
1666.46	11.7033
1666.72	8.73115
1666.98	6.70485
1667.24	9.55159
1667.5	5.70856
1667.76	7.67367
1668.02	9.63983
1668.28	6.67418
1668.54	6.66685
1668.8	5.67936
1669.06	5.69236
1669.32	4.72153
1669.58	5.71103
1669.84	10.6488
1670.1	5.70968
1670.36	9.65545
1670.62	5.70309
1670.88	7.69483
1671.14	7.70483
1671.4	13.6305
1671.66	10.6606
1671.92	7.69243
1672.18	7.69244
1672.44	9.67092
1672.69	7.69364
1672.95	5.71498
1673.21	6.70188
1673.47	7.68993
1673.73	5.71281
1673.99	6.70229
1674.25	12.6371
1674.51	4.7298
1674.77	3.74329
1675.03	6.71343
1675.29	10.6759
1675.55	10.6804
1675.81	7.71361
1676.07	10.6817
1676.33	9.69022
1676.59	9.69023
1676.85	8.70119
1677.11	8.70097
1677.37	7.70947
1677.63	3.74758
1677.89	8.69157
1678.14	11.6537
1678.4	9.66654
1678.66	10.6465
1678.92	6.68306
1679.18	6.67728
1679.44	7.66069
1679.7	5.67961
1679.96	4.68675
1680.22	8.63578
1680.48	6.65551
1680.74	8.62734
1681	8.6227
1681.26	8.61854
1681.52	8.61581
1681.78	2.6867
1682.03	6.63708
1682.29	1.69653
1682.55	6.63544
1682.81	5.64729
1683.07	4.6571
1683.33	5.64318
1683.59	4.65401
1683.85	5.64096
1684.11	5.63921
1684.37	9.58742
1684.63	7.60573
1684.89	3.6518
1685.14	7.59943
1685.4	6.61002
1685.66	5.62115
1685.92	11.545
1686.18	7.59466
1686.44	4.63226
1686.7	2.65899
1686.96	4.63987
1687.22	8.59397
1687.48	10.5699
1687.73	6.61507
1687.99	9.5737
1688.25	8.58129
1688.51	1.66471
1688.77	9.56028
1689.03	5.6053
1689.29	6.58487
1689.55	9.53931
1689.81	4.59877
1690.06	3.60556
1690.32	4.5845
1690.58	10.4994
1690.84	3.60231
1691.1	3.60579
1691.36	9.52824
1691.62	3.60921
1691.88	6.57261
1692.13	6.57518
1692.39	6.57486
1692.65	9.53332
1692.91	5.58059
1693.17	6.56059
1693.43	6.55267
1693.69	4.57117
1693.95	10.4761
1694.2	6.52597
1694.46	2.5776
1694.72	11.4378
1694.98	6.50675
1695.24	4.53598
1695.5	7.49285
1695.76	8.4797
1696.01	6.51117
1696.27	4.54276
1696.53	9.474
1696.79	1.5932
1697.05	-0.378176
1697.31	1.59002
1697.57	13.4074
1697.82	6.50211
1698.08	3.53907
1698.34	8.4551
1698.6	5.49592
1698.86	2.53803
1699.12	8.43822
1699.38	5.48375
1699.63	4.49897
1699.89	4.50072
1700.15	8.43707
1700.41	4.50158
1700.67	6.46356
1700.92	7.44597
1701.18	4.49323
1701.44	11.3775
1701.7	6.45609
1701.96	5.46733
1702.22	6.4443
1702.47	0.539949
1702.73	1.51757
1702.99	5.4434
1703.25	6.42437
1703.51	7.40629
1703.77	6.42171
1704.02	2.48884
1704.28	8.38182
1704.54	7.40279
1704.8	8.39029
1705.06	7.40902
1705.32	10.3556
1705.57	9.37096
1705.83	4.45843
1706.09	8.38906
1706.35	7.40148
1706.61	9.35896
1706.86	8.36884
1707.12	4.43349
1707.38	8.35209
1707.64	8.34491
1707.9	4.41188
1708.16	8.3252
1708.41	6.35375
1708.67	13.2042
1708.93	6.33206
1709.19	11.2188
1709.44	9.25223
1709.7	10.2264
1709.96	7.28746
1710.22	9.24533
1710.48	6.30972
1710.73	9.24829
1710.99	8.2728
1711.25	11.2163
1711.51	6.32394
1711.77	8.28632
1712.02	4.37167
1712.28	4.37279
1712.54	7.30818
1712.8	5.34106
1713.06	7.28596
1713.31	9.22855
1713.57	3.34751
1713.83	8.22503
1714.09	7.23538
1714.34	7.22985
1714.6	2.342
1714.86	7.22391
1715.12	8.19944
1715.38	7.22293
1715.63	6.25269
1715.89	5.2837
1716.15	11.1468
1716.41	8.21349
1716.66	6.25558
1716.92	10.156
1717.18	8.19368
1717.44	8.18227
1717.69	11.0952
1717.95	3.27633
1718.21	10.087
1718.47	6.17653
1718.72	4.21861
1718.98	4.21271
1719.24	9.07811
1719.5	8.10474
1719.75	10.0526
1720.01	11.9987
1720.27	8.10791
1720.53	3.24196
1720.78	5.18723
1721.04	10.0496
1721.3	4.20173
1721.56	5.16918
1721.81	5.16385
1722.07	4.18515
1722.33	10.9846
1722.59	6.11576
1722.84	2.22142
1723.1	9.01654
1723.36	7.06735
1723.62	8.03387
1723.87	3.17568
1724.13	9.00286
1724.39	5.11715
1724.64	3.17486
1724.9	6.08353
1725.16	8.01712
1725.42	9.94494
1725.67	9.93313
1725.93	8.95109
1726.19	5.06693
1726.45	7.00249
1726.7	6.03715
1726.96	6.03597
1727.22	4.09459
1727.47	3.1164
1727.73	6.02259
1727.99	6.03179
1728.24	9.9059
1728.5	8.93256
1728.76	0.206844
1729.02	2.10474
1729.27	5.92308
1729.53	6.87081
1729.79	7.85682
1730.05	8.84215
1730.3	8.85751
1730.56	8.83723
1730.82	3.03677
1731.07	8.82703
1731.33	10.8015
1731.59	6.93975
1731.84	8.87483
1732.1	5.9762
1732.36	6.94218
1732.61	8.87303
1732.87	11.7693
1733.13	9.83291
1733.39	8.86086
1733.64	12.7138
1733.9	7.87391
1734.16	7.86104
1734.41	8.81657
1734.67	9.77122
1734.93	8.79722
1735.18	7.82376
1735.44	5.88796
1735.7	12.621
1735.95	7.80076
1736.21	5.87193
1736.47	8.75811
1736.72	6.83132
1736.98	7.79084
1737.24	6.82571
1737.49	4.89849
1737.75	6.81971
1738.01	2.97013
1738.26	6.81304
1738.52	8.73046
1738.78	6.80238
1739.03	6.7971
1739.29	8.71236
1739.55	8.70389
1739.8	7.73228
1740.06	5.79922
1740.32	11.5428
1740.57	7.69449
1740.83	8.64411
1741.09	5.76218
1741.34	5.75674
1741.6	11.499
1741.86	7.66208
1742.11	9.57342
1742.37	9.57146
1742.63	7.65638
1742.88	10.5275
1743.14	6.69657
1743.4	5.73918
1743.65	6.69736
1743.91	4.78181
1744.16	9.56166
1744.42	10.514
1744.68	10.5104
1744.93	7.6402
1745.19	5.72906
1745.45	7.64461
1745.7	5.73353
1745.96	5.73381
1746.22	11.4698
1746.47	7.63951
1746.73	4.76488
1746.98	7.6243
1747.24	6.66295
1747.5	6.65545
1747.75	9.51453
1748.01	5.68936
1748.27	9.50597
1748.52	6.6435
1748.78	6.64599
1749.03	14.2862
1749.29	4.74437
1749.55	9.52397
1749.8	13.3517
1750.06	9.54116
1750.32	7.6408
1750.57	9.56208
1750.83	8.61611
1751.08	11.4888
1751.34	7.67129
1751.6	8.63042
1751.85	7.67211
1752.11	3.84193
1752.36	8.61146
1752.62	3.82991
1752.88	4.78045
1753.13	9.54896
1753.39	12.4065
1753.64	5.72112
1753.9	8.5802
1754.15	6.66871
1754.41	4.75599
1754.67	8.56546
1754.92	7.6088
1755.18	8.55949
1755.43	10.464
1755.69	9.50844
1755.95	5.693
1756.2	4.73563
1756.46	7.58753
1756.71	7.58058
1756.97	8.52365
1757.23	5.65988
1757.48	3.75013
1757.74	8.50465
1757.99	6.60042
1758.25	10.4093
1758.5	10.4226
1758.76	8.52526
1759.02	6.62529
1759.27	6.62796
1759.53	6.63068
1759.78	11.3928
1760.04	4.73318
1760.3	8.53932
1760.55	11.393
1760.81	9.48892
1761.06	11.3896
1761.32	8.53243
1761.57	9.47861
1761.83	14.2283
1762.08	8.52173
1762.34	9.47195
1762.6	8.52231
1762.85	11.3827
1763.11	5.68442
1763.36	5.68745
1763.62	6.63918
1763.87	13.2984
1764.13	7.59826
1764.38	4.75117
1764.64	7.61363
1764.89	9.53191
1765.15	7.63651
1765.4	13.3546
1765.66	5.74512
1765.92	9.55778
1766.17	8.60941
1766.43	9.56396
1766.68	4.80496
1766.94	11.4686
1767.19	10.5165
1767.45	9.56639
1767.7	10.5176
1767.96	11.4666
1768.21	8.60859
1768.47	8.6069
1768.73	12.4117
1768.98	8.60611
1769.24	10.4958
1769.49	11.4281
1769.75	11.4109
1770	6.65257
1770.26	9.50466
1770.51	10.4654
1770.77	11.4271
1771.02	9.53012
1771.28	12.3856
1771.53	6.69607
1771.79	10.5135
1772.04	10.5206
1772.3	3.86855
1772.55	8.63152
1772.81	8.64112
1773.06	14.3577
1773.32	9.60731
1773.57	13.4208
1773.83	5.81304
1774.08	11.5299
1774.34	8.67945
1774.59	7.73191
1774.85	8.68806
1775.1	5.8388
1775.36	11.5576
1775.61	11.5669
1775.87	9.68082
1776.12	11.599
1776.38	8.74651
1776.63	11.6103
1776.89	11.611
1777.14	6.84273
1777.4	12.5575
1777.65	6.83825
1777.91	7.7875
1778.16	12.5467
1778.42	8.73232
1778.67	9.68068
1778.93	8.72339
1779.18	7.76475
1779.44	7.75765
1779.69	6.8031
1779.95	12.5131
1780.2	12.5268
1780.46	4.9184
1780.71	10.6338
1780.97	9.68764
1781.22	7.78979
1781.47	11.6009
1781.73	9.70098
1781.98	9.70669
1782.24	13.5232
1782.49	11.6273
1782.75	7.82808
1783	8.78859
1783.26	3.07761
1783.51	12.6137
1783.77	4.04269
1784.02	6.909
1784.28	8.82318
1784.53	9.78564
1784.79	10.7512
1785.04	11.7135
1785.29	8.85679
1785.55	7.90509
1785.8	9.81385
1786.06	7.90456
1786.31	12.6727
1786.57	10.768
1786.82	6.9577
1787.08	8.87379
1787.33	4.11197
1787.58	10.8052
1787.84	8.91167
1788.09	7.02418
1788.35	13.7415
1788.6	6.1149
1788.86	8.0456
1789.11	8.05394
1789.37	8.06447
1789.62	10.9539
1789.87	9.04924
1790.13	10.973
1790.38	9.06326
1790.64	10.9877
1790.89	7.15574
1791.15	13.867
1791.4	6.19296
1791.65	5.2176
1791.91	4.25947
1792.16	9.04715
1792.42	6.17692
1792.67	4.26518
1792.93	9.05813
1793.18	5.23342
1793.43	9.07045
1793.69	5.2416
1793.94	7.16035
1794.2	6.20895
1794.45	6.21257
1794.7	11.9635
1794.96	4.29552
1795.21	7.18153
1795.47	8.169
1795.72	8.18913
1795.97	6.28076
1796.23	10.1284
1796.48	4.37614
1796.74	7.2655
1796.99	9.19566
1797.25	11.1268
1797.5	4.40924
1797.75	8.26109
1798.01	2.50027
1798.26	11.1584
1798.51	5.3952
1798.77	6.36093
1799.02	12.1329
1799.28	9.24847
1799.53	4.43977
1799.78	6.35975
1800.04	7.31667
1800.29	4.43008
1800.55	8.27098
1800.8	6.3478
1801.05	9.22884
1801.31	8.26839
1801.56	7.30899
1801.81	9.23219
1802.07	10.1962
1802.32	3.47662
1802.58	7.32452
1802.83	11.1745
1803.08	6.37795
1803.34	4.4642
1803.59	5.43441
1803.84	11.2117
1804.1	10.2557
1804.35	2.56584
1804.61	5.45731
1804.86	5.46541
1805.11	4.51118
1805.37	5.48264
1805.62	5.49269
1805.87	5.50258
1806.13	6.47471
1806.38	12.2628
1806.64	8.41698
1806.89	3.60554
1807.14	9.39272
1807.4	8.43226
1807.65	5.54331
1807.9	3.61788
1808.16	-0.234983
1808.41	6.51438
1808.66	6.51725
1808.92	6.52031
1809.17	3.63173
1809.42	5.5629
1809.68	8.45811
1809.93	7.49757
1810.18	8.46513
1810.44	6.54003
1810.69	8.47072
1810.94	5.57864
1811.2	5.57904
1811.45	7.50869
1811.7	8.47399
1811.96	7.51146
1812.21	10.4059
1812.46	5.58916
1812.72	5.59455
1812.97	9.45841
1813.22	11.3958
1813.48	4.65039
1813.73	9.47792
1813.98	7.55511
1814.24	8.52965
1814.49	7.57549
1814.74	9.51814
1815	7.59985
1815.25	6.6421
1815.5	10.5145
1815.76	8.58662
1816.01	7.62385
1816.26	4.72771
1816.52	2.798
1816.77	7.63506
1817.02	7.63931
1817.27	9.57251
1817.53	2.80341
1817.78	9.55434
1818.03	4.71537
1818.29	3.75284
1818.54	5.69193
1818.79	9.56734
1819.05	7.64191
1819.3	8.60832
1819.55	6.67973
1819.8	10.5517
1820.06	6.69103
1820.31	3.7954
1820.56	9.602
1820.82	5.74043
1821.07	7.67992
1821.32	6.71757
1821.58	10.5933
1821.83	10.6008
1822.08	5.76935
1822.33	7.71035
1822.59	3.84353
1822.84	-0.024683
1823.09	5.78658
1823.34	5.78977
1823.6	7.72692
1823.85	8.69364
1824.1	9.65964
1824.36	6.75668
1824.61	10.6327
1824.86	7.73342
1825.11	4.83353
1825.37	6.77463
1825.62	4.84303
1825.87	2.91
1826.12	6.78585
1826.38	1.94501
1826.63	4.85244
1826.88	8.72879
1827.14	6.79407
1827.39	6.79764
1827.64	3.8962
1827.89	7.77618
1828.15	4.87431
1828.4	5.84484
1828.65	5.84499
1828.9	5.84331
1829.16	4.87156
1829.41	14.5556
1829.66	9.71291
1829.91	7.77595
1830.17	8.74383
1830.42	8.74112
1830.67	13.5796
1830.92	7.76814
1831.18	9.70586
1831.43	7.77471
1831.68	8.74898
1831.93	9.72363
1832.19	10.6981
1832.44	7.7978
1832.69	4.89714
1832.94	9.7502
1833.2	4.91033
1833.45	3.94291
1833.7	9.76066
1833.95	3.94887
1834.2	6.85983
1834.46	7.8328
1834.71	6.85606
1834.96	5.87128
1835.21	6.82506
1835.47	10.6825
1835.72	7.7702
1835.97	7.76216
1836.22	6.79559
1836.48	10.6574
1836.73	3.03872
1836.98	5.94883
1837.23	3.96804
1837.48	4.92409
1837.74	5.87175
1837.99	7.7887
1838.24	4.85514
1838.49	5.80362
1838.74	7.73295
1839	7.79035
1839.25	5.87889
1839.5	7.82939
1839.75	4.9283
1840	7.8408
1840.26	4.94213
1840.51	7.82026
1840.76	8.76552
1841.01	9.71312
1841.27	0.995632
1841.52	7.74775
1841.77	6.76787
1842.02	2.89387
1842.27	5.77954
1842.53	4.80495
1842.78	5.76014
1843.03	10.5896
1843.28	8.65783
1843.53	5.7687
1843.78	10.5922
1844.04	7.69916
1844.29	6.73189
1844.54	8.66155
1844.79	6.73737
1845.04	5.77415
1845.3	3.84067
1845.55	7.70081
1845.8	8.66641
1846.05	5.78654
1846.3	8.69732
1846.55	5.8143
1846.81	6.80379
1847.06	6.78633
1847.31	8.66937
1847.56	-1.01713
1847.81	5.7135
1848.07	9.56525
1848.32	5.73136
1848.57	6.71025
1848.82	4.76807
1849.07	6.68615
1849.32	3.79924
1849.57	3.79403
1849.83	3.78613
1850.08	3.77742
1850.33	5.69286
1850.58	5.6816
1850.83	8.55632
1851.09	4.7043
1851.34	5.65892
1851.59	7.57452
1851.84	3.72863
1852.09	5.64666
1852.34	3.72516
1852.59	7.56626
1852.84	7.5668
1853.1	6.60692
1853.35	5.64622
1853.6	1.80403
1853.85	8.52172
1854.1	6.59569
1854.35	9.46585
1854.6	3.69908
1854.86	8.4861
1855.11	6.56338
1855.36	3.68267
1855.61	6.54973
1855.86	9.41381
1856.11	2.70192
1856.36	7.48896
1856.61	5.57188
1856.87	2.69873
1857.12	7.48785
1857.37	3.65557
1857.62	6.52626
1857.87	6.52269
1858.12	9.39134
1858.37	10.3434
1858.63	4.59358
1858.88	8.41446
1859.13	6.49333
1859.38	6.48564
1859.63	5.52133
1859.88	6.47202
1860.13	9.33942
1860.38	7.42769
1860.63	5.51769
1860.89	6.47998
1861.14	7.44215
1861.39	7.44716
1861.64	9.36703
1861.89	6.50196
1862.14	4.58978
1862.39	6.50213
1862.64	5.54051
1862.9	9.36017
1863.15	3.61368
1863.4	9.3435
1863.65	4.55582
1863.9	5.50496
1864.15	4.54332
1864.4	3.58235
1864.65	9.30826
1864.9	4.52683
1865.15	7.38493
1865.4	8.33093
1865.66	6.41204
1865.91	9.26311
1866.16	11.1568
1866.41	6.37517
1866.66	5.40843
1866.91	7.30003
1867.16	7.28602
1867.41	4.41746
1867.66	5.35711
1867.91	10.1026
1868.16	3.44049
1868.41	3.43695
1868.67	6.28662
1868.92	8.18821
1869.17	10.0912
1869.42	6.2878
1869.67	6.28583
1869.92	8.18474
1870.17	2.47919
1870.42	7.22991
1870.67	6.27749
1870.92	2.47419
1871.17	4.37394
1871.42	9.12503
1871.67	6.27119
1871.92	5.31698
1872.17	4.3612
1872.42	1.50735
1872.68	6.25344
1872.93	10.0458
1873.18	3.39172
1873.43	7.18468
1873.68	4.33481
1873.93	11.9258
1874.18	9.07273
1874.43	6.21889
1874.68	6.21127
1874.93	5.2543
1875.18	8.09053
1875.43	7.13274
1875.68	7.12295
1875.93	9.00538
1876.18	3.30448
1876.43	9.91866
1876.68	8.96096
1876.93	7.05999
1877.18	7.0547
1877.43	1.36541
1877.68	9.85158
1877.93	4.14795
1878.18	7.94963
1878.44	9.01955
1878.69	8.97035
1878.93	5.16928
1879.19	5.16463
1879.44	9.92821
1879.69	4.25943
1879.94	8.98527
1880.19	7.08023
1880.44	7.07785
1880.69	5.1814
1880.94	7.08152
1881.19	5.17986
1881.44	5.17752
1881.69	5.16387
1881.94	9.87694
1882.19	4.18602
1882.44	4.16913
1882.69	1.31801
1882.94	6.01652
1883.19	7.89337
1883.44	6.92525
1883.69	11.8862
1883.94	5.10817
1884.19	3.14188
1884.44	5.02812
1884.69	9.76061
1884.94	7.85569
1885.19	9.75317
1885.44	4.11039
1885.69	11.6617
1885.94	4.11654
1886.19	8.85076
1886.44	8.85794
1886.69	4.13997
1886.94	5.08031
1887.19	6.01031
1887.44	5.05836
1887.69	8.82435
1887.94	9.75812
1888.19	6.91866
1888.44	9.73676
1888.69	3.12454
1888.94	6.88183
1889.19	6.87032
1889.44	6.85908
1889.69	4.96968
1889.94	6.85013
1890.19	6.84742
1890.44	5.90792
1890.69	7.79723
1890.94	10.6293
1891.19	5.92119
1891.43	4.97693
1891.68	8.74004
1891.94	4.02934
1892.18	4.02613
1892.43	5.90662
1892.68	5.90421
1892.93	7.78135
1893.18	4.00792
1893.43	5.87787
1893.68	4.91846
1893.93	6.78209
1894.18	6.77679
1894.43	9.60085
1894.68	7.70726
1894.93	5.82087
1895.18	2.99874
1895.43	7.69557
1895.68	6.75717
1895.93	9.57811
1896.18	8.64119
1896.43	6.76452
1896.68	8.64856
1896.93	7.71365
1897.18	4.8968
1897.42	0.196766
1897.68	8.66336
1897.92	6.7822
1898.17	4.89927
1898.42	8.65835
1898.67	6.77184
1898.92	5.82432
1899.17	8.63598
1899.42	5.80598
1899.67	6.73814
1899.92	3.91432
1900.17	3.90895
1900.42	10.4792
1900.67	7.65842
1900.92	6.71856
1901.16	10.4782
1901.41	6.72417
1901.66	3.90989
1901.91	6.73422
1902.16	6.73926
1902.41	6.74538
1902.66	6.75082
1902.91	5.80892
1903.16	6.74517
1903.41	6.74014
1903.66	11.4365
1903.91	5.78972
1904.16	2.96521
1904.41	2.96217
1904.65	8.60069
1904.9	5.77731
1905.15	5.77387
1905.4	7.65102
1905.65	8.58886
1905.9	2.94511
1906.15	8.57372
1906.4	6.68125
1906.65	3.8571
1906.9	6.66935
1907.14	7.60335
1907.39	8.53817
1907.64	6.65866
1907.89	8.53699
1908.14	9.47892
1908.39	4.78674
1908.64	9.48495
1908.89	1.96875
1909.14	9.48705
1909.39	5.73161
1909.63	3.85616
1909.88	5.7423
1910.13	8.57152
1910.38	9.52191
1910.63	3.88535
1910.88	6.7171
1911.13	9.54768
1911.38	6.72581
1911.62	11.4369
1911.87	5.78456
1912.12	6.72436
1912.37	9.54593
1912.62	8.59968
1912.87	8.59696
1913.12	3.88569
1913.37	5.7675
1913.61	5.76665
1913.86	9.53764
1914.11	5.77661
1914.36	9.5551
1914.61	9.56138
1914.86	4.85155
1915.11	6.74273
1915.36	3.91681
1915.6	8.63695
1915.85	12.4115
1916.1	3.91597
1916.35	4.85497
1916.6	6.73822
1916.85	3.90136
1917.1	5.77925
1917.34	11.4296
1917.59	5.7648
1917.84	10.4733
1918.09	6.69803
1918.34	2.92575
1918.59	4.81342
1918.83	1.04569
1919.08	8.59766
1919.33	6.71861
1919.58	4.83906
1919.83	5.79408
1920.08	10.5266
1920.33	9.58657
1920.57	4.86137
1920.82	6.74523
1921.07	4.85545
1921.32	5.80627
1921.57	8.64863
1921.81	5.81509
1922.06	10.5457
1922.31	4.87214
1922.56	13.3819
1922.81	3.91953
1923.06	5.80378
1923.31	5.79692
1923.55	6.73689
1923.8	6.73196
1924.05	7.67177
1924.3	4.82957
1924.55	3.87683
1924.79	7.64992
1925.04	7.64627
1925.29	3.86619
1925.54	10.4821
1925.79	5.76193
1926.04	4.82391
1926.28	7.66713
1926.53	5.78164
1926.78	9.57278
1927.03	5.7957
1927.28	3.90656
1927.52	4.85557
1927.77	4.85752
1928.02	4.85903
1928.27	2.96576
1928.52	6.75577
1928.76	10.5453
1929.01	4.86252
1929.26	6.75941
1929.51	9.60565
1929.76	2.97498
1930	7.72316
1930.25	7.72936
1930.5	8.68607
1930.75	6.79386
1931	8.69894
1931.24	9.64856
1931.49	4.89977
1931.74	5.8443
1931.99	7.73619
1932.24	7.72915
1932.48	5.82386
1932.73	10.5614
1932.98	3.91194
1933.23	8.6516
1933.47	6.74724
1933.72	7.6954
1933.97	5.80477
1934.22	6.76715
1934.46	2.98599
1934.71	4.91094
1934.96	8.74162
1935.21	4.00297
1935.46	4.01884
1935.7	5.938
1935.95	6.89997
1936.2	4.96921
1936.45	5.91656
1936.69	4.95889
1936.94	6.85813
1937.19	7.80141
1937.44	6.83803
1937.68	3.01948
1937.93	8.7232
1938.18	9.66611
1938.43	5.84928
1938.68	8.7015
1938.92	5.85482
1939.17	4.90383
1939.42	5.85825
1939.67	7.76591
1939.91	6.81504
1940.16	3.95951
1940.41	0.146839
1940.66	3.00968
1940.9	7.78055
1941.15	6.84638
1941.4	4.9478
1941.64	4.94508
1941.89	6.84671
1942.14	6.83224
1942.39	6.80974
1942.63	3.00454
1942.88	8.75933
1943.13	9.71971
1943.38	4.94407
1943.62	10.6557
1943.87	3.00386
1944.12	7.75974
1944.37	9.68726
1944.61	3.96491
1944.86	8.7423
1945.11	3.97264
1945.35	4.93259
1945.6	4.93752
1945.85	6.85384
1946.1	1.1228
1946.34	5.90572
1946.59	9.73288
1946.84	3.03951
1947.09	4.95136
1947.33	2.07866
1947.58	0.16073
1947.83	5.89266
1948.07	9.71401
1948.32	7.79846
1948.57	6.83915
1948.82	8.74598
1949.06	5.8763
1949.31	5.87929
1949.56	2.05669
1949.8	3.01664
1950.05	5.89229
1950.3	5.89794
1950.54	5.90866
1950.79	7.83686
1951.04	7.84617
1951.29	6.89779
1951.53	7.86789
1951.78	4.03957
1952.03	3.08601
1952.27	4.0491
1952.52	4.05084
1952.77	7.89463
1953.01	5.00926
1953.26	5.97268
1953.51	5.97802
1953.76	8.84789
1954	11.7123
1954.25	6.88707
1954.49	6.86563
1954.74	3.96955
1954.99	8.7434
1955.24	3.94559
1955.48	6.81549
1955.73	7.77463
1955.98	7.78099
1956.22	2.9991
1956.47	1.09803
1956.72	6.86116
1956.96	7.82908
1957.21	4.95153
1957.46	8.79773
1957.7	6.88098
1957.95	4.00192
1958.2	3.0424
1958.44	4.00358
1958.69	12.6532
1958.94	7.84632
1959.18	3.99612
1959.43	5.9092
1959.68	8.78563
1959.92	3.01646
1960.17	9.73373
1960.42	7.80403
1960.66	9.7167
1960.91	5.86677
1961.16	8.73788
1961.4	4.88921
1961.65	2.00225
1961.9	3.9157
1962.14	8.71214
1962.39	4.87229
1962.63	8.70967
1962.88	7.74847
1963.13	7.74699
1963.37	7.74542
1963.62	3.9039
1963.87	7.742
1964.11	10.6209
1964.36	5.82173
1964.61	6.78259
1964.85	13.5009
1965.1	5.81332
1965.35	3.89059
1965.59	6.76704
1965.84	5.80459
1966.08	6.76517
1966.33	1.96616
1966.58	12.5375
1966.82	9.66044
1967.07	10.6242
1967.32	7.7424
1967.56	8.69959
1967.81	7.73573
1968.05	8.6971
1968.3	5.81153
1968.55	7.73278
1968.79	5.8064
1969.04	11.5682
1969.29	4.83069
1969.53	7.70263
1969.78	6.72825
1970.02	8.63527
1970.27	7.66319
1970.52	7.65312
1970.76	5.72589
1971.01	6.67683
1971.25	6.66884
1971.5	12.4178
1971.75	6.65585
1971.99	5.69116
1972.24	6.64974
1972.48	10.4872
1972.73	8.56746
1972.98	9.52345
1973.22	4.72101
1973.47	10.4675
1973.71	13.333
1973.96	11.4053
1974.21	6.60424
1974.45	8.51548
1974.7	7.55266
1974.94	8.50835
1975.19	9.4652
1975.44	10.4239
1975.68	9.46693
1975.93	9.46951
1976.17	7.55331
1976.42	7.55387
1976.66	9.47156
1976.91	7.55145
1977.16	6.58941
1977.4	14.2593
1977.65	10.4169
1977.89	8.49167
1978.14	12.3189
1978.39	10.3921
1978.63	12.3014
1978.88	9.41858
1979.12	9.41335
1979.37	11.3273
1979.61	10.367
1979.86	4.61317
1980.1	9.40428
1980.35	10.3605
1980.6	7.47852
1980.84	11.3028
1981.09	3.62811
1981.33	7.45489
1981.58	11.2789
1981.82	1.69327
1982.07	10.3085
1982.31	15.093
1982.56	13.173
1982.81	10.291
1983.05	11.2393
1983.3	5.48433
1983.54	15.0411
1983.79	4.50524
1984.03	11.1956
1984.28	13.103
1984.52	16.9221
1984.77	9.26371
1985.02	7.34512
1985.26	8.2926
1985.51	9.23645
1985.75	11.1406
1986	10.182
1986.24	10.1814
1986.49	11.1395
1986.73	13.0553
1986.98	13.0557
1987.22	12.0951
1987.47	9.2263
1987.71	13.0417
1987.96	14.9388
1988.21	8.23345
1988.45	9.17255
1988.7	13.9275
1988.94	12.9443
1989.19	11.0294
1989.43	10.8682
1989.68	9.92972
1989.92	10.8859
1990.17	10.7368
1990.41	10.7809
1990.66	12.7238
1990.9	17.2076
1991.15	9.42667
1991.39	14.3796
1991.64	10.97
1991.88	13.185
1992.13	13.1919
1992.37	9.93127
1992.62	12.1778
1992.86	14.9681
1993.11	7.72953
1993.35	13.1029
1993.6	10.2513
1993.84	12.6457
1994.09	13.576
1994.33	14.8433
1994.58	11.0295
1994.82	11.8123
1995.07	14.8821
1995.31	11.2766
1995.56	14.7946
1995.8	15.4519
1996.05	11.4558
1996.29	15.4777
1996.54	12.1689
1996.78	11.9914
1997.03	11.8295
1997.27	10.556
1997.52	13.097
1997.76	13.9445
1998.01	15.0025
1998.25	11.7575
1998.5	15.2046
1998.74	15.9804
1998.99	14.4986
1999.23	15.7634
1999.48	12.4392
1999.72	13.6184
1999.97	11.8593
2000.21	12.4668
2000.46	11.7798
2000.7	13.2458
2000.95	15.0174
2001.19	13.9051
2001.43	14.2447
2001.68	12.1979
2001.92	13.8769
2002.17	15.3513
2002.41	14.7669
2002.66	14.4379
2002.9	13.6778
2003.15	14.9677
2003.39	11.4664
2003.64	13.9623
2003.88	17.6823
2004.13	14.7848
2004.37	15.3383
2004.61	14.3385
2004.86	13.0754
2005.1	14.8699
2005.35	16.3688
2005.59	11.669
2005.84	12.0867
2006.08	15.6784
2006.33	15.7652
2006.57	11.8689
2006.81	16.0335
2007.06	15.8487
2007.3	16.2771
2007.55	13.0554
2007.79	15.7517
2008.04	17.0073
2008.28	11.8739
2008.53	15.1335
2008.77	17.9835
2009.01	14.707
2009.26	15.2013
2009.5	13.4899
2009.75	13.9285
2009.99	14.5315
2010.24	14.1677
2010.48	13.6297
2010.73	12.2541
2010.97	11.1905
2011.21	12.5329
2011.46	13.4993
2011.7	10.242
2011.95	14.3054
2012.19	10.0763
2012.43	19.2387
2012.68	7.93473
2012.92	14.5223
2013.17	14.5134
2013.42	15.4401
2013.67	10.7167
2013.91	14.4669
2014.16	13.512
2014.41	11.6155
2014.66	8.77873
2014.9	15.3325
2015.15	11.5728
2015.4	12.512
2015.64	15.332
2015.89	10.6441
2016.14	12.5252
2016.39	13.4593
2016.63	13.468
2016.88	13.495
2017.13	14.4396
2017.37	9.73726
2017.62	12.5504
2017.87	15.3595
2018.11	13.4682
2018.36	12.5141
2018.61	8.74442
2018.86	15.2982
2019.1	13.4075
2019.35	12.4544
2019.6	8.69228
2019.84	13.3694
2020.09	12.4266
2020.34	7.73991
2020.58	11.4849
2020.83	12.419
2021.08	13.3534
2021.33	10.5451
2021.57	8.67323
2021.82	11.4827
2022.07	12.4169
2022.31	13.3493
2022.56	13.3433
2022.81	16.1442
2023.05	7.70978
2023.3	12.3787
2023.55	12.3702
2023.8	11.4262
2024.04	7.67731
2024.29	10.4744
2024.54	13.2712
2024.78	9.52065
2025.03	8.57429
2025.27	10.4303
2025.52	10.4187
2025.77	12.2743
2026.02	13.1967
2026.26	14.1155
2026.51	10.3879
2026.76	11.3332
2027	12.2888
2027.25	9.51291
2027.5	8.60605
2027.74	10.4944
2027.99	7.68239
2028.23	6.72668
2028.48	12.3024
2028.73	8.47623
2028.98	7.62846
2029.22	18.0572
2029.47	9.55126
2029.72	12.3917
2029.96	12.3274
2030.21	13.2208
2030.45	12.2449
2030.7	8.51165
2030.95	12.2122
2031.19	5.70981
2031.44	10.3929
2031.69	15.0524
2031.93	11.32
2032.18	10.3875
2032.43	12.2638
2032.67	10.408
2032.92	9.48627
2033.17	8.56262
2033.41	15.1127
2033.66	6.70736
2033.91	16.0668
2034.15	10.4609
2034.4	9.5077
2034.64	6.6823
2034.89	7.58356
2035.14	14.105
2035.38	4.78817
2035.63	10.3993
2035.87	10.4186
2036.12	6.70402
2036.37	8.5901
2036.61	12.3295
2036.86	13.2449
2037.11	14.1805
2037.35	10.4492
2037.6	11.3836
2037.84	10.4465
2038.09	9.50782
2038.34	8.56851
2038.58	12.3022
2038.83	7.62353
2039.08	10.4212
2039.32	7.61271
2039.57	9.47502
2039.81	8.53506
2040.06	9.46118
2040.31	10.3848
2040.55	9.44179
2040.8	11.2986
2041.04	8.49171
2041.29	9.41715
2041.54	8.47867
2041.78	3.81445
2042.03	8.47349
2042.27	8.46878
2042.52	7.53266
2042.77	7.52576
2043.01	10.3181
2043.26	9.38603
2043.5	6.59344
2043.75	7.53359
2044	8.47852
2044.24	6.62626
2044.49	9.42971
2044.73	8.49496
2044.98	7.55425
2045.23	7.53974
2045.47	9.37419
2045.72	7.55
2045.96	5.69386
2046.21	6.67045
2046.45	7.65638
2046.7	7.62909
2046.95	6.66419
2047.19	5.70798
2047.44	10.3762
2047.68	11.2989
2047.93	8.47329
2048.17	8.46623
2048.42	8.46753
2048.67	7.53677
2048.91	10.3358
2049.16	5.67712
2049.4	5.68479
2049.65	7.55688
2049.89	9.43228
2050.14	8.51103
2050.39	5.71854
2050.63	6.66105
2050.88	11.3369
2051.12	5.7332
2051.37	7.5997
2051.61	9.46123
2051.86	5.71641
2052.11	2.91493
2052.35	6.65049
2052.6	8.52303
2052.84	9.45843
2053.09	4.79219
2053.33	2.92846
2053.58	5.7371
2053.82	10.4181
2054.07	7.62932
2054.31	7.63538
2054.56	7.6397
2054.8	11.3827
2055.05	6.70476
2055.3	11.3802
2055.54	9.5071
2055.79	6.69383
2056.03	6.6904
2056.28	5.75406
2056.52	6.68617
2056.77	7.6177
2057.01	2.94219
2057.26	6.68095
2057.5	9.48684
2057.75	6.68512
2058	6.6891
2058.24	5.75886
2058.49	3.89307
2058.73	8.57762
2058.98	8.58524
2059.22	8.59228
2059.47	6.72544
2059.71	2.04691
2059.96	9.53802
2060.2	4.8579
2060.45	9.5349
2060.69	5.7862
2060.94	5.78317
2061.18	6.72294
2061.43	7.66376
2061.67	5.79482
2061.92	9.5414
2062.16	5.79725
2062.41	6.73489
2062.65	2.99179
2062.9	9.5504
2063.14	7.68221
2063.39	9.56186
2063.63	9.56782
2063.88	3.01291
2064.12	4.89063
2064.37	3.95608
2064.61	2.08389
2064.86	3.96222
2065.1	7.71722
2065.35	9.60074
2065.59	6.79687
2065.84	10.5595
2066.08	6.81367
2066.33	4.00357
2066.57	7.76378
2066.82	4.94839
2067.06	4.95185
2067.31	7.77329
2067.55	9.65513
2067.8	4.96263
2068.04	5.90744
2068.29	4.97222
2068.53	4.9757
2068.78	5.91777
2069.02	6.86278
2069.27	5.92345
2069.51	6.85946
2069.76	5.91126
2070	7.77713
2070.25	4.95473
2070.49	4.01865
2070.73	3.0912
2070.98	4.04548
2071.22	3.11989
2071.47	11.5832
2071.71	5.93143
2071.96	9.73181
2072.2	7.86259
2072.45	7.86075
2072.69	10.6837
2072.94	6.91669
2073.18	6.91446
2073.43	6.91485
2073.67	7.8551
2073.92	3.1494
2074.16	6.917
2074.4	11.6274
2074.65	5.98155
2074.89	5.04581
2075.14	2.22755
2075.38	5.06467
2075.63	7.90696
2075.87	3.20725
2076.12	6.99279
2076.36	6.99909
2076.6	5.11237
2076.85	7.00229
2077.09	0.391779
2077.34	4.16227
2077.58	4.15634
2077.83	5.08691
2078.07	9.79908
2078.31	8.86062
2078.56	6.03836
2078.8	8.87184
2079.05	6.04485
2079.29	5.10612
2079.54	6.05751
2079.78	8.90528
2080.03	7.02348
2080.27	2.30598
2080.51	6.09022
2080.76	2.31481
2081	3.26076
2081.25	7.98308
2081.49	7.03656
2081.74	6.09141
2081.98	4.20204
2082.22	7.03592
2082.47	5.14924
2082.71	6.09701
2082.96	8.93434
2083.2	7.99062
2083.45	5.15569
2083.69	7.04502
2083.93	4.20959
2084.18	4.21026
2084.42	8.93604
2084.67	5.15652
2084.91	5.15762
2085.15	6.10419
2085.4	4.21507
2085.64	1.38057
2085.89	5.16141
2086.13	6.10921
2086.37	12.735
2086.62	6.128
2086.86	4.24392
2087.11	5.19339
2087.35	9.92815
2087.59	2.3644
2087.84	6.15308
2088.08	5.20763
2088.32	6.15518
2088.57	4.26384
2088.81	3.31933
2089.06	7.10757
2089.3	4.27005
2089.54	6.16864
2089.79	2.3869
2090.03	7.1304
2090.28	6.18681
2090.52	4.29448
2090.76	-1.38702
2091.01	6.19552
2091.25	7.14717
2091.5	2.41293
2091.74	6.20764
2091.98	4.3201
2092.23	8.12247
2092.47	2.44167
2092.72	3.39991
2092.96	2.4609
2093.2	6.26702
2093.45	0.576517
2093.69	7.23397
2093.93	11.0436
2094.18	5.34864
2094.42	8.207
2094.66	3.45592
2094.91	6.30887
2095.15	8.20958
2095.39	8.208
2095.64	6.30236
2095.88	3.44658
2096.13	4.39359
2096.37	6.2912
2096.61	4.3897
2096.86	2.48946
2097.1	4.389
2097.34	7.23532
2097.59	10.0787
2097.83	5.3255
2098.07	5.32381
2098.32	6.27229
2098.56	3.42379
2098.8	3.42059
2099.05	4.37052
2099.29	11.9634
2099.53	6.26774
2099.78	11.9612
2100.02	6.26739
2100.27	5.31943
2100.51	4.37209
2100.75	8.17082
2101	7.22565
2101.24	6.28469
2101.48	6.29141
2101.73	5.34625
2101.97	3.44926
2102.21	5.34969
2102.45	0.600744
2102.7	8.20016
2102.94	6.29953
2103.18	8.19463
2103.43	6.28997
2103.67	6.28737
2103.92	4.38875
2104.16	4.38791
2104.4	9.1355
2104.64	4.39245
2104.89	6.29661
2105.13	3.45305
2105.37	4.40747
2105.62	8.21306
2105.86	4.42048
2106.1	8.22816
2106.35	5.38115
2106.59	6.3355
2106.83	10.1404
2107.08	4.4387
2107.32	6.34365
2107.56	7.29627
2107.8	4.44154
2108.05	6.3379
2108.29	4.43035
2108.53	2.52329
2108.78	7.26563
2109.02	5.36073
2109.26	10.1064
2109.51	6.31068
2109.75	4.41973
2109.99	5.37629
2110.23	5.37741
2110.48	6.32829
2110.72	7.27902
2110.96	4.4298
2111.21	8.23061
2111.45	8.2311
2111.69	5.37995
2111.93	0.627756
2112.18	2.5254
2112.42	3.47424
2112.66	7.27344
2112.91	9.1768
2113.15	5.3817
2113.39	6.33595
2113.63	4.44384
2113.88	5.40086
2114.12	3.50353
2114.36	-0.299065
2114.61	6.35211
2114.85	6.35228
2115.09	8.25525
2115.33	5.40558
2115.58	5.40477
2115.82	9.20416
2116.06	5.40151
2116.31	3.49956
2116.55	5.39468
2116.79	6.33958
2117.03	5.38787
2117.28	5.38714
2117.52	8.23547
2117.76	7.28795
2118	3.48739
2118.25	7.2814
2118.49	5.37852
2118.73	3.47359
2118.97	6.31235
2119.22	5.35773
2119.46	9.14542
2119.7	5.34688
2119.94	4.39373
2120.19	6.2847
2120.43	4.38593
2120.67	7.22776
2120.91	4.38676
2121.16	6.28765
2121.4	4.39562
2121.64	4.40273
2121.88	9.15179
2122.13	1.57203
2122.37	8.21889
2122.61	3.4813
2122.85	4.43527
2123.1	7.2873
2123.34	3.4946
2123.58	7.29502
2123.82	4.44883
2124.07	-0.299276
2124.31	4.44487
2124.55	4.44076
2124.79	3.48534
2125.03	7.2689
2125.28	6.30673
2125.52	5.34651
2125.76	5.33718
2126	7.22278
2126.25	6.26773
2126.49	6.26056
2126.73	7.20108
2126.97	7.19522
2127.21	4.35179
2127.46	5.29217
2127.7	6.2358
2127.94	4.34399
2128.18	5.28839
2128.43	1.50468
2128.67	3.39425
2128.91	9.06662
2129.15	6.23166
2129.39	6.23112
2129.64	10.01
2129.88	7.17308
2130.12	7.17235
2130.36	6.22648
2130.6	5.28037
2130.85	4.3339
2131.09	2.4422
2131.33	4.32897
2131.57	5.27
2131.81	9.04363
2132.06	7.1511
2132.3	4.31618
2132.54	3.36953
2132.78	4.30868
2133.02	7.13519
2133.27	7.13283
2133.51	5.24581
2133.75	3.36034
2133.99	6.19306
2134.23	3.3629
2134.48	6.19594
2134.72	3.36617
2134.96	5.25355
2135.2	9.97191
2135.44	6.19674
2135.68	9.97042
2135.93	4.30625
2136.17	4.30196
2136.41	8.06637
2136.65	5.22887
2136.89	3.33977
2137.14	9.94061
2137.38	7.11429
2137.62	1.45871
2137.86	0.519112
2138.1	4.29734
2138.34	3.35269
2138.59	5.23099
2138.83	7.11048
2139.07	7.1167
2139.31	5.24115
2139.55	8.07831
2139.79	6.17727
2140.03	7.10882
2140.28	5.21937
2140.52	8.04186
2140.76	8.98031
2141	5.20958
2141.24	3.32408
2141.49	3.32239
2141.73	2.38148
2141.97	8.02619
2142.21	5.19535
2142.45	8.95848
2142.69	4.25245
2142.93	1.43392
2143.18	6.14653
2143.42	8.05642
2143.66	3.33393
2143.9	5.14563
2144.14	6.08558
2144.38	4.21194
2144.62	6.10257
2144.87	3.29177
2145.11	4.23832
2145.35	7.04302
2145.59	-0.475863
2145.83	5.16727
2146.07	7.98673
2146.31	7.98445
2146.55	7.04203
2146.8	7.03988
2147.04	8.91761
2147.28	4.21556
2147.52	7.97075
2147.76	8.90639
2148	2.32649
2148.24	5.14216
2148.48	6.07837
2148.73	7.01432
2148.97	4.19357
2149.21	3.25069
2149.45	6.06148
2149.69	3.2393
2149.93	8.85664
2150.17	4.16018
2150.42	2.27764
2150.66	7.897
2150.9	1.33294
2151.14	8.83097
2151.38	3.20983
2151.62	4.15216
2151.86	6.03054
2152.1	1.3466
2152.34	1.34857
2152.58	4.16633
2152.83	2.28669
2153.07	4.15866
2153.31	0.403578
2153.55	3.21188
2153.79	6.95899
2154.03	7.89357
2154.27	-0.545082
2154.51	3.19669
2154.75	0.378126
2154.99	0.36801
2155.24	2.22998
2155.48	5.0243
2155.72	3.14525
2155.96	3.13733
2156.2	7.80296
2156.44	4.05986
2156.68	5.92547
2156.92	5.92427
2157.16	4.05536
2157.4	3.12146
2157.64	0.320906
2157.89	5.93045
2158.13	4.06701
2158.37	0.332878
2158.61	3.13816
2158.85	4.07277
2159.09	5.94095
2159.33	5.93841
2159.57	1.26231
2159.81	8.73289
2160.05	1.25324
2160.29	3.11491
2160.53	5.90918
2160.77	7.76955
2161.01	4.96352
2161.25	4.96035
2161.5	2.15941
2161.74	3.09
2161.98	4.02037
2162.22	4.95224
2162.46	7.75088
2162.7	4.01928
2162.94	6.8175
2163.18	5.88193
2163.42	5.87794
2163.66	4.94199
2163.9	3.07396
2164.14	7.73296
2164.38	7.72913
2164.62	6.79013
2164.86	6.78199
2165.11	5.84521
2165.35	-0.675846
2165.59	7.7128
2165.83	3.05388
2166.07	6.7816
2166.31	6.78179
2166.55	5.84631
2166.79	3.04794
2167.03	0.249186
2167.27	3.0382
2167.51	4.89644
2167.75	2.09663
2167.99	6.74221
2168.23	1.14564
2168.47	7.64312
2168.71	2.05988
2168.95	6.70737
2169.19	3.91975
2169.43	3.92324
2169.67	6.71879
2169.91	3.93625
2170.15	5.80687
2170.39	4.88713
2170.63	6.75577
2170.87	7.6895
2171.11	6.75582
2171.35	8.61162
2171.59	5.81549
2171.83	6.73384
2172.07	2.99232
2172.31	2.98207
2172.56	2.04722
2172.79	11.3349
2173.04	5.75501
2173.28	4.82474
2173.51	5.75301
2173.76	5.75224
2174	2.96659
2174.24	7.61598
2174.48	7.61855
2174.72	2.97262
2174.96	4.83139
2175.2	2.04255
2175.44	3.90044
2175.68	2.03954
2175.92	6.68382
2176.16	6.68232
2176.4	8.53867
2176.64	0.173454
2176.88	3.88511
2177.12	3.88288
2177.36	6.66923
2177.6	0.166939
2177.84	9.45653
2178.08	7.59744
2178.32	2.02422
2178.55	1.09233
2178.8	5.72833
2179.03	7.57879
2179.28	6.64899
2179.52	2.93588
2179.75	9.43523
2180	2.00697
2180.23	3.86332
2180.47	3.86254
2180.71	5.7181
2180.95	6.64404
2181.19	3.85641
2181.43	6.64004
2181.67	4.78096
2181.91	2.92058
2182.15	2.9169
2182.39	4.77087
2182.63	4.76652
2182.87	5.69092
2183.11	3.83206
2183.35	1.97092
2183.59	4.7464
2183.83	3.81032
2184.07	4.73063
2184.31	5.65212
2184.55	5.64711
2184.79	2.86541
2185.03	6.57188
2185.27	5.64748
2185.51	3.7955
2185.75	2.87009
2185.99	6.58039
2186.23	6.58477
2186.47	7.51681
2186.7	4.73928
2186.95	5.67438
2187.18	2.89852
2187.42	2.90564
2187.66	3.84116
2187.9	3.84636
2188.14	9.41995
2188.38	1.9859
2188.62	5.69481
2188.86	1.97474
2189.1	4.75285
2189.34	6.60101
2189.58	3.8087
2189.82	0.0891781
2190.06	6.57159
2190.3	5.63968
2190.54	3.78362
2190.78	2.85633
2191.01	4.71188
2191.25	2.85903
2191.49	3.78527
2191.73	6.56763
2191.97	6.56925
2192.21	5.6437
2192.45	5.64537
2192.69	3.79173
2192.93	3.79329
2193.17	7.50816
2193.41	4.72877
2193.65	8.445
2193.89	5.66628
2194.13	0.105482
2194.36	6.62047
2194.6	3.84087
2194.84	1.98543
2195.08	6.63116
2195.32	6.62654
2195.56	4.76355
2195.8	2.89943
2196.04	8.46714
2196.28	6.59926
2196.52	2.87356
2196.76	4.7203
2197	8.42405
2197.23	1.92217
2197.47	3.77202
2197.71	4.69432
2197.95	2.83833
2198.19	1.91043
2198.43	1.91207
2198.67	5.62861
2198.91	6.56308
2199.15	1.92903
2199.38	0.079319
2199.62	3.80117
2199.86	4.73849
2200.1	6.60607
2200.34	7.54971
2200.58	1.05119
2200.82	5.71683
2201.06	4.79629
2201.3	2.94019
2201.54	3.87754
2201.77	9.45417
2202.01	5.69639
2202.25	7.48964
2202.49	2.80704
2202.73	6.53428
2202.97	6.58587
2203.21	5.67829
2203.45	1.94874
2203.68	3.80163
2203.92	1.96324
2204.16	3.91248
2204.4	4.80948
2204.64	5.73835
2204.88	2.94433
2205.12	6.65241
2205.36	0.106106
2205.59	6.5983
2205.83	1.93073
2206.07	5.64428
2206.31	1.92467
2206.55	6.57898
2206.79	6.57865
2207.03	2.84741
2207.26	1.91797
2207.5	3.78011
2207.74	3.78386
2207.98	4.71843
2208.22	1.93193
2208.46	6.58921
2208.7	0.0782356
2208.93	3.80515
2209.17	0.0831566
2209.41	5.67169
2209.65	9.39733
2209.89	2.87691
2210.13	7.53113
2210.36	6.5995
2210.6	8.46489
2210.84	4.74172
2211.08	5.67665
2211.32	5.67997
2211.56	3.8189
2211.8	3.82209
2212.03	4.75904
2212.27	5.69635
2212.51	4.76654
2212.75	3.83434
2212.99	5.69653
2213.23	3.8266
2213.46	4.75502
2213.7	0.0865307
2213.94	5.67461
2214.18	4.74235
2214.42	10.3418
2214.66	9.42153
2214.89	1.96636
2215.13	7.56816
2215.37	7.56934
2215.61	-0.832388
2215.85	7.56973
2216.08	3.83433
2216.32	1.96553
2216.56	1.96356
2216.8	3.82851
2217.04	4.75923
2217.28	4.75647
2217.51	6.62193
2217.75	1.01982
2217.99	8.48859
2218.23	6.61955
2218.47	3.8166
2218.7	1.94876
2218.94	3.81727
2219.18	5.68738
2219.42	0.0863552
2219.66	6.62916
2219.9	3.82773
2220.13	8.50215
2220.37	1.9614
2220.61	2.89369
2220.85	5.69449
2221.09	1.9536
2221.32	4.75257
2221.56	7.54674
2221.8	6.60259
2222.04	2.85903
2222.27	3.78578
2222.51	3.78054
2222.75	4.71148
2222.99	0.044136
2223.23	5.64791
2223.46	1.91528
2223.7	3.7859
2223.94	3.79078
2224.18	2.86267
2224.42	4.7388
2224.65	2.87515
2224.89	7.55661
2225.13	3.81973
2225.37	4.75971
2225.6	1.95716
2225.84	3.8353
2226.08	1.96681
2226.32	2.90714
2226.56	1.97432
2226.79	5.72466
2227.03	2.91753
2227.27	1.0461
2227.51	1.98589
2227.74	5.73802
2227.98	2.92491
2228.22	2.92242
2228.46	4.79392
2228.69	2.91475
2228.93	1.97349
2229.17	2.90779
2229.41	1.96701
2229.64	1.96514
2229.88	4.78058
2230.12	6.6621
2230.36	3.85334
2230.6	1.97989
2230.83	3.86002
2231.07	6.67995
2231.31	3.86797
2231.55	6.69001
2231.78	5.75631
2232.02	3.88112
2232.26	0.125866
2232.5	4.82844
2232.73	6.71254
2232.97	3.89542
2233.21	3.89886
2233.45	2.02069
2233.68	3.90528
2233.92	0.144514
2234.16	4.85194
2234.39	0.14687
2234.63	5.7911
2234.87	6.72798
2235.11	3.89919
2235.34	4.83318
2235.58	3.88046
2235.82	1.99073
2236.06	4.81046
2236.29	1.04815
2236.53	7.63087
2236.77	2.92817
2237	3.86791
2237.24	-0.835615
2237.48	4.81307
2237.72	2.93517
2237.95	5.76792
2238.19	0.127508
2238.43	4.84583
2238.67	1.08206
2238.9	4.85765
2239.14	3.92152
2239.38	1.09969
2239.61	6.76015
2239.85	3.92545
2240.09	5.80622
2240.33	4.85296
2240.56	4.844
2240.8	5.78134
2241.04	2.96298
2241.27	3.91479
2241.51	5.80167
2241.75	7.68885
2241.99	5.80214
2242.22	4.85842
2242.46	3.91524
2242.7	4.86031
2242.93	4.86201
2243.17	4.8607
2243.41	4.85764
2243.64	2.02012
2243.88	4.84559
2244.12	2.0103
2244.36	4.83865
2244.59	2.95024
2244.83	2.95243
2245.07	7.67929
2245.3	3.91216
2245.54	1.08576
2245.78	2.98002
2246.01	2.0381
2246.25	3.9328
2246.49	4.88234
2246.72	2.04766
2246.96	2.04833
2247.2	6.7812
2247.43	2.99874
2247.67	4.89245
2247.91	2.05245
2248.14	2.99664
2248.38	1.10047
2248.62	2.98971
2248.85	5.82502
2249.09	2.03642
2249.33	2.97923
2249.56	4.86858
2249.8	7.71078
2250.04	5.81987
2250.27	1.08529
2250.51	5.81199
2250.75	2.01955
2250.98	2.01225
2251.22	4.84138
2251.46	6.72536
2251.69	0.100763
2251.93	8.60631
2252.17	0.0965061
2252.4	8.60744
2252.64	2.93632
2252.88	1.994
2253.11	0.108002
2253.35	3.9063
2253.59	3.91519
2253.82	1.07943
2254.06	1.08354
2254.3	3.92985
2254.53	1.08937
2254.77	4.88358
2255.01	4.88229
2255.24	4.87761
2255.48	5.82536
2255.72	4.87555
2255.95	1.08195
2256.19	4.87422
2256.42	2.03209
2256.66	2.03522
2256.9	5.8331
2257.13	1.09144
2257.37	6.78858
2257.61	1.09617
2257.84	2.04772
2258.08	2.99835
2258.32	-0.800322
2258.55	2.04784
2258.79	4.89695
2259.02	5.84779
2259.26	4.90035
2259.5	1.10251
2259.73	2.05339
2259.97	3.9544
2260.2	3.95592
2260.44	4.90767
2260.68	3.95818
2260.91	4.90983
2261.15	1.10909
2261.39	3.96899
2261.62	3.97326
2261.86	1.1185
2262.1	3.02134
2262.33	4.92512
2262.57	3.97422
2262.8	3.97652
2263.04	2.07671
2263.28	3.98542
2263.51	1.13366
2263.75	1.13977
2263.98	2.10017
2264.22	2.10892
2264.46	5.93299
2264.69	3.07904
2264.93	3.08535
2265.16	5.95469
2265.4	5.00434
2265.64	4.05276
2265.87	3.09686
2266.11	4.05163
2266.34	5.00297
2266.58	4.99489
2266.81	6.89594
2267.05	4.02297
2267.29	8.78679
2267.52	4.96302
2267.76	1.14092
2267.99	3.04307
2268.23	4.94281
2268.47	3.02919
2268.7	3.02596
2268.94	5.88586
2269.17	3.98119
2269.41	2.07796
2269.65	4.94582
2269.88	4.95267
2270.12	0.186411
2270.35	2.10352
2270.59	2.11037
2270.82	3.06952
2271.06	5.93855
2271.3	4.03191
2271.53	4.99162
2271.77	4.99393
2272	4.99665
2272.24	1.17462
2272.47	3.0891
2272.71	6.91497
2272.95	1.17469
2273.18	0.217844
2273.42	0.217861
2273.65	6.91609
2273.89	4.04554
2274.12	1.17465
2274.36	5.0029
2274.6	6.91717
2274.83	3.08873
2275.07	5.00341
2275.3	2.13221
2275.54	5.96191
2275.77	5.00513
2276.01	4.04545
2276.24	2.13322
2276.48	4.0539
2276.72	2.14358
2276.95	0.231594
2277.18	2.15226
2277.42	7.90924
2277.66	2.16447
2277.89	2.17321
2278.13	1.22262
2278.36	6.03341
2278.6	2.19537
2278.83	3.1566
2279.07	6.03714
2279.3	2.19309
2279.54	6.03171
2279.78	6.98526
2280.01	2.17108
2280.24	6.00017
2280.48	3.11305
2280.72	5.02357
2280.95	6.93442
2281.19	3.09391
2281.42	2.13147
2281.66	0.209951
2281.89	3.08179
2282.13	3.08377
2282.36	3.08471
2282.6	3.08763
2282.83	7.88685
2283.07	5.01589
2283.3	3.10284
2283.54	3.10971
2283.77	6.96003
2284.01	4.0921
2284.24	6.02514
2284.48	4.11572
2284.71	6.04586
2284.95	-1.64602
2285.19	3.16857
2285.42	3.17388
2285.65	4.13745
2285.89	2.21263
2286.12	7.97917
2286.36	2.19504
2286.59	4.11693
2286.83	4.11823
2287.06	2.198
2287.3	5.09718
2287.54	4.14509
2287.77	-0.666666
2288	4.15096
2288.24	4.15804
2288.47	6.08195
2288.71	2.22367
2288.94	5.1082
2289.18	7.02797
2289.41	7.01765
2289.65	6.04288
2289.88	5.06973
2290.12	6.97989
2290.35	6.97476
2290.59	5.04827
2290.82	3.12504
2291.06	6.0091
2291.29	5.05147
2291.53	0.249783
2291.76	2.18165
2292	2.18712
2292.23	3.15371
2292.47	2.19525
2292.7	6.05137
2292.94	3.16875
2293.17	8.95445
2293.41	1.2517
2293.64	3.18239
2293.88	8.00395
2294.11	3.18615
2294.34	1.25602
2294.58	5.10719
2294.81	3.17511
2295.05	6.05947
2295.28	3.16504
2295.52	3.1608
2295.75	3.15644
2295.99	5.07787
2296.22	6.03669
2296.46	4.10418
2296.69	3.13
2296.93	5.05224
2297.16	5.0544
2297.39	3.13371
2297.63	3.13854
2297.86	5.06995
2298.1	4.11507
2298.33	3.16128
2298.57	2.20358
2298.8	1.24347
2299.04	7.03171
2299.27	3.1831
2299.51	6.08201
2299.74	6.08729
2299.97	3.19623
2300.21	4.16029
2300.44	3.19565
2300.68	4.15947
2300.91	5.12747
2301.15	8.99219
2301.38	1.27599
2301.61	9.96541
2301.85	7.07203
2302.08	3.2116
2302.32	3.21068
2302.55	3.20815
2302.79	8.0318
2303.02	1.27663
2303.25	7.06678
2303.49	3.20474
2303.72	1.27419
2303.96	7.06526
2304.19	8.03365
2304.43	0.31642
2304.66	5.14808
2304.89	2.2546
2305.13	6.12174
2305.36	2.2638
2305.6	2.26698
2305.83	7.09925
2306.07	1.3046
2306.3	-0.624678
2306.53	2.27793
2306.77	0.346214
2307	4.21321
2307.24	5.17962
2307.47	8.07852
2307.7	0.344133
2307.94	-0.625092
2308.17	1.30591
2308.41	3.23617
2308.64	2.26802
2308.87	4.20051
2309.11	4.20216
2309.34	8.07212
2309.58	1.3126
2309.81	1.31942
2310.04	3.26206
2310.28	7.13754
2310.51	7.14105
2310.75	3.27275
2310.98	0.370197
2311.21	3.26984
2311.45	7.13208
2311.68	4.21488
2311.92	3.23092
2312.15	2.25602
2312.38	4.18035
2312.62	6.10699
2312.85	5.13708
2313.08	6.09861
2313.32	1.27431
2313.55	5.13785
2313.79	5.14747
2314.02	0.331175
2314.25	4.20301
2314.49	8.0772
2314.72	7.12125
2314.95	5.19989
2315.19	0.374161
2315.42	2.31398
2315.66	4.24194
2315.89	7.13631
2316.12	2.2967
2316.36	5.18971
2316.59	6.14016
2316.82	2.26922
2317.06	1.30052
2317.29	5.16294
2317.52	9.02777
2317.76	7.09907
2317.99	7.1083
2318.23	3.2502
2318.46	6.13895
2318.69	4.20333
2318.93	6.13136
2319.16	5.16193
2319.39	5.15776
2319.63	6.11926
2319.86	4.18675
2320.09	7.08023
2320.33	2.25659
2320.56	9.01288
2320.79	4.18875
2321.03	9.98272
2321.26	8.0584
2321.5	9.03014
2321.73	8.07181
2321.96	8.07984
2322.2	7.124
2322.43	10.034
2322.66	8.11072
2322.9	9.08173
2323.13	7.14776
2323.36	10.0504
2323.6	11.0208
2323.83	11.0239
2324.06	12.9613
2324.3	12.9636
2324.53	11.0291
2324.76	9.09461
2325	14.8875
2325.23	16.8091
2325.46	20.6595
2325.7	25.4791
2325.93	27.4016
2326.16	29.3233
2326.4	38.9658
2326.63	45.7086
2326.86	50.5187
2327.09	66.9023
2327.33	94.8517
2327.56	119.895
2327.79	183.504
2328.03	255.763
2328.26	334.765
2328.49	345.387
2328.73	323.224
2328.96	262.51
2329.19	178.612
2329.43	135.216
2329.66	89.9015
2329.89	68.7023
2330.13	52.3262
2330.36	46.5582
2330.59	35.9592
2330.82	30.1767
2331.06	25.3576
2331.29	16.69
2331.52	19.5832
2331.76	8.03224
2331.99	9.9656
2332.22	5.15694
2332.46	6.1133
2332.69	9.96108
2332.92	10.9203
2333.16	8.99072
2333.39	8.02462
2333.62	4.17099
2333.85	5.13152
2334.09	9.94226
2334.32	8.97629
2334.55	8.97181
2334.79	5.11649
2335.02	4.15137
2335.25	8.95805
2335.48	7.0347
2335.72	7.03407
2335.95	7.99811
2336.18	4.15461
2336.41	8.00165
2336.65	4.15293
2336.88	6.07532
2337.11	7.99813
2337.34	7.99801
2337.58	3.19036
2337.81	6.0745
2338.04	3.18909
2338.28	7.03328
2338.51	7.03296
2338.74	7.03255
2338.97	7.03272
2339.21	4.15145
2339.44	8.9593
2339.67	6.07664
2339.91	3.19323
2340.14	7.99761
2340.37	5.11169
2340.6	3.18609
2340.84	2.22174
2341.07	5.09821
2341.3	2.21042
2341.53	2.20288
2341.77	0.274731
2342	4.10559
2342.23	2.18326
2342.46	7.93329
2342.7	1.21796
2342.93	7.92672
2343.16	6.00853
2343.39	5.05031
2343.63	7.92741
2343.86	5.05116
2344.09	6.96795
2344.32	4.09368
2344.56	4.09656
2344.79	6.01579
2345.02	6.01581
2345.25	3.13898
2345.49	3.13693
2345.72	6.96661
2345.95	10.7916
2346.18	5.99639
2346.41	3.11831
2346.65	3.1171
2346.88	4.07395
2347.11	5.03086
2347.34	5.9865
2347.58	1.1978
2347.81	4.07017
2348.04	3.1141
2348.27	3.11651
2348.5	4.0781
2348.74	5.99641
2348.97	7.9123
2349.2	2.16432
2349.43	3.11792
2349.67	8.84902
2349.9	3.09558
2350.13	5.95074
2350.36	6.88874
2350.59	1.13715
2350.83	4.91897
2351.06	5.80887
2351.29	3.95098
2351.52	2.13577
2351.75	4.07846
2351.99	7.84237
2352.22	6.85232
2352.45	3.99207
2352.68	5.90508
2352.91	5.88685
2353.15	3.9532
2353.38	4.88584
2353.61	1.08271
2353.84	1.08062
2354.07	2.98076
2354.31	4.88618
2354.54	3.93271
2354.77	2.03446
2355	1.08787
2355.23	2.99283
2355.47	3.94385
2355.7	4.89401
2355.93	2.98583
2356.16	5.84013
2356.39	5.83472
2356.63	3.92067
2356.86	4.85863
2357.09	0.0909481
2357.32	2.93885
2357.55	2.93382
2357.79	2.92896
2358.02	5.77637
2358.25	1.96974
2358.48	4.81763
2358.71	3.86451
2358.94	4.80798
2359.18	5.75444
2359.41	2.90182
2359.64	4.79938
2359.87	5.74493
2360.1	5.739
2360.33	3.83286
2360.57	5.72389
2360.8	5.71605
2361.03	2.86185
2361.26	4.75157
2361.49	4.74344
2361.72	2.83899
2361.96	-0.0125198
2362.19	4.718
2362.42	4.70863
2362.65	4.69968
2362.88	1.85118
2363.11	1.84453
2363.34	3.73148
2363.58	6.56483
2363.81	2.77462
2364.04	5.60856
2364.27	2.76527
2364.5	7.4893
2364.73	7.48282
2364.97	-0.0887623
