#Acq. time (s)=	60
#Accumulations=	2
#Range (cm-¹)=	100...4000
#Windows=	1
#Auto scanning=	Off
#Autofocus=	Off
#Macrospot=	Off
#AutoExposure=	Off
#Spike filter=	Multiple accum.
#Delay time (s)=	2
#Binning=	1
#Readout mode=	Signal
#DeNoise=	Off
#ICS correction=	On
#Dark correction=	Off
#Inst. Process=	Off
#Detector Gain=	Best Dynamic
#Detector ADC=	50 kHz HS
#Detector temperature (°C)=	-60.09
#Instrument=	LabRAM HR Evol
#Detector=	SIN-EM FIVIS
#Objective=	x100_VIS
#Grating=	150 (500nm)
#ND Filter=	100%
#Laser=	633nm_Edge
#Hole=	49.98
#Temperature=	0
#Range=	Visible
#StageXY=	75x50mm Scan+
#StageZ=	Z motor
#X (µm)=	0
#Y (µm)=	0
#Z (µm)=	-270.7
#Full time(mm:ss)=	2:04
#Project=	21_11_04
#Sample=	BU19w
#Site=	
#Title=	BU19w-E-FF11-FI09-V_150 (500nm)_633nm_Edge_100%_x100_VIS_H50um_60sX2
#Remark=	
#Date=	04.11.2021 16:10
#Acquired=	04.11.2021 16:10:44
#Base:Fit=	16.12.2021 17:39:50
#Base:Edit=	16.12.2021 17:52:00
#Base:Edit=	16.12.2021 17:52:02
#Base:Edit=	16.12.2021 17:52:02
#Base:Edit=	16.12.2021 17:52:03
#Base:Edit=	16.12.2021 17:52:04
#Base:Edit=	16.12.2021 17:52:05
#Base:Edit=	16.12.2021 17:52:05
#Base:Edit=	16.12.2021 17:52:08
#Base:Sub=	16.12.2021 17:52:10
102.881	153.829
106.139	135.757
109.397	125.386
112.653	113.162
115.908	95.2556
119.161	97.4431
122.414	100.657
125.664	91.4932
128.914	81.4299
132.162	95.3192
135.409	96.8164
138.654	79.2065
141.898	84.6164
145.14	83.4001
148.383	68.8297
151.622	78.2486
154.861	103.062
158.098	116.443
161.335	127.968
164.569	91.6303
167.801	61.0515
171.034	40.0763
174.264	28.709
177.494	30.7796
180.721	11.793
183.949	19.6476
187.173	7.41461
190.396	11.4729
193.62	12.692
196.84	-0.368759
200.061	5.73276
203.279	5.23485
206.496	13.3517
209.712	0.492607
212.926	3.88512
216.139	13.9858
219.352	46.0365
222.562	52.352
225.772	101.542
228.979	151.58
232.185	156.878
235.392	121.337
238.595	79.2112
241.797	54.2543
244.999	38.893
248.199	33.9973
251.397	34.8013
254.595	31.8205
257.791	42.1601
260.985	44.9324
264.178	49.623
267.371	46.7511
270.561	46.7532
273.75	58.1593
276.939	62.0001
280.125	62.0482
283.31	56.4046
286.494	38.4459
289.678	31.8682
292.859	30.0285
296.039	19.6832
299.217	15.0398
302.396	31.2191
305.572	30.368
308.746	50.3246
311.919	99.5627
315.093	168.603
318.263	225.331
321.433	275.491
324.601	253.963
327.768	187.163
330.935	109.093
334.099	74.4285
337.262	53.9196
340.423	42.8542
343.584	45.9388
346.743	48.0681
349.902	56.803
353.058	48.5619
356.213	68.5707
359.367	68.7931
362.52	56.7832
365.671	45.7274
368.821	33.7502
371.971	18.9738
375.119	10.7805
378.265	5.42065
381.41	4.76002
384.553	5.06824
387.696	-0.20118
390.837	14.2605
393.976	-0.333862
397.116	8.56026
400.253	7.17425
403.389	0.120674
406.524	11.9023
409.657	8.61066
412.789	12.8491
415.92	20.8439
419.05	25.0843
422.178	38.7519
425.305	40.0525
428.431	63.9204
431.555	69.7563
434.678	68.034
437.8	55.9448
440.921	63.6418
444.04	64.732
447.158	70.4907
450.275	73.4053
453.391	81.9406
456.505	74.5952
459.618	51.4369
462.73	45.1502
465.84	27.7293
468.949	28.0299
472.057	27.4218
475.164	25.9142
478.27	20.6998
481.374	21.9956
484.477	24.217
487.579	25.5064
490.679	23.0708
493.778	21.573
496.876	34.9784
499.973	43.7306
503.068	27.3267
506.162	60.3412
509.255	60.7233
512.346	63.9187
515.436	56.8501
518.525	52.6019
521.613	62.4005
524.7	60.9983
527.785	55.8654
530.869	70.4405
533.952	47.506
537.033	48.0196
540.113	40.0241
543.192	34.8124
546.27	37.1081
549.347	19.5307
552.423	33.1008
555.497	34.3943
558.568	25.2411
561.64	22.6406
564.711	15.3064
567.78	20.2028
570.848	17.5314
573.915	14.8426
576.979	16.8313
580.043	22.5596
583.107	20.8171
586.169	25.6254
589.228	48.1693
592.287	41.8235
595.345	56.9311
598.402	56.2413
601.458	54.6978
604.511	55.9925
607.565	58.2282
610.617	52.0818
613.667	61.8368
616.716	53.8683
619.764	60.8835
622.811	52.9059
625.856	43.9805
628.9	34.01
631.944	18.3015
634.986	23.2815
638.026	25.3829
641.066	30.2715
644.104	37.9204
647.14	44.6362
650.177	38.1743
653.211	39.1907
656.244	27.0509
659.276	20.5611
662.308	30.9205
665.336	14.1709
668.365	11.4594
671.393	11.5947
674.418	6.21424
677.443	3.62
680.467	3.81144
683.489	-1.5649
686.511	0.534874
689.53	1.72787
692.549	0.134232
695.567	3.21842
698.582	1.61745
701.598	6.57367
704.611	3.07781
707.624	8.01943
710.635	0.715622
713.646	10.2574
716.655	4.75801
719.662	6.77373
722.669	0.344902
725.674	3.28091
728.679	3.37174
731.681	11.8913
734.683	2.60399
737.683	3.62028
740.683	10.2443
743.681	0.984016
746.678	0.146393
749.673	-1.61977
752.669	2.23341
755.661	6.08065
758.654	9.9701
761.645	11.1098
764.635	2.00718
767.623	12.5428
770.611	9.99185
773.597	13.0641
776.582	15.1911
779.565	16.3595
782.549	9.97693
785.53	4.50841
788.511	10.3333
791.489	14.2652
794.466	-2.56806
797.444	9.81696
800.419	8.97348
803.394	5.28616
806.366	7.24132
809.339	18.6061
812.309	11.1158
815.278	12.082
818.247	3.64613
821.214	8.35168
824.18	13.0399
827.145	6.48769
830.108	13.0556
833.072	8.46091
836.033	16.0422
838.992	17.119
841.952	8.88772
844.909	18.4194
847.865	12.9771
850.822	6.59882
853.776	15.2426
856.728	22.9736
859.681	19.4273
862.631	17.758
865.58	25.5287
868.528	21.0221
871.476	29.7385
874.422	37.488
877.366	33.8388
880.311	37.7641
883.253	36.9306
886.194	35.1246
889.134	38.043
892.074	37.1489
895.012	39.0881
897.948	39.0912
900.883	36.2113
903.818	34.2677
906.751	32.3265
909.683	36.9798
912.614	30.3199
915.543	35.9105
918.473	47.1768
921.4	50.0048
924.326	44.4238
927.251	45.4469
930.174	56.8716
933.098	59.8407
936.019	63.8245
938.94	75.4358
941.859	92.7762
944.777	95.0375
947.693	109.665
950.61	116.746
953.525	125.734
956.438	118.508
959.35	119.813
962.261	123.003
965.171	126.146
968.08	126.408
970.988	157.322
973.894	176.694
976.801	219.022
979.705	238.169
982.608	251.468
985.51	251.289
988.411	230.975
991.311	189.632
994.209	183.712
997.107	142.487
1000	145.252
1002.9	127.055
1005.79	133.702
1008.68	146.115
1011.58	153.876
1014.47	165.493
1017.36	195.236
1020.25	175.379
1023.13	171.823
1026.02	148.23
1028.9	132.265
1031.79	104.755
1034.67	89.6829
1037.55	76.5076
1040.43	90.2739
1043.31	82.8442
1046.19	83.1356
1049.07	76.6081
1051.94	72.9394
1054.82	58.5752
1057.69	57.7507
1060.56	58.8341
1063.44	47.257
1066.31	62.823
1069.17	48.2782
1072.04	57.0462
1074.91	53.1758
1077.77	67.7282
1080.64	86.1369
1083.5	95.802
1086.37	109.335
1089.23	132.578
1092.09	163.552
1094.95	174.177
1097.8	178.005
1100.66	144.104
1103.52	120.892
1106.37	101.651
1109.22	92.0326
1112.08	81.5199
1114.93	82.756
1117.78	67.5103
1120.63	75.5244
1123.48	65.0104
1126.32	73.9664
1129.17	76.1355
1132.01	91.0165
1134.86	97.1278
1137.7	118.922
1140.54	130.975
1143.38	145.962
1146.22	171.707
1149.06	197.513
1151.89	183.91
1154.73	146.574
1157.56	100.309
1160.4	69.7672
1163.23	55.9086
1166.06	49.9293
1168.89	45.9285
1171.72	46.8323
1174.55	34.0163
1177.38	37.8528
1180.2	28.9925
1183.03	26.0241
1185.85	14.3082
1188.67	30.9391
1191.49	12.4194
1194.31	12.4908
1197.13	16.481
1199.95	16.5942
1202.77	8.90254
1205.58	10.0344
1208.4	17.0894
1211.21	10.3681
1214.02	4.62341
1216.84	7.77451
1219.65	3.00884
1222.46	5.18723
1225.27	13.3579
1228.07	6.57098
1230.88	11.76
1233.68	14.9465
1236.49	10.0861
1239.29	-1.85991
1242.09	7.30929
1244.89	14.4575
1247.69	11.4969
1250.49	13.5587
1253.29	17.6388
1256.08	15.6264
1258.88	9.55094
1261.67	17.588
1264.47	15.5278
1267.26	9.44273
1270.05	21.4803
1272.84	73.7176
1275.63	120.814
1278.42	62.3951
1281.2	21.1547
1283.99	15.0719
1286.77	12.0138
1289.56	16.972
1292.34	16.9383
1295.12	11.9276
1297.9	9.92912
1300.68	9.9359
1303.46	11.9666
1306.23	3.01999
1309.01	4.09316
1311.78	9.2113
1314.56	15.3581
1317.33	10.4626
1320.1	9.58885
1322.87	-1.37511
1325.64	8.86839
1328.41	2.93865
1331.18	9.17181
1333.94	11.3431
1336.71	10.4566
1339.47	7.51546
1342.24	0.452232
1345	5.63807
1347.76	6.72949
1350.52	4.74242
1353.28	9.92706
1356.04	3.81136
1358.79	6.92255
1361.55	14.134
1364.3	7.96941
1367.06	11.0394
1369.81	8.96369
1372.56	13.0486
1375.31	47.9493
1378.06	186.56
1380.81	161.851
1383.56	42.7095
1386.3	14.9616
1389.05	7.74686
1391.79	3.62721
1394.53	17.9914
1397.28	10.8515
1400.02	28.3624
1402.76	10.9261
1405.5	8.90936
1408.23	6.89461
1410.97	9.00524
1413.71	15.2546
1416.44	11.1927
1419.17	14.3616
1421.91	9.25681
1424.64	9.33027
1427.37	11.4785
1430.1	11.5567
1432.83	9.54922
1435.55	-1.84636
1438.28	7.60065
1441.01	7.65869
1443.73	12.9601
1446.45	13.0255
1449.17	3.63192
1451.89	4.69646
1454.62	5.75083
1457.33	10.9903
1460.05	8.86919
1462.77	8.83708
1465.48	17.1962
1468.2	-1.74755
1470.91	5.55624
1473.63	4.46474
1476.34	8.62938
1479.05	13.8561
1481.76	5.43498
1484.47	1.21698
1487.17	9.61371
1489.88	2.25667
1492.59	8.57681
1495.29	11.7597
1497.99	10.7338
1500.7	-0.83596
1503.4	10.8106
1506.1	10.8573
1508.8	10.9155
1511.5	12.0367
1514.19	9.98452
1516.89	-1.64089
1519.59	10.1395
1522.28	8.08537
1524.97	8.17005
1527.67	-0.319572
1530.36	2.96729
1533.05	10.5771
1535.74	11.7395
1538.42	10.7207
1541.11	11.8536
1543.8	6.47536
1546.48	10.7861
1549.16	5.33566
1551.85	8.51378
1554.53	8.41557
1557.21	1.82021
1559.89	9.28107
1562.57	13.5019
1565.25	3.69241
1567.93	7.90546
1570.6	9.9572
1573.28	12.0081
1575.95	9.75939
1578.62	8.61266
1581.29	3.16667
1583.97	9.56622
1586.64	13.8196
1589.3	8.38757
1591.97	6.19327
1594.64	9.39551
1597.3	14.7701
1599.97	1.80547
1602.63	11.5188
1605.3	8.28271
1607.96	8.30418
1610.62	11.593
1613.28	5.1363
1615.94	6.28455
1618.59	12.8954
1621.25	4.2416
1623.91	7.58852
1626.56	12.0422
1629.21	7.72411
1631.87	18.7888
1634.52	8.93
1637.17	10.0587
1639.82	5.60908
1642.47	13.3142
1645.12	7.7717
1647.76	8.85107
1650.41	14.352
1653.05	15.4221
1655.7	12.0461
1658.34	14.1983
1660.98	13.0178
1663.62	11.8346
1666.26	13.9706
1668.9	6.12229
1671.54	12.6894
1674.18	4.83767
1676.81	10.2832
1679.45	11.2982
1682.08	15.6201
1684.71	14.3818
1687.34	16.4656
1689.98	10.8046
1692.61	7.37285
1695.23	9.494
1697.86	11.6421
1700.49	14.9468
1703.12	8.40848
1705.74	17.4171
1708.36	10.8185
1710.99	15.1142
1713.61	16.0948
1716.23	1.56284
1718.85	12.7689
1721.47	10.5275
1724.09	12.7198
1726.7	7.0983
1729.32	9.32529
1731.94	13.8017
1734.55	9.29034
1737.16	11.5178
1739.77	12.6223
1742.39	13.728
1745	14.8357
1747.61	3.50811
1750.21	10.2373
1752.82	5.65829
1755.43	15.7776
1758.03	10.0407
1760.64	6.55121
1763.24	4.19138
1765.84	6.36482
1768.44	14.2073
1771.05	8.45885
1773.64	17.4448
1776.24	15.1076
1778.84	13.917
1781.44	19.5497
1784.03	13.8318
1786.63	9.24855
1789.22	5.81165
1791.81	5.78879
1794.41	17.1809
1797	6.89325
1799.59	13.7563
1802.18	9.18076
1804.76	6.88972
1807.35	12.6256
1809.94	10.3073
1812.52	18.3429
1815.11	4.49589
1817.69	13.7001
1820.27	3.28051
1822.85	10.1897
1825.43	13.6432
1828.01	7.8329
1830.59	10.1372
1833.17	7.79775
1835.74	8.95281
1838.32	11.2554
1840.89	14.7159
1843.47	12.3442
1846.04	9.9642
1848.61	8.74337
1851.18	11.032
1853.75	0.423592
1856.32	9.72731
1858.89	10.8498
1861.45	6.11948
1864.02	8.42547
1866.58	11.9248
1869.15	9.53481
1871.71	7.12479
1874.27	2.34235
1876.83	12.8859
1879.39	8.09324
1881.95	16.2859
1884.51	7.93537
1887.07	14.9423
1889.63	5.37479
1892.18	8.79667
1894.74	15.7631
1897.29	6.18695
1899.84	9.63418
1902.39	13.1209
1904.94	3.60284
1907.49	11.8574
1910.04	-2.40375
1912.59	1.15491
1915.14	3.54883
1917.68	8.32052
1920.23	16.5811
1922.77	20.1034
1925.32	2.13709
1927.86	9.26847
1930.4	6.8288
1932.94	16.3733
1935.48	15.1262
1938.02	12.6684
1940.56	8.99645
1943.09	2.90666
1945.63	4.0226
1948.16	6.3395
1950.7	1.41927
1953.23	21.7853
1955.76	8.41724
1958.29	3.47567
1960.82	16.6077
1963.35	6.83582
1965.88	11.5224
1968.41	1.73164
1970.93	10.0076
1973.46	17.0704
1975.98	9.68147
1978.51	21.5576
1981.03	14.1689
1983.55	7.98904
1986.07	13.8434
1988.59	10.0784
1991.11	7.51925
1993.63	4.96444
1996.15	6.0211
1998.66	9.48888
2001.18	16.5692
2003.69	4.42172
2006.2	7.91508
2008.72	6.6021
2011.23	10.113
2013.74	13.6253
2016.25	-0.92617
2018.76	3.77702
2021.27	15.7182
2023.77	16.8363
2026.28	21.587
2028.78	8.24296
2031.29	-0.275078
2033.79	19.0221
2036.29	14.1412
2038.79	5.61684
2041.3	12.8491
2043.79	6.74172
2046.29	20.0771
2048.79	15.19
2051.29	16.3807
2053.78	13.8731
2056.28	15.0506
2058.77	7.69557
2061.27	5.21673
2063.76	10.0793
2066.25	10.053
2068.74	3.88304
2071.23	12.4395
2073.72	11.1776
2076.21	11.1389
2078.69	11.096
2081.18	14.7482
2083.66	15.9278
2086.15	10.9221
2088.63	9.60664
2091.11	8.30915
2093.59	0.83326
2096.07	15.6709
2098.55	6.96472
2101.03	18.1224
2103.51	14.3858
2105.99	11.8915
2108.46	10.6445
2110.94	8.15154
2113.41	21.9257
2115.89	14.4424
2118.36	14.4662
2120.83	13.2309
2123.3	13.247
2125.77	4.43443
2128.24	6.95419
2130.71	10.7386
2133.17	11.9936
2135.64	4.37313
2138.11	10.6859
2140.57	1.76625
2143.03	19.5287
2145.49	10.5878
2147.96	24.5497
2150.42	11.7448
2152.88	16.7744
2155.34	10.3129
2157.79	12.7761
2160.25	15.2324
2162.71	3.62107
2165.16	9.88905
2167.62	17.4279
2170.07	9.63372
2172.52	6.97001
2174.97	6.86562
2177.43	15.7143
2179.88	6.62046
2182.32	7.76006
2184.77	14.0035
2187.22	22.818
2189.67	13.7262
2192.11	12.3276
2194.56	10.9327
2197	14.6806
2199.44	14.6018
2201.89	9.40307
2204.33	13.1966
2206.77	13.1505
2209.21	13.1162
2211.64	9.22759
2214.08	10.4905
2216.52	15.641
2218.95	7.88526
2221.39	5.28822
2223.82	11.7553
2226.26	3.96654
2228.69	7.85028
2231.12	9.14232
2233.55	5.22813
2235.98	10.4321
2238.41	10.4262
2240.84	11.7255
2243.26	5.17796
2245.69	10.412
2248.12	2.53462
2250.54	7.77551
2252.96	3.81602
2255.39	11.7027
2257.81	13.0241
2260.23	9.06404
2262.65	15.6618
2265.07	9.02238
2267.49	12.9576
2269.9	0.974739
2272.32	11.5228
2274.74	-3.15562
2277.15	4.72943
2279.57	11.283
2281.98	7.1873
2284.39	12.3855
2286.8	8.26199
2289.21	10.7941
2291.62	17.3154
2294.03	17.1823
2296.44	13.0664
2298.84	15.6255
2301.25	11.5338
2303.66	7.45496
2306.06	15.3953
2308.46	14.0185
2310.87	7.31026
2313.27	-2.08066
2315.67	12.6266
2318.07	12.6314
2320.47	26.0612
2322.87	24.7319
2325.26	18.0288
2327.66	9.96229
2330.06	9.97588
2332.45	8.65082
2334.85	16.8036
2337.24	16.8492
2339.63	8.74689
2342.02	7.43252
2344.41	3.39323
2346.8	15.7451
2349.19	14.4452
2351.58	11.7682
2353.97	7.69642
2356.35	3.58908
2358.74	4.96738
2361.12	7.67907
2363.51	14.5466
2365.89	11.774
2368.27	15.903
2370.65	10.3523
2373.03	2.01631
2375.41	19.999
2377.79	7.49271
2380.17	17.1564
2382.55	4.58939
2384.92	14.2307
2387.3	9.96606
2389.67	18.2085
2392.05	9.73617
2394.42	13.7838
2396.79	9.46192
2399.16	3.74503
2401.53	11.9512
2403.9	11.7901
2406.27	8.84773
2408.64	12.8973
2411.01	14.2264
2413.37	7.24043
2415.74	17.0955
2418.1	15.9147
2420.47	16.0357
2422.83	14.623
2425.19	11.7316
2427.55	8.9007
2429.91	8.90543
2432.27	8.91827
2434.63	8.94492
2436.99	20.3079
2439.34	6.18243
2441.7	4.79037
2444.05	14.77
2446.41	6.26751
2448.76	10.5777
2451.11	10.6161
2453.47	20.6608
2455.82	6.37954
2458.17	9.27635
2460.51	7.86847
2462.86	12.2136
2465.21	5.03852
2467.56	15.1518
2469.9	16.6176
2472.25	2.1674
2474.59	2.16701
2476.94	16.677
2479.28	9.43983
2481.62	7.99162
2483.96	5.07649
2486.3	12.3403
2488.64	21.0767
2490.98	12.3039
2493.32	13.7452
2495.65	21.0529
2497.99	1.99912
2500.32	3.42946
2502.66	9.26093
2504.99	16.5658
2507.32	13.5852
2509.66	-2.64899
2511.99	16.4185
2514.32	14.8802
2516.65	14.8117
2518.98	14.7582
2521.3	10.2879
2523.63	19.106
2525.96	13.1429
2528.28	16.0524
2530.61	11.5617
2532.93	1.14919
2535.25	11.4952
2537.57	5.53203
2539.89	17.399
2542.22	5.48438
2544.53	5.46343
2546.85	15.8932
2549.17	18.8769
2551.49	15.8904
2553.8	23.3678
2556.12	18.8603
2558.43	14.3354
2560.75	3.82332
2563.06	17.3276
2565.37	11.3305
2567.68	9.83826
2569.99	15.8906
2572.3	11.3909
2574.61	23.5027
2576.92	8.38944
2579.23	3.83379
2581.53	22.0045
2583.84	18.9231
2586.14	20.3832
2588.45	12.713
2590.75	1.95725
2593.05	7.952
2595.35	12.453
2597.66	18.5088
2599.96	6.26939
2602.26	9.25423
2604.55	15.2891
2606.85	30.4878
2609.15	16.6728
2611.44	5.87446
2613.74	4.24433
2616.03	16.3804
2618.33	4.05303
2620.62	10.0801
2622.91	20.7137
2625.2	12.978
2627.49	5.2397
2629.78	14.4014
2632.07	17.4664
2634.36	0.561935
2636.64	14.446
2638.93	11.4333
2641.22	16.1286
2643.5	20.8462
2645.78	24.0416
2648.07	25.6761
2650.35	11.7631
2652.63	10.2721
2654.91	21.189
2657.19	24.2942
2659.47	22.7099
2661.75	17.9858
2664.03	14.8037
2666.3	27.2547
2668.58	25.6651
2670.85	16.2449
2673.13	3.70894
2675.4	10.0476
2677.67	16.4901
2679.95	8.82004
2682.22	13.7401
2684.49	23.4313
2686.76	12.4943
2689.03	6.28168
2691.29	14.3789
2693.56	14.4969
2695.83	11.2486
2698.09	14.4406
2700.36	25.6848
2702.62	8.02896
2704.89	32.1282
2707.15	22.4761
2709.41	7.96443
2711.67	11.1562
2713.93	9.52367
2716.19	3.08246
2718.45	15.9997
2720.7	12.7558
2722.96	14.3553
2725.22	9.44542
2727.47	27.2347
2729.73	14.1884
2731.98	15.7168
2734.23	10.7618
2736.49	15.5404
2738.74	13.8104
2740.99	13.7407
2743.24	16.9352
2745.49	15.2618
2747.73	16.8613
2749.98	15.2275
2752.23	5.51579
2754.47	15.3735
2756.72	5.55225
2758.96	21.9194
2761.21	13.6733
2763.45	12.0087
2765.69	3.78683
2767.93	8.71936
2770.17	16.9293
2772.41	16.9349
2774.65	12.0131
2776.89	15.3657
2779.13	0.533432
2781.36	15.5341
2783.6	13.9792
2785.84	10.7615
2788.07	9.19403
2790.3	5.94609
2792.54	26.0785
2794.77	9.44203
2797	17.8732
2799.23	6.18413
2801.46	4.53262
2803.69	11.2752
2805.92	18.0206
2808.14	11.287
2810.37	23.0928
2812.59	12.9613
2814.82	18.0003
2817.04	19.6628
2819.27	6.10172
2821.49	7.7679
2823.71	0.968216
2825.93	4.33907
2828.15	-0.780746
2830.37	7.68143
2832.59	14.451
2834.81	9.31059
2837.03	4.16631
2839.24	5.83345
2841.46	19.443
2843.67	4.06396
2845.89	16.0101
2848.1	22.851
2850.31	19.4487
2852.53	14.3491
2854.74	24.6952
2856.95	21.3306
2859.16	12.7929
2861.37	19.7498
2863.57	7.77428
2865.78	9.59793
2867.99	7.96886
2870.19	23.6585
2872.4	1.21477
2874.6	18.6812
2876.81	24.0221
2879.01	13.6976
2881.21	20.8156
2883.41	3.47244
2885.61	12.3691
2887.81	14.2631
2890.01	12.6377
2892.21	9.23964
2894.41	9.35817
2896.6	20.1153
2898.8	9.66347
2901	2.71117
2903.19	17.0356
2905.38	24.2718
2907.58	24.3938
2909.77	24.5081
2911.96	15.6413
2914.15	19.2711
2916.34	22.9034
2918.53	12.2142
2920.72	1.50616
2922.91	14.1497
2925.09	14.2403
2927.28	12.5411
2929.47	5.42293
2931.65	16.3758
2933.83	12.8423
2936.02	18.3444
2938.2	7.49944
2940.38	14.7843
2942.56	18.452
2944.74	11.1945
2946.92	11.1812
2949.1	25.7505
2951.28	3.87354
2953.46	-1.61179
2955.63	0.199112
2957.81	20.2867
2959.98	23.947
2962.16	3.82613
2964.33	-1.66745
2966.5	16.6756
2968.68	18.5425
2970.85	13.0702
2973.02	11.2684
2975.19	11.3047
2977.36	20.5503
2979.52	22.4391
2981.69	7.73912
2983.86	18.8953
2986.03	4.19104
2988.19	20.9512
2990.36	15.5063
2992.52	8.2012
2994.68	25.0509
2996.85	19.6119
2999.01	19.7655
3001.17	31.1414
3003.33	16.3606
3005.49	16.5377
3007.65	16.7111
3009.8	20.6423
3011.96	13.2523
3014.12	30.4029
3016.27	26.8347
3018.43	17.5844
3020.58	21.5824
3022.74	23.6752
3024.89	12.4232
3027.04	20.1741
3029.19	14.5708
3031.34	29.965
3033.49	24.3268
3035.64	20.5708
3037.79	35.9488
3039.94	18.7979
3042.09	41.9301
3044.23	30.4795
3046.38	30.5473
3048.52	22.9088
3050.67	22.9657
3052.81	40.385
3054.95	34.678
3057.09	21.2335
3059.24	29.037
3061.38	25.2361
3063.51	33.0564
3065.65	31.1953
3067.79	46.8006
3069.93	23.575
3072.07	41.1475
3074.2	41.2411
3076.34	31.598
3078.47	37.5402
3080.61	49.3473
3082.74	37.7325
3084.87	59.3769
3087	38.0055
3089.14	34.2566
3091.27	20.7017
3093.39	34.6535
3095.52	32.9151
3097.65	43.0088
3099.78	45.2283
3101.91	35.5926
3104.03	41.8055
3106.16	44.0825
3108.28	44.3842
3110.41	46.6955
3112.53	39.0337
3114.65	51.3488
3116.77	51.6845
3118.89	66.0915
3121.01	50.3705
3123.13	58.8146
3125.25	36.9642
3127.37	63.6906
3129.49	47.881
3131.61	62.578
3133.72	56.9188
3135.84	53.2741
3137.95	61.9125
3140.06	52.0582
3142.18	38.0198
3144.29	73.4746
3146.4	61.4548
3148.51	49.3816
3150.62	58.002
3152.73	58.2812
3154.84	62.7205
3156.95	58.8156
3159.06	88.3373
3161.16	59.3479
3163.27	57.5244
3165.37	76.6635
3167.48	76.9218
3169.58	64.5377
3171.69	79.5751
3173.79	58.7342
3175.89	90.6013
3177.99	73.8666
3180.09	67.6615
3182.19	76.2528
3184.29	65.773
3186.39	65.8734
3188.49	82.8949
3190.58	78.7762
3192.68	74.6857
3194.77	66.3479
3196.87	70.8156
3198.96	64.7056
3201.06	77.8868
3203.15	71.8468
3205.24	85.0874
3207.33	81.2452
3209.42	68.7788
3211.51	64.894
3213.6	63.1683
3215.69	72.2849
3217.78	72.7437
3219.86	64.4772
3221.95	56.1797
3224.04	60.9442
3226.12	65.7382
3228.2	55.1992
3230.29	70.9545
3232.37	49.3807
3234.45	58.5413
3236.53	58.8974
3238.61	76.9788
3240.7	46.4004
3242.77	64.567
3244.85	58.3788
3246.93	56.5471
3249.01	48.0004
3251.08	57.2456
3253.16	68.7453
3255.23	37.5865
3257.31	51.2771
3259.38	44.8493
3261.46	47.428
3263.53	41.011
3265.6	54.9813
3267.67	53.3536
3269.74	53.687
3271.81	51.9229
3273.88	56.828
3275.95	36.4721
3278.02	52.6837
3280.08	48.3202
3282.15	41.6573
3284.21	51.0383
3286.28	46.6599
3288.34	56.0586
3290.41	37.8633
3292.47	61.0733
3294.53	35.921
3296.59	61.4688
3298.65	40.8987
3300.71	27.2636
3302.77	48.2733
3304.83	41.5403
3306.89	41.749
3308.95	34.9898
3311	44.4652
3313.06	44.6467
3315.11	23.9169
3317.17	35.7374
3319.22	28.9587
3321.27	50.1763
3323.33	45.7778
3325.38	46.0446
3327.43	55.7068
3329.48	27.8632
3331.53	35.2446
3333.58	35.6184
3335.63	38.3363
3337.67	41.0665
3339.72	29.5366
3341.77	27.4164
3343.81	18.1516
3345.86	42.0881
3347.9	54.1411
3349.95	44.8598
3351.99	64.102
3354.03	45.27
3356.07	26.4536
3358.11	31.4652
3360.15	24.5389
3362.19	39.1349
3364.23	22.6185
3366.27	32.427
3368.31	30.2631
3370.34	37.7081
3372.38	40.3371
3374.42	35.7336
3376.45	47.9622
3378.48	24.0472
3380.52	38.6846
3382.55	55.7496
3384.58	39.0231
3386.61	31.9368
3388.64	34.508
3390.68	20.1377
3392.7	29.9571
3394.73	30.1204
3396.76	35.1499
3398.79	42.617
3400.82	50.0777
3402.84	47.8006
3404.87	40.654
3406.89	35.9395
3408.92	28.7859
3410.94	41.0669
3412.96	41.195
3414.98	43.7583
3417	31.7152
3419.03	26.968
3421.05	39.274
3423.06	15.0097
3425.08	54.1524
3427.1	32.3442
3429.12	22.7354
3431.14	25.3432
3433.15	42.633
3435.17	25.7108
3437.18	38.1585
3439.2	48.1895
3441.21	26.3523
3443.22	36.4079
3445.23	24.3906
3447.25	41.906
3449.26	27.4231
3451.27	27.7078
3453.28	45.313
3455.28	30.8235
3457.29	33.6678
3459.3	39.0157
3461.31	44.3873
3463.31	29.846
3465.32	27.7343
3467.32	25.6147
3469.33	18.4649
3471.33	38.881
3473.33	14.0516
3475.34	31.9687
3477.34	39.8719
3479.34	30.1348
3481.34	40.5796
3483.34	40.9257
3485.34	36.1988
3487.33	23.8388
3489.33	19.0625
3491.33	44.8092
3493.32	34.941
3495.32	27.5773
3497.32	32.9553
3499.31	40.8893
3501.3	28.3506
3503.3	43.9392
3505.29	28.791
3507.28	21.2862
3509.27	41.9707
3511.26	39.5407
3513.25	29.4005
3515.24	26.9584
3517.23	32.2204
3519.22	24.6326
3521.2	27.3233
3523.19	17.1586
3525.18	27.5836
3527.16	35.449
3529.15	27.8358
3531.13	22.8433
3533.11	30.784
3535.1	20.7029
3537.08	23.5444
3539.06	31.5877
3541.04	24.0836
3543.02	26.9105
3545	32.321
3546.98	32.5376
3548.96	1.56517
3550.93	38.1078
3552.91	19.9959
3554.89	35.722
3556.86	30.6796
3558.84	51.6759
3560.81	25.8296
3562.78	10.3882
3564.76	21.021
3566.73	31.6943
3568.7	24.1378
3570.67	29.6156
3572.64	24.6281
3574.61	35.3802
3576.58	38.2975
3578.55	35.9848
3580.52	33.6807
3582.48	39.2914
3584.45	36.9994
3586.41	29.4082
3588.38	19.1417
3590.35	38.0184
3592.31	25.0738
3594.27	28.0506
3596.23	33.7007
3598.2	26.0168
3600.16	31.6451
3602.12	42.6365
3604.08	5.45119
3606.04	16.4175
3608	35.4487
3609.95	27.6398
3611.91	6.36664
3613.87	36.2137
3615.83	17.5863
3617.78	12.4161
3619.74	18.0132
3621.69	15.4752
3623.64	18.3043
3625.6	10.3113
3627.55	23.9457
3629.5	13.2361
3631.45	24.1423
3633.4	35.0612
3635.35	16.2328
3637.3	21.783
3639.25	27.3672
3641.2	8.59064
3643.15	11.5119
3645.09	11.7256
3647.04	31.0179
3648.98	36.5612
3650.93	6.7601
3652.87	23.2492
3654.82	20.6586
3656.76	28.9706
3658.7	1.82523
3660.64	4.67072
3662.58	32.0744
3664.53	29.4709
3666.47	18.6834
3668.4	35.2274
3670.34	-5.66083
3672.28	27.2955
3674.22	16.5111
3676.16	8.46812
3678.09	11.4006
3680.03	6.116
3681.96	17.3304
3683.9	28.5894
3685.83	4.06998
3687.76	9.84299
3689.69	7.34169
3691.63	15.9084
3693.56	24.4782
3695.49	13.6241
3697.42	16.6611
3699.35	0.224762
3701.28	14.3963
3703.2	17.4171
3705.13	28.8529
3707.06	9.55548
3708.98	-1.3961
3710.91	18.472
3712.83	13.1135
3714.76	13.3428
3716.68	2.29605
3718.6	8.12498
3720.53	13.9585
3722.45	22.6193
3724.37	5.84525
3726.29	22.9805
3728.21	9.00105
3730.13	12.0012
3732.05	26.3674
3733.97	26.5611
3735.88	12.5439
3737.8	18.4069
3739.72	10.0364
3741.63	13.0396
3743.55	13.1947
3745.46	16.1964
3747.38	2.0562
3749.29	2.17625
3751.2	36.5983
3753.11	19.5459
3755.02	11.0518
3756.93	19.7182
3758.84	22.6529
3760.75	22.7158
3762.66	19.9127
3764.57	14.2361
3766.48	5.69313
3768.39	0.0269318
3770.29	-8.50262
3772.2	20.2759
3774.1	17.4942
3776.01	20.4535
3777.91	14.8059
3779.81	29.2944
3781.72	12.1627
3783.62	-2.10008
3785.52	23.9649
3787.42	15.4496
3789.32	18.4555
3791.22	9.91408
3793.12	18.7188
3795.02	13.0918
3796.92	21.9451
3798.81	16.3235
3800.71	-3.81364
3802.61	16.6781
3804.5	8.14053
3806.4	14.1474
3808.29	14.3383
3810.18	5.76588
3812.08	17.612
3813.97	9.00948
3815.86	23.802
3817.75	15.1848
3819.64	15.3429
3821.53	15.4941
3823.42	3.88472
3825.31	15.7612
3827.2	15.8932
3829.09	16.0338
3830.97	13.2407
3832.86	4.54259
3834.75	10.5885
3836.63	4.81245
3838.52	16.7686
3840.4	10.9753
3842.28	2.27531
3844.17	-3.5524
3846.05	20.2683
3847.93	8.44649
3849.81	-0.406677
3851.69	5.58904
3853.57	11.5658
3855.45	26.4715
3857.33	17.5739
3859.21	-6.20555
3861.08	17.5966
3862.96	23.5839
3864.84	-0.104385
3866.71	14.94
3868.59	9.18533
3870.46	15.3186
3872.34	18.354
3874.21	9.43933
3876.08	15.4698
3877.95	6.55704
3879.82	0.630753
3881.69	6.66869
3883.56	0.749512
3885.44	0.820099
3887.3	-11.0823
3889.17	9.96931
3891.04	31.0528
3892.91	7.18289
3894.77	-4.67307
3896.64	16.494
3898.51	10.6097
3900.37	13.7535
3902.23	1.83684
3904.1	20.0391
3905.96	-0.944901
3907.82	14.2585
3909.69	2.30324
3911.55	32.685
3913.41	-0.440277
3915.27	2.73723
3917.13	-3.16118
3918.99	6.11911
3920.84	15.4406
3922.7	15.659
3924.56	6.72853
3926.42	6.92024
3928.27	4.05258
3930.13	-7.99367
3931.98	4.39574
3933.84	16.7842
3935.69	10.8079
3937.54	7.88419
3939.4	1.90845
3941.25	5.1524
3943.1	23.797
3944.95	5.53792
3946.8	27.285
3948.65	8.98668
3950.5	12.2395
3952.35	6.22594
3954.19	9.46751
3956.04	6.52974
3957.89	28.3254
3959.73	12.9817
3961.58	6.91225
3963.42	19.4241
3965.27	16.4428
3967.11	10.3483
3968.96	10.4369
3970.8	22.9303
3972.64	4.43625
3974.48	10.7455
3976.32	10.854
3978.16	14.0595
3980	-1.35574
3981.84	4.93153
3983.68	-4.2825
3985.52	-1.08249
3987.36	5.21611
3989.19	17.7273
3991.03	14.7546
3992.86	5.59586
3994.7	21.2708
3996.53	-9.5849
3998.37	12.3431
