#Acq. time (s)=	60
#Accumulations=	2
#Range (cm-¹)=	100...4000
#Windows=	1
#Auto scanning=	Off
#Autofocus=	Off
#Macrospot=	Off
#AutoExposure=	Off
#Spike filter=	Multiple accum.
#Delay time (s)=	2
#Binning=	1
#Readout mode=	Signal
#DeNoise=	Off
#ICS correction=	On
#Dark correction=	Off
#Inst. Process=	Off
#Detector Gain=	Best Dynamic
#Detector ADC=	50 kHz HS
#Detector temperature (°C)=	-60.09
#Instrument=	LabRAM HR Evol
#Detector=	SIN-EM FIVIS
#Objective=	x100_VIS
#Grating=	150 (500nm)
#ND Filter=	100%
#Laser=	633nm_Edge
#Hole=	49.98
#Temperature=	0
#Range=	Visible
#StageXY=	75x50mm Scan+
#StageZ=	Z motor
#X (µm)=	0
#Y (µm)=	0
#Z (µm)=	-268.8
#Full time(mm:ss)=	2:05
#Project=	21_11_04
#Sample=	BU19w
#Site=	
#Title=	BU19w-E-FF11-FI07-L_150 (500nm)_633nm_Edge_100%_x100_VIS_H50um_60sX2
#Remark=	
#Date=	04.11.2021 16:06
#Acquired=	04.11.2021 16:06:32
#Base:Fit=	16.12.2021 17:39:50
#Base:Edit=	16.12.2021 17:52:14
#Base:Edit=	16.12.2021 17:52:14
#Base:Edit=	16.12.2021 17:52:15
#Base:Sub=	16.12.2021 17:52:18
102.881	270.843
106.139	272.3
109.397	237.742
112.653	218.643
115.908	219.785
119.161	206.755
122.414	193.925
125.664	182.219
128.914	195.569
132.162	198.547
135.409	198.807
138.654	222.159
141.898	200.705
145.14	201.463
148.383	204.283
151.622	222.601
154.861	258.36
158.098	303.86
161.335	312.179
164.569	244.937
167.801	168.169
171.034	109.687
174.264	78.1306
177.494	61.0322
180.721	55.5326
183.949	30.9371
187.173	33.2523
190.396	29.8933
193.62	23.7753
196.84	24.4723
200.061	19.5897
203.279	13.9482
206.496	7.4353
209.712	0.0358429
212.926	20.389
216.139	22.7056
219.352	55.6055
222.562	127.636
225.772	204.404
228.979	326.722
232.185	383.336
235.392	347.782
238.595	230.605
241.797	125.962
244.999	103.256
248.199	74.8982
251.397	75.0586
254.595	88.5488
257.791	114.445
260.985	113.832
264.178	127.504
267.371	95.7095
270.561	94.3345
273.75	112.93
276.939	126.836
280.125	153.079
283.31	121.482
286.494	100.343
289.678	60.271
292.859	48.6489
296.039	46.5374
299.217	43.5152
302.396	62.2727
305.572	94.2627
308.746	148.937
311.919	218.711
315.093	363.997
318.263	551.668
321.433	673.324
324.601	644.057
327.768	484.615
330.935	299.818
334.099	211.266
337.262	150.085
340.423	128.54
343.584	110.777
346.743	136.362
349.902	142.16
353.058	143.217
356.213	164.972
359.367	165.053
362.52	152.897
365.671	111.604
368.821	79.7619
371.971	63.9305
375.119	44.3486
378.265	24.8013
381.41	17.4703
384.553	-0.122604
387.696	10.4874
390.837	8.0181
393.976	7.4597
397.116	11.6279
400.253	10.2268
403.389	18.2101
406.524	22.4288
409.657	42.6901
412.789	35.5608
415.92	51.9905
419.05	58.0608
422.178	71.636
425.305	110.64
428.431	140.879
431.555	153.978
434.678	153.838
437.8	149.908
440.921	133.75
444.04	143.917
447.158	168.09
450.275	189.345
453.391	194.658
456.505	199.998
459.618	161.522
462.73	120.395
465.84	81.2548
468.949	78.485
472.057	60.8443
475.164	61.8792
478.27	61.0735
481.374	51.8569
484.477	63.1189
487.579	64.1232
490.679	63.2589
493.778	82.8994
496.876	94.1308
499.973	96.9747
503.068	120.35
506.162	140.923
509.255	153.106
512.346	148.514
515.436	169.124
518.525	165.506
521.613	163.799
524.7	158.36
527.785	162.305
530.869	167.232
533.952	142.145
537.033	135.788
540.113	115.218
543.192	114.342
546.27	97.3675
549.347	87.8154
552.423	89.593
555.497	82.8469
558.568	72.2199
561.64	63.3857
564.711	58.2934
567.78	48.4467
570.848	46.0988
573.915	53.1085
576.979	63.8093
580.043	73.5333
583.107	83.265
586.169	98.5839
589.228	104.571
592.287	130.195
595.345	129.72
598.402	147.953
601.458	132.77
604.511	142.814
607.565	146.344
610.617	163.927
613.667	156.314
616.716	139.393
619.764	143.05
622.811	128.892
625.856	100.596
628.9	94.7066
631.944	77.385
634.986	76.938
638.026	80.1769
641.066	79.5735
644.104	83.5849
647.14	87.6154
650.177	78.4655
653.211	88.9823
656.244	87.2402
659.276	69.5708
662.308	56.613
665.336	49.3028
668.365	29.8772
671.393	34.7849
674.418	16.4809
677.443	12.1435
680.467	12.449
683.489	14.6512
686.511	17.8028
689.53	11.6457
692.549	5.49236
695.567	-2.55194
698.582	18.4306
701.598	12.2346
704.611	14.4631
707.624	11.9716
710.635	11.3231
713.646	3.0547
716.655	6.06828
719.662	13.7682
722.669	11.14
725.674	0.0262756
728.679	1.08862
731.681	0.265297
734.683	4.11943
737.683	7.95969
740.683	5.24956
743.681	3.47729
746.678	8.24851
749.673	9.28387
752.669	8.48055
755.661	3.94202
758.654	11.5678
761.645	13.6518
764.635	11.1022
767.623	11.3707
770.611	8.82612
773.597	2.52071
776.582	12.1515
779.565	-1.7333
782.549	8.80505
785.53	14.6283
788.511	7.25088
791.489	6.45013
794.466	10.3436
797.444	4.78439
800.419	6.74245
803.394	9.62251
806.366	15.3088
809.339	15.3334
812.309	20.9764
815.278	15.3103
818.247	11.519
821.214	18.043
824.18	19.8601
827.145	14.1838
830.108	14.154
833.072	16.9896
836.033	18.9257
838.992	19.0325
841.952	20.1279
844.909	17.4611
847.865	25.107
850.822	23.4016
853.776	35.7916
856.728	35.0516
859.681	35.2589
862.631	48.6732
865.58	54.5668
868.528	66.1489
871.476	67.308
874.422	65.5737
877.366	72.3299
880.311	82.8717
883.253	98.1403
886.194	94.3975
889.134	103.907
892.074	89.6686
895.012	88.6969
897.948	75.3472
900.883	83.7331
903.818	71.2752
906.751	79.6204
909.683	82.2677
912.614	71.725
915.543	80.0307
918.473	87.4529
921.4	83.6384
924.326	91.1622
927.251	105.305
930.174	117.679
933.098	136.645
936.019	146.344
938.94	159.022
941.859	193.511
944.777	227.186
947.693	240.175
950.61	267.472
953.525	279.595
956.438	272.63
959.35	268.426
962.261	272.765
965.171	305.744
968.08	342.607
970.988	386.148
973.894	445.932
976.801	515.152
979.705	565.836
982.608	606.723
985.51	599.546
988.411	566.474
991.311	476.02
994.209	438.267
997.107	374.837
1000	345.921
1002.9	325.676
1005.79	350.342
1008.68	336.023
1011.58	344.807
1014.47	388.961
1017.36	418.806
1020.25	420.086
1023.13	376.614
1026.02	350.402
1028.9	290.635
1031.79	256.636
1034.67	238.924
1037.55	223.12
1040.43	207.267
1043.31	201.01
1046.19	178.322
1049.07	161.301
1051.94	165.506
1054.82	137.68
1057.69	130.149
1060.56	113.812
1063.44	115.875
1066.31	127.561
1069.17	117.882
1072.04	130.546
1074.91	142.212
1077.77	153.839
1080.64	188.719
1083.5	208.053
1086.37	271.948
1089.23	319.394
1092.09	405.543
1094.95	452.921
1097.8	453.779
1100.66	401.439
1103.52	347.263
1106.37	295.251
1109.22	250.855
1112.08	214.343
1114.93	202.263
1117.78	182.432
1120.63	185.806
1123.48	169.633
1126.32	179.736
1129.17	199.678
1132.01	211.845
1134.86	253.416
1137.7	283.305
1140.54	318.209
1143.38	385.534
1146.22	433.139
1149.06	510.381
1151.89	486.184
1154.73	387.918
1157.56	277.687
1160.4	203.829
1163.23	164.334
1166.06	131.781
1168.89	107.149
1171.72	96.2828
1174.55	79.5532
1177.38	75.5678
1180.2	64.7759
1183.03	65.7491
1185.85	57.0165
1188.67	48.3245
1191.49	40.6199
1194.31	24.169
1197.13	32.155
1199.95	29.429
1202.77	17.9214
1205.58	21.1203
1208.4	17.464
1211.21	4.92008
1214.02	16.0487
1216.84	7.4412
1219.65	5.74799
1222.46	8.03044
1225.27	0.352837
1228.07	6.62518
1230.88	7.90425
1233.68	9.17065
1236.49	6.4041
1239.29	5.62106
1242.09	3.79718
1244.89	11.0284
1247.69	5.12057
1250.49	6.25208
1253.29	-0.702194
1256.08	10.4995
1258.88	0.463272
1261.67	7.57185
1264.47	9.62727
1267.26	2.61349
1270.05	4.66068
1272.84	10.7117
1275.63	6.69619
1278.42	4.69101
1281.2	13.7215
1283.99	-0.294174
1286.77	3.74165
1289.56	-0.220657
1292.34	9.82903
1295.12	4.89924
1297.9	9.97706
1300.68	6.0672
1303.46	5.18061
1306.23	-1.68481
1309.01	9.48359
1311.78	5.67477
1314.56	1.86352
1317.33	5.08389
1320.1	-4.77717
1322.87	-2.55305
1325.64	0.699265
1328.41	4.97973
1331.18	5.21453
1333.94	4.41554
1336.71	-1.49072
1339.47	0.740349
1342.24	-1.1359
1345	-2.00834
1347.76	2.23061
1350.52	4.42178
1353.28	1.47758
1356.04	-0.457573
1358.79	6.83838
1361.55	6.93228
1364.3	10.0916
1367.06	13.2345
1369.81	15.341
1372.56	14.3592
1375.31	22.6242
1378.06	13.4245
1380.81	13.4656
1383.56	5.29177
1386.3	2.25177
1389.05	9.47227
1391.79	10.5508
1394.53	5.48721
1397.28	1.48901
1400.02	5.70213
1402.76	3.74527
1405.5	1.79111
1408.23	7.04868
1410.97	8.19569
1413.71	3.15787
1416.44	4.31517
1419.17	7.54189
1421.91	7.67238
1424.64	0.549362
1427.37	2.75011
1430.1	5.99866
1432.83	6.12801
1435.55	2.0853
1438.28	0.117371
1441.01	1.27039
1443.73	5.5756
1446.45	7.78418
1449.17	6.82843
1451.89	1.65407
1454.62	1.70953
1457.33	6.99846
1460.05	1.77591
1462.77	2.84187
1465.48	4.94853
1468.2	4.94918
1470.91	-1.34886
1473.63	0.753098
1476.34	7.06036
1479.05	8.13046
1481.76	1.85031
1484.47	3.97485
1487.17	5.05763
1489.88	7.20097
1492.59	4.09446
1495.29	-0.059288
1497.99	12.6444
1500.7	6.3893
1503.4	9.62997
1506.1	9.71072
1508.8	12.9789
1511.5	9.89526
1514.19	8.93491
1516.89	9.04007
1519.59	4.88837
1522.28	4.99019
1524.97	1.89149
1527.67	8.41241
1530.36	9.59657
1533.05	6.49664
1535.74	6.60016
1538.42	4.51923
1541.11	4.58613
1543.8	0.302109
1546.48	4.62829
1549.16	14.3385
1551.85	9.95962
1554.53	7.71235
1557.21	6.5313
1559.89	3.20454
1562.57	8.51826
1565.25	10.5862
1567.93	6.17985
1570.6	8.24031
1573.28	7.06807
1575.95	14.516
1578.62	7.99236
1581.29	12.2392
1583.97	15.4138
1586.64	12.1341
1589.3	9.93478
1591.97	4.51029
1594.64	10.9461
1597.3	15.243
1599.97	17.389
1602.63	14.1505
1605.3	11.9959
1607.96	20.6804
1610.62	15.3094
1613.28	4.51067
1615.94	18.7086
1618.59	17.7074
1621.25	4.68784
1623.91	12.4052
1626.56	21.2449
1629.21	9.2463
1631.87	11.5007
1634.52	15.9459
1637.17	21.4853
1639.82	12.6105
1642.47	16.9898
1645.12	20.2808
1647.76	15.8184
1650.41	10.232
1653.05	15.7119
1655.7	13.4237
1658.34	16.6632
1660.98	21.0043
1663.62	16.4718
1666.26	18.5835
1668.9	15.146
1671.54	15.0326
1674.18	10.481
1676.81	10.353
1679.45	14.6658
1682.08	5.65381
1684.71	19.9019
1687.34	17.5209
1689.98	8.50534
1692.61	11.6826
1695.23	13.7707
1697.86	9.24315
1700.49	12.5133
1703.12	9.27303
1705.74	9.34295
1708.36	13.858
1710.99	2.49687
1713.61	13.4776
1716.23	16.7594
1718.85	7.83805
1721.47	10.03
1724.09	8.82406
1726.7	9.88471
1729.32	13.1977
1731.94	6.40743
1734.55	6.34547
1737.16	6.27863
1739.77	9.58957
1742.39	-0.62439
1745	8.3271
1747.61	10.5047
1750.21	4.76157
1752.82	14.8366
1755.43	9.07344
1758.03	6.68321
1760.64	0.881134
1763.24	5.26579
1765.84	3.99325
1768.44	1.59068
1771.05	13.9201
1773.64	11.5228
1776.24	5.73132
1778.84	11.2943
1781.44	10.0623
1784.03	6.56052
1786.63	16.7095
1789.22	7.53811
1791.81	5.18806
1794.41	13.1063
1797	11.9061
1799.59	13.0059
1802.18	2.65131
1804.76	11.7762
1807.35	8.27744
1809.94	8.20378
1812.52	13.8832
1815.11	13.8116
1817.69	9.12786
1820.27	9.04779
1822.85	15.9117
1825.43	-0.361443
1828.01	1.87377
1830.59	2.95872
1833.17	6.36805
1835.74	3.97974
1838.32	9.71825
1840.89	1.46649
1843.47	0.195847
1846.04	7.09383
1848.61	8.1538
1851.18	4.53912
1853.75	-0.277061
1856.32	10.1424
1858.89	4.17785
1861.45	6.42726
1864.02	8.67983
1866.58	-3.15807
1869.15	1.44491
1871.71	6.04084
1874.27	8.27412
1876.83	9.33106
1879.39	3.30042
1881.95	-1.55459
1884.51	12.4767
1887.07	8.79183
1889.63	3.89399
1892.18	7.257
1894.74	4.7063
1897.29	4.52998
1899.84	3.18868
1902.39	8.98395
1904.94	2.96378
1907.49	6.42174
1910.04	9.91547
1912.59	2.74149
1915.14	0.32621
1917.68	5.0453
1920.23	2.5068
1922.77	4.77171
1925.32	4.67442
1927.86	6.97044
1930.4	6.87414
1932.94	6.77544
1935.48	-0.53141
1938.02	4.15422
1940.56	11.2426
1943.09	9.91341
1945.63	1.35435
1948.16	10.8416
1950.7	4.66575
1953.23	2.09053
1955.76	1.91913
1958.29	-9.10237
1960.82	18.4373
1963.35	13.433
1965.88	8.42358
1968.41	5.8093
1970.93	12.8241
1973.46	5.37736
1975.98	7.56985
1978.51	7.35397
1981.03	7.13585
1983.55	3.31034
1986.07	6.70694
1988.59	1.68817
1991.11	2.68562
1993.63	2.48457
1996.15	5.89514
1998.66	5.70714
2001.18	6.72783
2003.69	13.7688
2006.2	10.0028
2008.72	1.42713
2011.23	12.1132
2013.74	7.15478
2016.25	0.989136
2018.76	15.2875
2021.27	0.675018
2023.77	12.5969
2026.28	6.44673
2028.78	12.3722
2031.29	9.86323
2033.79	10.9919
2036.29	2.43678
2038.79	7.1981
2041.3	5.90733
2043.79	8.26109
2046.29	9.41019
2048.79	6.91489
2051.29	1.97471
2053.78	9.1773
2056.28	2.99791
2058.77	9.03991
2061.27	4.08868
2063.76	8.92274
2066.25	12.5464
2068.74	11.2611
2071.23	5.05761
2073.72	9.91111
2076.21	9.84558
2078.69	9.77589
2081.18	20.8016
2083.66	7.14789
2086.15	14.4622
2088.63	19.3022
2091.11	21.6992
2093.59	14.2139
2096.07	10.4521
2098.55	17.8544
2101.03	14.0961
2103.51	11.5814
2105.99	12.8045
2108.46	0.316849
2110.94	16.5341
2113.41	19.0485
2115.89	17.815
2118.36	19.0882
2120.83	20.3636
2123.3	16.6034
2125.77	22.9143
2128.24	15.35
2130.71	17.8712
2133.17	25.4538
2135.64	17.8388
2138.11	20.3498
2140.57	10.1599
2143.03	22.8349
2145.49	13.8864
2147.96	24.0178
2150.42	16.2995
2152.88	17.4922
2155.34	18.6766
2157.79	10.9136
2160.25	15.9105
2162.71	11.953
2165.16	22.0423
2167.62	7.83339
2170.07	17.9246
2172.52	12.6936
2174.97	13.8597
2177.43	8.61829
2179.88	8.47159
2182.32	10.8777
2184.77	18.3859
2187.22	7.98599
2189.67	2.72164
2192.11	14.1159
2194.56	17.8362
2197	13.892
2199.44	8.67949
2201.89	9.8893
2204.33	3.40906
2206.77	2.06922
2209.21	13.6045
2211.64	18.735
2214.08	20.0123
2216.52	7.10722
2218.95	9.6874
2221.39	7.09973
2223.82	16.1683
2226.26	9.69043
2228.69	5.795
2231.12	8.39384
2233.55	22.7217
2235.98	1.87569
2238.41	5.78584
2240.84	12.3186
2243.26	1.85541
2245.69	12.3391
2248.12	1.85084
2250.54	9.73045
2252.96	7.10043
2255.39	8.41667
2257.81	9.7469
2260.23	1.8337
2262.65	0.501648
2265.07	4.44678
2267.49	-2.21148
2269.9	5.69316
2272.32	10.9453
2274.74	-3.72568
2277.15	5.4952
2279.57	8.06775
2281.98	10.6252
2284.39	2.52724
2286.8	15.699
2289.21	15.5752
2291.62	3.47244
2294.03	6.00323
2296.44	12.5382
2298.84	11.1098
2301.25	12.3524
2303.66	2.95274
2306.06	9.56804
2308.46	9.53477
2310.87	16.2004
2313.27	5.49747
2315.67	10.8562
2318.07	6.85468
2320.47	14.9252
2322.87	23.0116
2325.26	10.9415
2327.66	6.92979
2330.06	11.0096
2332.45	7.00451
2334.85	7.05358
2337.24	5.75102
2339.63	-0.98719
2342.02	8.59072
2344.41	11.3928
2346.8	4.6709
2349.19	17.0557
2351.58	10.298
2353.97	11.7378
2356.35	13.1557
2358.74	0.805916
2361.12	7.66288
2363.51	10.4116
2365.89	6.27269
2368.27	0.740585
2370.65	22.86
2373.03	0.706284
2375.41	7.61573
2377.79	10.3777
2380.17	10.3382
2382.55	15.8451
2384.92	10.2108
2387.3	15.6919
2389.67	7.24973
2392.05	-1.2164
2394.42	1.44545
2396.79	12.4405
2399.16	1.16178
2401.53	6.59019
2403.9	-0.524513
2406.27	4.88854
2408.64	-7.75735
2411.01	11.6769
2413.37	17.2537
2415.74	20.1689
2418.1	9.22659
2420.47	17.7848
2422.83	9.3634
2425.19	12.1044
2427.55	6.47442
2429.91	14.9512
2432.27	7.93339
2434.63	5.15105
2436.99	9.45023
2439.34	9.50576
2441.7	1.03836
2444.05	11.0313
2446.41	8.23848
2448.76	-1.69245
2451.11	12.6302
2453.47	15.5427
2455.82	24.1923
2458.17	11.3511
2460.51	24.3302
2462.86	8.572
2465.21	5.73006
2467.56	17.3019
2469.9	21.6739
2472.25	15.9223
2474.59	15.9523
2476.94	5.83839
2479.28	7.31299
2481.62	23.3222
2483.96	13.1569
2486.3	7.32217
2488.64	-2.90301
2490.98	21.8942
2493.32	18.9669
2495.65	21.8977
2497.99	7.24562
2500.32	16.0176
2502.66	5.72186
2504.99	10.0895
2507.32	10.0464
2509.66	17.3501
2511.99	15.8209
2514.32	9.86214
2516.65	11.2632
2518.98	-0.594208
2521.3	15.5914
2523.63	12.5931
2525.96	6.62331
2528.28	6.56644
2530.61	15.3937
2532.93	10.9112
2535.25	9.39659
2537.57	18.2795
2539.89	12.3199
2542.22	13.7901
2544.53	7.8172
2546.85	12.2829
2549.17	6.30264
2551.49	18.2443
2553.8	16.7434
2556.12	13.7212
2558.43	7.68573
2560.75	13.6659
2563.06	19.6645
2565.37	16.6733
2567.68	1.62981
2569.99	7.66621
2572.3	18.2483
2574.61	24.3152
2576.92	6.16779
2579.23	25.843
2581.53	18.2399
2583.84	15.1408
2586.14	21.1383
2588.45	18.009
2590.75	8.75259
2593.05	23.8555
2595.35	16.174
2597.66	26.785
2599.96	17.5812
2602.26	20.553
2604.55	15.89
2606.85	8.16077
2609.15	17.2282
2611.44	32.3876
2613.74	20.0375
2616.03	16.8559
2618.33	22.8662
2620.62	12.0317
2622.91	24.1695
2625.2	24.0704
2627.49	19.3773
2629.78	25.4549
2632.07	13.1443
2634.36	11.5923
2636.64	16.2294
2638.93	17.8285
2641.22	3.97285
2643.5	16.3883
2645.78	22.6566
2648.07	30.477
2650.35	21.2132
2652.63	16.5995
2654.91	21.258
2657.19	13.4072
2659.47	19.5893
2661.75	19.5166
2664.03	20.9907
2666.3	41.2314
2668.58	27.0862
2670.85	14.4955
2673.13	22.3291
2675.4	28.6669
2677.67	19.3731
2679.95	5.37613
2682.22	27.6824
2684.49	11.9948
2686.76	26.4553
2689.03	21.8438
2691.29	29.9432
2693.56	18.8608
2695.83	29.981
2698.09	18.724
2700.36	31.5364
2702.62	21.8751
2704.89	23.4343
2707.15	31.4309
2709.41	39.4305
2711.67	26.4802
2713.93	31.2688
2716.19	16.7324
2718.45	18.2952
2720.7	19.8611
2722.96	24.6571
2725.22	34.2928
2727.47	22.8414
2729.73	27.592
2731.98	37.1845
2734.23	24.0572
2736.49	25.529
2738.74	23.7393
2740.99	20.3621
2743.24	21.8737
2745.49	23.4023
2747.73	16.8009
2749.98	20.006
2752.23	21.695
2754.47	28.2508
2756.72	21.663
2758.96	24.8685
2761.21	11.6399
2763.45	11.5549
2765.69	34.502
2767.93	29.536
2770.17	17.9412
2772.41	14.5911
2774.65	21.1604
2776.89	22.8166
2779.13	29.4506
2781.36	21.2434
2783.6	17.9859
2785.84	16.3865
2788.07	18.1077
2790.3	18.1577
2792.54	28.2269
2794.77	16.5589
2797	29.9684
2799.23	14.8786
2801.46	28.298
2803.69	24.9099
2805.92	6.34479
2808.14	34.9294
2810.37	-2.2382
2812.59	26.3774
2814.82	21.2144
2817.04	26.1887
2819.27	21.0221
2821.49	27.709
2823.71	24.2445
2825.93	3.80974
2828.15	7.1064
2830.37	30.7945
2832.59	10.2964
2834.81	11.8837
2837.03	25.3975
2839.24	15.0741
2841.46	26.9083
2843.67	4.6319
2845.89	9.67137
2848.1	9.59328
2850.31	19.7967
2852.53	26.6206
2854.74	14.6118
2856.95	19.7545
2859.16	31.783
2861.37	23.1995
2863.57	7.71472
2865.78	26.7482
2867.99	6.05284
2870.19	0.883316
2872.4	23.4599
2874.6	11.3502
2876.81	9.65302
2879.01	30.6288
2881.21	18.5018
2883.41	9.84358
2885.61	8.1756
2887.81	25.8064
2890.01	10.0675
2892.21	-0.444336
2894.41	19.0095
2896.6	8.50909
2898.8	31.6358
2901	1.59419
2903.19	19.4091
2905.38	12.3425
2907.58	-5.44748
2909.77	17.7693
2911.96	8.82309
2914.15	23.1102
2916.34	28.4648
2918.53	26.6799
2920.72	6.94026
2922.91	14.1266
2925.09	5.14691
2927.28	17.7953
2929.47	12.4262
2931.65	12.4745
2933.83	23.3563
2936.02	5.22997
2938.2	12.4476
2940.38	23.2945
2942.56	25.077
2944.74	15.9289
2946.92	10.3747
2949.1	10.2839
2951.28	17.4973
2953.46	17.4181
2955.63	19.1633
2957.81	24.5632
2959.98	0.713409
2962.16	20.7654
2964.33	26.1993
2966.5	11.4913
2968.68	11.4452
2970.85	18.7508
2973.02	15.0442
2975.19	9.49237
2977.36	13.1396
2979.52	29.6996
2981.69	3.86591
2983.86	33.4297
2986.03	26.0809
2988.19	29.8429
2990.36	18.7868
2992.52	18.8602
2994.68	28.2273
2996.85	24.6018
2999.01	15.3824
3001.17	22.9637
3003.33	26.8402
3005.49	25.1139
3007.65	40.2813
3009.8	27.2721
3011.96	34.9142
3014.12	27.5208
3016.27	27.6863
3018.43	35.4435
3020.58	48.9218
3022.74	49.1188
3024.89	37.8613
3027.04	45.5984
3029.19	30.4337
3031.34	51.5289
3033.49	38.207
3035.64	43.9824
3037.79	38.236
3039.94	49.8183
3042.09	51.8001
3044.23	42.2251
3046.38	51.8681
3048.52	28.7841
3050.67	49.993
3052.81	57.7335
3054.95	63.575
3057.09	52.0382
3059.24	38.5379
3061.38	55.9911
3063.51	71.5385
3065.65	67.7218
3067.79	60.0143
3069.93	77.5531
3072.07	75.6781
3074.2	81.596
3076.34	73.8935
3078.47	68.131
3080.61	89.6822
3082.74	74.1543
3084.87	86.0226
3087	97.9349
3089.14	102.077
3091.27	96.4474
3093.39	92.7944
3095.52	97.0424
3097.65	99.3328
3099.78	107.555
3101.91	90.0937
3104.03	96.3941
3106.16	106.712
3108.28	91.2045
3110.41	97.5942
3112.53	106.021
3114.65	126.473
3116.77	124.952
3118.89	113.375
3121.01	99.7738
3123.13	134.573
3125.25	125.039
3127.37	127.65
3129.49	130.3
3131.61	118.739
3133.72	127.536
3135.84	126.133
3137.95	149.332
3140.06	156.15
3142.18	160.908
3144.29	149.129
3146.4	153.833
3148.51	148.179
3150.62	152.834
3152.73	159.51
3154.84	162.026
3156.95	154.099
3159.06	160.779
3161.16	157.022
3163.27	149.067
3165.37	174.638
3167.48	191.846
3169.58	183.819
3171.69	161.113
3173.79	176.264
3175.89	176.568
3177.99	187.398
3180.09	155.888
3182.19	185.715
3184.29	194.374
3186.39	181.828
3188.49	150.098
3190.58	203.335
3192.68	180.233
3194.77	161.363
3196.87	180.851
3198.96	179.184
3201.06	203.291
3203.15	201.788
3205.24	200.305
3207.33	188.153
3209.42	171.646
3211.51	168.022
3213.6	177.37
3215.69	171.64
3217.78	176.708
3219.86	160.006
3221.95	149.778
3224.04	187.53
3226.12	168.58
3228.2	184.606
3230.29	167.728
3232.37	161.808
3234.45	157.998
3236.53	169.623
3238.61	157.003
3240.7	157.684
3242.77	158.378
3244.85	152.482
3246.93	133.054
3249.01	133.659
3251.08	131.898
3253.16	116.664
3255.23	119.267
3257.31	139.838
3259.38	124.615
3261.46	145.421
3263.53	116.672
3265.6	115.041
3267.67	136.403
3269.74	118.756
3271.81	142.312
3273.88	133.744
3275.95	118.083
3278.02	139.011
3280.08	125.635
3282.15	130.566
3284.21	119.451
3286.28	122.089
3288.34	124.727
3290.41	111.258
3292.47	136.896
3294.53	121.088
3296.59	112.169
3298.65	135.574
3300.71	103.625
3302.77	134.028
3304.83	122.815
3306.89	120.855
3308.95	111.919
3311	93.6612
3313.06	124.166
3315.11	122.196
3317.17	96.9163
3319.22	120.578
3321.27	127.97
3323.33	147.115
3325.38	119.518
3327.43	98.9172
3329.48	115.783
3331.53	111.666
3333.58	121.701
3335.63	110.527
3337.67	146.559
3339.72	123.442
3341.77	119.155
3343.81	131.407
3345.86	155.545
3347.9	122.642
3349.95	111.133
3351.99	147.173
3354.03	128.495
3356.07	117.015
3358.11	146.087
3360.15	136.993
3362.19	115.938
3364.23	135.517
3366.27	131.155
3368.31	150.787
3370.34	115.221
3372.38	137.255
3374.42	118.388
3376.45	113.912
3378.48	133.515
3380.52	121.788
3382.55	122.103
3384.58	139.318
3386.61	127.549
3388.64	135.1
3390.68	116.031
3392.7	130.83
3394.73	138.414
3396.76	133.923
3398.79	114.879
3400.82	112.773
3402.84	127.616
3404.87	113.306
3406.89	116.01
3408.92	123.577
3410.94	126.249
3412.96	111.897
3414.98	124.316
3417	144.06
3419.03	146.756
3421.05	132.382
3423.06	120.429
3425.08	125.552
3427.1	125.835
3429.12	128.581
3431.14	133.795
3433.15	104.806
3435.17	124.731
3437.18	125.121
3439.2	123.081
3441.21	103.871
3443.22	116.566
3445.23	107.21
3447.25	107.718
3449.26	132.864
3451.27	118.59
3453.28	136.44
3455.28	112.311
3457.29	122.853
3459.3	143.379
3461.31	104.29
3463.31	119.883
3465.32	110.571
3467.32	133.731
3469.33	121.881
3471.33	97.4329
3473.33	115.487
3475.34	103.487
3477.34	101.543
3479.34	94.5434
3481.34	82.4617
3483.34	118.417
3485.34	111.385
3487.33	99.2472
3489.33	89.6075
3491.33	107.931
3493.32	77.8751
3495.32	88.5315
3497.32	106.858
3499.31	91.9666
3501.3	92.3795
3503.3	92.7548
3505.29	111.075
3507.28	80.6349
3509.27	93.74
3511.26	106.821
3513.25	96.7904
3515.24	76.4724
3517.23	81.8344
3519.22	87.1991
3521.2	100.277
3523.19	100.506
3525.18	62.1602
3527.16	80.4214
3529.15	96.0698
3531.13	83.4699
3533.11	60.6157
3535.1	89.3622
3537.08	87.2107
3539.06	95.4325
3541.04	88.0916
3543.02	96.2544
3545	75.876
3546.98	68.4273
3548.96	71.3357
3550.93	69.0096
3552.91	100.356
3554.89	90.1803
3556.86	87.8423
3558.84	75.1109
3560.81	83.2172
3562.78	75.716
3564.76	91.6983
3566.73	102.519
3568.7	95.134
3570.67	71.9797
3572.64	80.2131
3574.61	101.598
3576.58	86.2988
3578.55	99.9077
3580.52	74.0829
3582.48	103.568
3584.45	90.8932
3586.41	75.5305
3588.38	91.8969
3590.35	71.174
3592.31	74.2924
3594.27	74.7572
3596.23	69.8953
3598.2	59.6675
3600.16	70.75
3602.12	63.1388
3604.08	63.5342
3606.04	55.8657
3608	64.2661
3609.95	45.7988
3611.91	38.0471
3613.87	51.8333
3615.83	52.1364
3617.78	55.1444
3619.74	41.9287
3621.69	42.1492
3623.64	39.6212
3625.6	50.592
3627.55	72.3852
3629.5	56.3103
3631.45	42.9028
3633.4	48.4408
3635.35	67.5367
3637.3	29.8137
3639.25	59.8197
3641.2	38.3925
3643.15	27.8045
3645.09	36.2191
3647.04	25.6529
3648.98	39.3747
3650.93	39.5413
3652.87	7.0374
3654.82	34.4336
3656.76	37.3139
3658.7	40.1903
3660.64	23.961
3662.58	43.1902
3664.53	35.1377
3666.47	24.3618
3668.4	21.78
3670.34	35.5928
3672.28	22.0534
3674.22	24.9632
3676.16	30.6364
3678.09	17.1387
3680.03	42.0717
3681.96	14.8511
3683.9	12.355
3685.83	23.6539
3687.76	26.7038
3689.69	32.5264
3691.63	27.2977
3693.56	10.9431
3695.49	22.2715
3697.42	3.09361
3699.35	22.8094
3701.28	9.1503
3703.2	34.4756
3705.13	6.82518
3707.06	15.4657
3708.98	10.1193
3710.91	21.5809
3712.83	21.8359
3714.76	10.8143
3716.68	5.38011
3718.6	30.9234
3720.53	11.3682
3722.45	11.532
3724.37	20.1629
3726.29	6.16385
3728.21	3.46796
3730.13	20.6044
3732.05	3.74677
3733.97	32.2838
3735.88	15.3994
3737.8	9.85359
3739.72	21.3723
3741.63	-4.14763
3743.55	24.4751
3745.46	27.4462
3747.38	16.1287
3749.29	27.6461
3751.2	-6.59361
3753.11	30.6428
3755.02	2.06741
3756.93	7.81447
3758.84	10.6907
3760.75	7.82938
3762.66	2.0999
3764.57	10.6906
3766.48	19.2874
3768.39	10.7005
3770.29	30.8054
3772.2	5.01605
3774.1	5.04219
3776.01	10.8113
3777.91	25.2199
3779.81	22.4065
3781.72	5.21709
3783.62	8.17679
3785.52	8.25993
3787.42	11.2177
3789.32	-0.264008
3791.22	2.68077
3793.12	20.0998
3795.02	5.74638
3796.92	23.2335
3798.81	-8.52234
3800.71	8.99329
3802.61	14.9299
3804.5	15.072
3806.4	6.4881
3808.29	-13.7749
3810.18	-10.7473
3812.08	-1.88174
3813.97	15.7709
3815.86	18.8203
3817.75	-1.5625
3819.64	10.2698
3821.53	10.3756
3823.42	1.65878
3825.31	16.4314
3827.2	1.81111
3829.09	4.84712
3830.97	10.8529
3832.86	8.02139
3834.75	5.17848
3836.63	25.9694
3838.52	8.32851
3840.4	11.3804
3842.28	-21.0507
3844.17	5.7067
3846.05	-3.14467
3847.93	-9.06923
3849.81	-14.9887
3851.69	2.85777
3853.57	8.80521
3855.45	8.82391
3857.33	11.7885
3859.21	-6.0723
3861.08	17.7095
3862.96	2.86769
3864.84	-2.983
3866.71	32.9188
3868.59	9.31326
3870.46	9.49268
3872.34	18.5018
3874.21	6.60561
3876.08	0.693481
3877.95	12.7137
3879.82	6.8078
3881.69	-8.06612
3883.56	6.98259
3885.44	-1.89066
3887.3	7.20952
3889.17	10.3364
3891.04	1.48888
3892.91	1.65936
3894.77	10.8911
3896.64	26.1316
3898.51	-3.7348
3900.37	20.5522
3902.23	-6.33649
3904.1	11.9503
3905.96	12.1774
3907.82	9.37605
3909.69	0.547409
3911.55	6.85498
3913.41	1.07022
3915.27	-1.67685
3917.13	13.7872
3918.99	8.05849
3920.84	5.38542
3922.7	-6.41306
3924.56	-12.1493
3926.42	-17.8987
3928.27	0.765717
3930.13	4.19089
3931.98	4.55415
3933.84	1.83984
3935.69	-16.1898
3937.54	2.5477
3939.4	2.93547
3941.25	3.35184
3943.1	9.95148
3944.95	7.32816
3946.8	17.0268
3948.65	-7.1671
3950.5	-0.553711
3952.35	12.247
3954.19	6.52917
3956.04	13.1817
3957.89	7.46446
3959.73	1.73112
3961.58	2.19458
3963.42	5.76967
3965.27	-3.04486
3967.11	-2.56776
3968.96	1.00737
3970.8	10.8017
3972.64	-13.4795
3974.48	5.65782
3976.32	3.10568
3978.16	3.66338
3980	13.5277
3981.84	10.9903
3983.68	8.47342
3985.52	12.1835
3987.36	9.70296
3989.19	28.957
3991.03	20.3402
3992.86	14.859
3994.7	0.097229
3996.53	10.1967
3998.37	14.1247
