#Acq. time (s)=	60
#Accumulations=	2
#Range (cm-¹)=	100...4000
#Windows=	1
#Auto scanning=	Off
#Autofocus=	Off
#Macrospot=	Off
#AutoExposure=	Off
#Spike filter=	Multiple accum.
#Delay time (s)=	2
#Binning=	1
#Readout mode=	Signal
#DeNoise=	Off
#ICS correction=	On
#Dark correction=	Off
#Inst. Process=	Off
#Detector Gain=	Best Dynamic
#Detector ADC=	50 kHz HS
#Detector temperature (°C)=	-60.09
#Instrument=	LabRAM HR Evol
#Detector=	SIN-EM FIVIS
#Objective=	x100_VIS
#Grating=	150 (500nm)
#ND Filter=	100%
#Laser=	633nm_Edge
#Hole=	49.98
#Temperature=	0
#Range=	Visible
#StageXY=	75x50mm Scan+
#StageZ=	Z motor
#X (µm)=	0
#Y (µm)=	0
#Z (µm)=	-270.9
#Full time(mm:ss)=	2:05
#Project=	21_11_04
#Sample=	BU19w
#Site=	
#Title=	BU19w-E-FF11-FI10-V_150 (500nm)_633nm_Edge_100%_x100_VIS_H50um_60sX2
#Remark=	
#Date=	04.11.2021 11:53
#Acquired=	04.11.2021 11:53:51
#Base:Fit=	16.12.2021 17:39:50
#Base:Edit=	16.12.2021 17:54:28
#Base:Edit=	16.12.2021 17:54:29
#Base:Edit=	16.12.2021 17:54:29
#Base:Edit=	16.12.2021 17:54:29
#Base:Edit=	16.12.2021 17:54:30
#Base:Edit=	16.12.2021 17:54:30
#Base:Edit=	16.12.2021 17:54:31
#Base:Edit=	16.12.2021 17:54:31
#Base:Edit=	16.12.2021 17:54:32
#Base:Edit=	16.12.2021 17:54:32
#Base:Sub=	16.12.2021 17:54:45
102.881	150.15
106.139	125.924
109.397	115.077
112.653	108.063
115.908	83.8662
119.161	81.6253
122.414	77.5016
125.664	72.4299
128.914	76.9468
132.162	63.2875
135.409	76.4241
138.654	64.6786
141.898	65.3941
145.14	65.1922
148.383	57.3475
151.622	65.8046
154.861	60.9013
158.098	69.4205
161.335	61.6813
164.569	87.4985
167.801	91.2799
171.034	76.8438
174.264	53.7688
177.494	45.0607
180.721	30.6047
183.949	24.7588
187.173	18.9158
190.396	14.0275
193.62	14.894
196.84	12.9201
200.061	20.536
203.279	14.861
206.496	3.46673
209.712	0.660507
212.926	4.54401
216.139	-1.09551
219.352	11.39
222.562	19.1058
225.772	26.8044
228.979	23.0298
232.185	47.8295
235.392	74.534
238.595	108.833
241.797	99.4086
244.999	68.223
248.199	44.6423
251.397	30.5535
254.595	33.5603
257.791	25.1982
260.985	32.9844
264.178	24.6516
267.371	33.4081
270.561	34.592
273.75	38.6331
276.939	20.8727
280.125	22.0735
283.31	43.1761
286.494	54.7877
289.678	47.4302
292.859	26.8041
296.039	26.0838
299.217	11.1749
302.396	1.00819
305.572	14.4867
308.746	24.1797
311.919	23.4807
315.093	36.0087
318.263	57.9707
321.433	89.3908
324.601	133.084
327.768	172.988
330.935	187.442
334.099	138.695
337.262	105.042
340.423	61.0287
343.584	50.968
346.743	38.0667
349.902	32.7156
353.058	33.9478
356.213	38.9353
359.367	56.1505
362.52	60.1729
365.671	48.2035
368.821	42.8287
371.971	47.796
375.119	32.0939
378.265	16.4159
381.41	8.25837
384.553	14.1997
387.696	7.9982
390.837	9.33051
393.976	8.81181
397.116	10.1927
400.253	8.80047
403.389	8.33008
406.524	8.79681
409.657	13.9805
412.789	-0.68055
415.92	12.0146
419.05	21.9042
422.178	14.7356
425.305	31.1558
428.431	26.6547
431.555	36.2906
434.678	34.586
437.8	49.8319
440.921	53.7502
444.04	41.6749
447.158	44.6266
450.275	52.2392
453.391	42.0673
456.505	52.4978
459.618	58.2682
462.73	63.1376
465.84	54.9986
468.949	48.7327
472.057	22.9363
475.164	29.7784
478.27	18.9407
481.374	17.4067
484.477	17.7299
487.579	21.7793
490.679	23.0356
493.778	18.7063
496.876	19.9591
499.973	17.4873
503.068	23.4189
506.162	32.1472
509.255	27.8208
512.346	40.3003
515.436	28.5175
518.525	50.3741
521.613	45.1747
524.7	48.3994
527.785	40.4063
530.869	55.8638
533.952	47.9002
537.033	40.8536
540.113	49.7631
543.192	37.9277
546.27	31.7015
549.347	32.9599
552.423	33.2859
555.497	29.8242
558.568	23.4714
561.64	24.6148
564.711	23.8485
567.78	18.3429
570.848	11.8801
573.915	24.2007
576.979	11.1382
580.043	16.8465
583.107	16.9526
586.169	18.0013
589.228	20.0005
592.287	27.6288
595.345	31.5341
598.402	41.0677
601.458	46.0133
604.511	38.8793
607.565	41.0735
610.617	41.4226
613.667	45.5265
616.716	52.4932
619.764	53.8512
622.811	43.9565
625.856	46.2825
628.9	41.9425
631.944	43.1882
634.986	20.7955
638.026	29.4746
641.066	26.7956
644.104	30.6571
647.14	29.8269
650.177	25.2338
653.211	35.6339
656.244	43.1724
659.276	31.0184
662.308	24.5041
665.336	25.4903
668.365	20.8768
671.393	18.1861
674.418	15.5824
677.443	13.8997
680.467	18.7319
683.489	4.0108
686.511	8.89247
689.53	0.730339
692.549	6.59633
695.567	17.1574
698.582	15.5515
701.598	11.1192
704.611	16.9996
707.624	12.5328
710.635	14.6162
713.646	10.0308
716.655	11.0901
719.662	-0.069252
722.669	5.6941
725.674	-0.780579
728.679	13.3633
731.681	7.79665
734.683	9.72852
737.683	4.17005
740.683	7.0349
743.681	2.42641
746.678	8.10031
749.673	11.9051
752.669	13.8697
755.661	7.43983
758.654	1.98616
761.645	15.2299
764.635	9.84921
767.623	10.0859
770.611	9.3856
773.597	12.4374
776.582	11.7253
779.565	10.0485
782.549	10.2292
785.53	10.3919
788.511	19.0269
791.489	17.2843
794.466	7.97565
797.444	15.6237
800.419	7.213
803.394	9.15982
806.366	16.7429
809.339	14.8974
812.309	3.62356
815.278	10.2127
818.247	16.7762
821.214	15.8156
824.18	14.8505
827.145	13.8835
830.108	15.7469
833.072	11.1269
836.033	16.8155
838.992	16.9339
841.952	8.6786
844.909	8.82133
847.865	19.2804
850.822	11.008
853.776	11.1771
856.728	19.819
859.681	11.5337
862.631	13.6017
865.58	21.3414
868.528	21.5328
871.476	19.8074
874.422	18.9928
877.366	27.6329
880.311	27.733
883.253	32.5615
886.194	34.522
889.134	27.9221
892.074	36.4867
895.012	31.7573
897.948	30.7861
900.883	31.6693
903.818	32.5346
906.751	32.4507
909.683	20.0943
912.614	28.4918
915.543	21.8216
918.473	31.1853
921.4	25.5333
924.326	32.1327
927.251	32.1817
930.174	28.5259
933.098	27.6826
936.019	40.0721
938.94	35.5782
941.859	41.4763
944.777	50.2379
947.693	51.4639
950.61	62.1979
953.525	71.051
956.438	67.5131
959.35	77.3051
962.261	79.4472
965.171	76.7621
968.08	81.7314
970.988	87.6308
973.894	95.4117
976.801	96.4126
979.705	124.201
982.608	156.71
985.51	164.226
988.411	181.286
991.311	170.558
994.209	169.393
997.107	147.237
1000	137.549
1002.9	102.147
1005.79	99.2285
1008.68	89.6821
1011.58	84.0324
1014.47	96.5265
1017.36	91.8391
1020.25	108.173
1023.13	102.606
1026.02	116.212
1028.9	105.916
1031.79	97.5194
1034.67	91.0445
1037.55	73.9838
1040.43	67.47
1043.31	67.6877
1046.19	65.9824
1049.07	61.3283
1051.94	55.6637
1054.82	58.7011
1057.69	52.0096
1060.56	42.3627
1063.44	40.4517
1066.31	43.3449
1069.17	45.2669
1072.04	41.3651
1074.91	38.4222
1077.77	38.3764
1080.64	41.2314
1083.5	53.7778
1086.37	59.5294
1089.23	64.3325
1092.09	73.9718
1094.95	96.193
1097.8	100.968
1100.66	110.582
1103.52	124.087
1106.37	119.318
1109.22	94.1694
1112.08	72.9602
1114.93	69.293
1117.78	57.8712
1120.63	59.0194
1123.48	48.4443
1126.32	57.3401
1129.17	47.7292
1132.01	48.8458
1134.86	50.9463
1137.7	64.8031
1140.54	64.9682
1143.38	75.9111
1146.22	81.9008
1149.06	89.8813
1151.89	107.676
1154.73	129.358
1157.56	136.21
1160.4	94.7793
1163.23	76.9123
1166.06	50.2326
1168.89	50.1045
1171.72	42.1278
1174.55	33.1815
1177.38	24.2465
1180.2	30.9868
1183.03	21.128
1185.85	17.1778
1188.67	20.0898
1191.49	14.2201
1194.31	22.0673
1197.13	9.39763
1199.95	15.3371
1202.77	17.4109
1205.58	7.71915
1208.4	13.7519
1211.21	6.99065
1214.02	5.15764
1216.84	3.32934
1219.65	9.43813
1222.46	5.63498
1225.27	-0.180954
1228.07	2.96544
1230.88	8.11688
1233.68	6.2473
1236.49	4.35585
1239.29	4.45213
1242.09	9.56071
1244.89	8.60091
1247.69	6.60791
1250.49	3.57729
1253.29	5.59344
1256.08	15.6627
1258.88	11.5623
1261.67	15.5148
1264.47	9.37593
1267.26	7.28049
1270.05	10.2101
1272.84	6.07496
1275.63	10.9882
1278.42	17.8919
1281.2	68.9003
1283.99	90.7736
1286.77	27.5543
1289.56	8.45255
1292.34	15.3791
1295.12	6.33099
1297.9	4.29456
1300.68	0.266602
1303.46	6.25829
1306.23	3.27817
1309.01	4.32275
1311.78	1.39459
1314.56	7.50574
1317.33	6.59856
1320.1	5.69682
1322.87	3.79111
1325.64	5.93446
1328.41	9.1029
1331.18	5.17549
1333.94	1.2164
1336.71	6.40893
1339.47	6.5047
1342.24	4.52965
1345	1.51093
1347.76	4.62388
1350.52	5.68758
1353.28	0.588341
1356.04	7.79051
1358.79	1.63244
1361.55	2.64967
1364.3	9.81736
1367.06	8.74734
1369.81	6.6428
1372.56	14.8083
1375.31	4.48447
1378.06	13.6752
1380.81	20.8056
1383.56	56.6733
1386.3	154.099
1389.05	63.7164
1391.79	14.4268
1394.53	5.1682
1397.28	7.24428
1400.02	12.403
1402.76	8.30852
1405.5	10.391
1408.23	25.8748
1410.97	12.524
1413.71	5.34763
1416.44	4.36389
1419.17	8.54938
1421.91	4.46428
1424.64	7.63478
1427.37	1.46701
1430.1	3.6048
1432.83	3.66281
1435.55	12.0579
1438.28	2.73133
1441.01	-2.44654
1443.73	3.88367
1446.45	6.02831
1449.17	6.05714
1451.89	8.16354
1454.62	2.91222
1457.33	-0.259697
1460.05	1.80584
1462.77	-3.48959
1465.48	6.95737
1468.2	3.74905
1470.91	0.542465
1473.63	-1.61011
1476.34	3.5936
1479.05	11.9604
1481.76	0.380928
1484.47	1.40678
1487.17	7.69707
1489.88	3.49006
1492.59	6.65304
1495.29	4.56938
1497.99	9.86246
1500.7	5.68042
1503.4	1.49415
1506.1	8.93752
1508.8	5.82354
1511.5	8.00593
1514.19	2.7714
1516.89	0.718048
1519.59	0.794754
1522.28	3.00627
1524.97	3.09581
1527.67	4.24947
1530.36	6.48646
1533.05	3.37057
1535.74	4.53567
1538.42	-0.794189
1541.11	7.89452
1543.8	0.360062
1546.48	1.42847
1549.16	12.2055
1551.85	-0.841461
1554.53	10.9537
1557.21	9.75328
1559.89	10.7293
1562.57	10.6313
1565.25	1.90067
1567.93	5.03545
1570.6	7.08788
1573.28	2.67833
1575.95	13.3528
1578.62	8.98108
1581.29	1.38805
1583.97	12.1005
1586.64	6.67176
1589.3	7.709
1591.97	0.1381
1594.64	10.8949
1597.3	0.104996
1599.97	11.9705
1602.63	6.58498
1605.3	7.68761
1607.96	2.31538
1610.62	5.61839
1613.28	12.209
1615.94	9.04518
1618.59	5.87914
1621.25	10.3465
1623.91	6.07413
1626.56	11.6502
1629.21	7.36042
1631.87	15.1522
1634.52	9.72279
1637.17	2.04925
1639.82	11.9679
1642.47	2.01784
1645.12	5.33411
1647.76	11.9654
1650.41	-0.228882
1653.05	11.9317
1655.7	6.35609
1658.34	7.41569
1660.98	4.03339
1663.62	6.19271
1666.26	14.9988
1668.9	12.7122
1671.54	12.6416
1674.18	5.91569
1676.81	11.3769
1679.45	6.86428
1682.08	1.22519
1684.71	11.0878
1687.34	10.9718
1689.98	8.64912
1692.61	7.44809
1695.23	7.37402
1697.86	1.79187
1700.49	9.54779
1703.12	6.37064
1705.74	0.934792
1708.36	5.50132
1710.99	10.9293
1713.61	9.69828
1716.23	7.46181
1718.85	10.8891
1721.47	14.2705
1724.09	3.05519
1726.7	4.1779
1729.32	10.9195
1731.94	0.826981
1734.55	5.32627
1737.16	4.20348
1739.77	5.33056
1742.39	1.94901
1745	14.3608
1747.61	7.57951
1750.21	12.0787
1752.82	12.0518
1755.43	2.96489
1758.03	15.3594
1760.64	9.63053
1763.24	7.29505
1765.84	7.22853
1768.44	1.50211
1771.05	10.5065
1773.64	9.31671
1776.24	9.27059
1778.84	3.56546
1781.44	9.2196
1784.03	5.79606
1786.63	-1.03898
1789.22	3.51634
1791.81	11.5034
1794.41	16.0865
1797	1.25968
1799.59	12.7263
1802.18	16.2044
1804.76	4.77839
1807.35	9.39642
1809.94	10.5572
1812.52	16.3223
1815.11	3.65772
1817.69	7.12368
1820.27	2.50458
1822.85	7.13232
1825.43	3.66833
1828.01	7.15148
1830.59	3.68552
1833.17	19.9606
1835.74	7.20475
1838.32	4.87868
1840.89	14.1926
1843.47	11.8507
1846.04	3.66117
1848.61	10.6459
1851.18	15.305
1853.75	15.2592
1856.32	7.03469
1858.89	4.66782
1861.45	7.00171
1864.02	15.2109
1866.58	6.99152
1869.15	5.80373
1871.71	15.1978
1874.27	16.3416
1876.83	5.6927
1879.39	-2.61765
1881.95	5.59544
1884.51	5.53557
1887.07	7.83929
1889.63	5.38731
1892.18	12.3784
1894.74	8.72668
1897.29	-0.827438
1899.84	1.45889
1902.39	9.70116
1904.94	4.94726
1907.49	6.11581
1910.04	6.12707
1912.59	8.54148
1915.14	7.40714
1917.68	3.86425
1920.23	9.75949
1922.77	6.13564
1925.32	12.096
1927.86	3.70554
1930.4	3.68333
1932.94	10.8532
1935.48	6.02666
1938.02	8.39135
1940.56	11.9525
1943.09	8.29372
1945.63	-1.39462
1948.16	9.36976
1950.7	8.08512
1953.23	5.58463
1955.76	12.7168
1958.29	10.2056
1960.82	10.1001
1963.35	8.78345
1965.88	8.66702
1968.41	9.73965
1970.93	10.8007
1973.46	11.8566
1975.98	0.872185
1978.51	10.3584
1981.03	5.39498
1983.55	12.4669
1986.07	12.321
1988.59	9.77394
1991.11	3.62276
1993.63	2.28577
1996.15	3.35785
1998.66	6.84113
2001.18	9.1283
2003.69	7.81678
2006.2	12.5302
2008.72	8.82919
2011.23	6.34058
2013.74	0.236092
2016.25	15.8081
2018.76	15.712
2021.27	12.005
2023.77	8.31448
2026.28	1.01149
2028.78	6.9885
2031.29	2.11251
2033.79	6.91562
2036.29	12.9377
2038.79	4.43013
2041.3	11.6792
2043.79	9.23148
2046.29	9.2151
2048.79	6.76785
2051.29	3.09348
2053.78	9.12594
2056.28	18.8576
2058.77	10.302
2061.27	6.61977
2063.76	6.60262
2066.25	6.58883
2068.74	11.4754
2071.23	6.54221
2073.72	-4.54889
2076.21	15.1075
2078.69	1.52818
2081.18	5.18524
2083.66	12.5418
2086.15	12.4868
2088.63	7.47533
2091.11	12.3734
2093.59	9.86709
2096.07	6.13396
2098.55	9.84083
2101.03	13.5601
2103.51	8.58718
2105.99	19.802
2108.46	12.3424
2110.94	11.115
2113.41	13.6475
2115.89	6.16538
2118.36	14.9756
2120.83	4.95571
2123.3	10.008
2125.77	8.76768
2128.24	15.0932
2130.71	3.72967
2133.17	12.5815
2135.64	13.8434
2138.11	3.68254
2140.57	7.46622
2143.03	15.0714
2145.49	12.4984
2147.96	8.63421
2150.42	17.4967
2152.88	12.3302
2155.34	17.3592
2157.79	4.50513
2160.25	8.23931
2162.71	-2.09326
2165.16	9.2888
2167.62	11.7152
2170.07	15.4297
2172.52	8.93312
2174.97	6.27253
2177.43	1.04212
2179.88	16.2708
2182.32	3.32787
2184.77	10.8507
2187.22	8.14375
2189.67	5.451
2192.11	13.0143
2194.56	11.6198
2197	8.96183
2199.44	3.75258
2201.89	3.68082
2204.33	13.8929
2206.77	3.56833
2209.21	11.247
2211.64	11.2239
2214.08	-5.55796
2216.52	17.6497
2218.95	11.1933
2221.39	9.8989
2223.82	12.4885
2226.26	15.0843
2228.69	9.89217
2231.12	11.1904
2233.55	8.58479
2235.98	0.755623
2238.41	9.88073
2240.84	3.33831
2243.26	11.1822
2245.69	-3.23354
2248.12	0.685913
2250.54	8.55515
2252.96	1.96761
2255.39	3.26794
2257.81	13.8138
2260.23	9.8571
2262.65	3.23484
2265.07	4.52512
2267.49	3.15643
2269.9	4.42528
2272.32	4.3583
2274.74	12.2479
2277.15	14.8249
2279.57	10.7457
2281.98	14.6247
2284.39	5.18864
2286.8	6.37992
2289.21	0.923843
2291.62	2.11603
2294.03	15.2831
2296.44	13.8236
2298.84	13.7158
2301.25	13.6154
2303.66	4.20352
2306.06	17.4745
2308.46	12.0932
2310.87	13.4002
2313.27	6.69096
2315.67	8.01591
2318.07	5.33369
2320.47	3.98513
2322.87	-2.74817
2325.26	13.3981
2327.66	18.8068
2330.06	1.2858
2332.45	2.65371
2334.85	1.32188
2337.24	12.1947
2339.63	5.44595
2342.02	1.40837
2344.41	2.81374
2346.8	12.4384
2349.19	-1.17398
2351.58	7.08743
2353.97	-1.10604
2356.35	12.643
2358.74	9.90638
2361.12	7.11172
2363.51	12.5996
2365.89	5.68378
2368.27	2.89667
2370.65	8.39956
2373.03	2.83104
2375.41	9.72502
2377.79	8.30891
2380.17	1.30825
2382.55	1.23489
2384.92	3.92023
2387.3	10.7751
2389.67	10.6659
2392.05	3.57928
2394.42	7.62131
2396.79	6.07776
2399.16	3.13917
2401.53	1.59692
2403.9	13.9567
2406.27	-1.51589
2408.64	10.8791
2411.01	2.45665
2413.37	10.7972
2415.74	15.0784
2418.1	12.5043
2420.47	-4.22017
2422.83	4.18587
2425.19	8.31929
2427.55	1.26429
2429.91	19.5876
2432.27	9.73945
2434.63	9.77288
2436.99	-1.50668
2439.34	4.19007
2441.7	1.38154
2444.05	1.40867
2446.41	14.2548
2448.76	17.1578
2451.11	7.21444
2453.47	2.95615
2455.82	13.0103
2458.17	15.9244
2460.51	8.78675
2462.86	-1.24733
2465.21	0.211678
2467.56	7.44045
2469.9	4.56945
2472.25	6.02369
2474.59	7.48442
2476.94	3.15572
2479.28	6.07491
2481.62	-4.09345
2483.96	13.366
2486.3	8.98769
2488.64	1.68139
2490.98	8.96001
2493.32	4.55885
2495.65	23.5721
2497.99	10.3887
2500.32	5.97066
2502.66	-1.39527
2504.99	1.5021
2507.32	10.2781
2509.66	10.2327
2511.99	5.76208
2514.32	13.0638
2516.65	10.0543
2518.98	2.63101
2521.3	21.7819
2523.63	9.93436
2525.96	15.8034
2528.28	8.36738
2530.61	9.80503
2532.93	8.29565
2535.25	-2.10854
2537.57	14.2027
2539.89	5.2813
2542.22	5.27225
2544.53	17.1818
2546.85	-0.693375
2549.17	3.78036
2551.49	9.76003
2553.8	18.7427
2556.12	6.75842
2558.43	11.2316
2560.75	0.732819
2563.06	8.24247
2565.37	21.8042
2567.68	6.79125
2569.99	9.84346
2572.3	-3.70316
2574.61	8.40939
2576.92	2.37925
2579.23	11.4734
2581.53	6.92065
2583.84	14.4708
2586.14	6.83335
2588.45	8.29099
2590.75	-0.929497
2593.05	6.60273
2595.35	3.5134
2597.66	5.01334
2599.96	8.02664
2602.26	-5.74425
2604.55	-1.22413
2606.85	15.5129
2609.15	12.4058
2611.44	10.797
2613.74	3.07339
2616.03	13.7006
2618.33	9.04591
2620.62	15.0972
2622.91	8.90678
2625.2	5.78603
2627.49	8.80197
2629.78	13.3884
2632.07	7.2621
2634.36	1.14084
2636.64	4.27463
2638.93	2.8201
2641.22	10.624
2643.5	7.62778
2645.78	-0.01651
2648.07	3.16608
2650.35	20.3499
2652.63	12.677
2654.91	3.35986
2657.19	8.04037
2659.47	4.91153
2661.75	8.02008
2664.03	6.42642
2666.3	9.51331
2668.58	0.110001
2670.85	12.6483
2673.13	6.42168
2675.4	1.79778
2677.67	11.4143
2679.95	8.51286
2682.22	13.4748
2684.49	12.1006
2686.76	4.36148
2689.03	7.73723
2691.29	22.2673
2693.56	8.04199
2695.83	11.2305
2698.09	8.0499
2700.36	16.1172
2702.62	17.7656
2704.89	12.9737
2707.15	8.17113
2709.41	8.18323
2711.67	1.74274
2713.93	-6.312
2716.19	13.1188
2718.45	11.5336
2720.7	9.9462
2722.96	9.9653
2725.22	16.4431
2727.47	0.209488
2729.73	6.6692
2731.98	13.1078
2734.23	4.94481
2736.49	4.88794
2738.74	12.9512
2740.99	19.431
2743.24	12.9083
2745.49	16.1632
2747.73	-0.119873
2749.98	9.69754
2752.23	6.56349
2754.47	6.65353
2756.72	1.78587
2758.96	10.0003
2761.21	13.2782
2763.45	0.168076
2765.69	11.7074
2767.93	1.89058
2770.17	11.7912
2772.41	3.60054
2774.65	-1.28511
2776.89	5.40739
2779.13	13.7809
2781.36	5.65268
2783.6	15.7581
2785.84	7.60899
2788.07	6.09146
2790.3	14.5742
2792.54	11.3783
2794.77	11.513
2797	11.6222
2799.23	15.0847
2801.46	6.77853
2803.69	20.308
2805.92	5.22762
2808.14	10.3364
2810.37	8.70024
2812.59	3.67821
2814.82	13.8362
2817.04	3.71422
2819.27	8.81467
2821.49	10.5403
2823.71	15.6672
2825.93	8.92867
2828.15	14.059
2830.37	12.395
2832.59	5.62189
2834.81	7.34131
2837.03	2.25478
2839.24	14.2051
2841.46	15.9425
2843.67	14.2747
2845.89	7.49986
2848.1	0.715744
2850.31	4.19891
2852.53	11.1376
2854.74	11.2488
2856.95	-2.37637
2859.16	-4.00156
2861.37	18.4945
2863.57	13.4788
2865.78	1.55663
2867.99	1.70869
2870.19	10.5217
2872.4	3.74025
2874.6	12.5847
2876.81	14.4988
2879.01	7.71072
2881.21	4.4035
2883.41	2.84406
2885.61	25.8284
2887.81	-2.04102
2890.01	13.9614
2892.21	5.34537
2894.41	5.52316
2896.6	14.571
2898.8	21.8892
2901	-4.49622
2903.19	27.6581
2905.38	15.3941
2907.58	4.87161
2909.77	12.1661
2911.96	6.92651
2914.15	7.03404
2916.34	12.5116
2918.53	25.1951
2920.72	18.162
2922.91	20.1045
2925.09	11.2672
2927.28	11.4341
2929.47	24.2461
2931.65	20.8259
2933.83	15.5547
2936.02	6.6228
2938.2	15.7982
2940.38	8.62581
2942.56	3.26392
2944.74	5.16109
2946.92	3.39104
2949.1	5.26642
2951.28	18.0949
2953.46	9.03827
2955.63	1.7934
2957.81	5.50195
2959.98	18.3654
2962.16	12.9518
2964.33	5.70238
2966.5	9.45346
2968.68	24.2275
2970.85	20.6657
2973.02	9.74738
2975.19	19.0515
2977.36	11.7958
2979.52	19.2757
2981.69	8.33165
2983.86	17.7086
2986.03	10.4704
2988.19	31.0108
2990.36	20.082
2992.52	-2.01001
2994.68	18.6126
2996.85	-1.67253
2999.01	4.1115
3001.17	41.691
3003.33	21.3777
3005.49	14.1283
3007.65	16.2412
3009.8	7.06728
3011.96	18.5642
3014.12	22.5777
3016.27	19.0601
3018.43	25.0116
3020.58	23.3945
3022.74	23.6535
3024.89	20.0805
3027.04	22.188
3029.19	24.2872
3031.34	22.5584
3033.49	9.32466
3035.64	28.6006
3037.79	17.2186
3039.94	21.2179
3042.09	36.7342
3044.23	19.5763
3046.38	19.6997
3048.52	33.3021
3050.67	14.1572
3052.81	21.9879
3054.95	27.9139
3057.09	22.2579
3059.24	37.864
3061.38	12.8369
3063.51	28.4611
3065.65	40.2359
3067.79	40.3821
3069.93	5.55579
3072.07	23.1749
3074.2	40.8318
3076.34	35.1464
3078.47	37.2529
3080.61	31.554
3082.74	35.6127
3084.87	35.8002
3087	37.9573
3089.14	42.1083
3091.27	30.5845
3093.39	36.7412
3095.52	39
3097.65	23.5105
3099.78	51.441
3101.91	28.013
3104.03	36.2472
3106.16	36.5784
3108.28	42.8875
3110.41	53.2224
3112.53	47.6207
3114.65	55.9971
3116.77	34.3235
3118.89	58.794
3121.01	43.1041
3123.13	49.5598
3125.25	60.1007
3127.37	24.0701
3129.49	32.5974
3131.61	57.4845
3133.72	47.7691
3135.84	60.5207
3137.95	34.3313
3140.06	59.4195
3142.18	53.6826
3144.29	52.0324
3146.4	52.4285
3148.51	50.7464
3150.62	42.7919
3152.73	74.299
3154.84	49.6325
3156.95	58.2716
3159.06	60.6658
3161.16	46.3273
3163.27	69.6785
3165.37	61.5877
3167.48	59.7652
3169.58	62.1317
3171.69	64.5583
3173.79	56.399
3175.89	54.5046
3177.99	73.7238
3180.09	63.3281
3182.19	74.0759
3184.29	72.1126
3186.39	80.7399
3188.49	74.4773
3190.58	72.5155
3192.68	55.7118
3194.77	62.2782
3196.87	56.1332
3198.96	71.3495
3201.06	54.6738
3203.15	70.012
3205.24	48.986
3207.33	81.6001
3209.42	67.0057
3211.51	67.4513
3213.6	76.5544
3215.69	70.5624
3217.78	79.7162
3219.86	80.1803
3221.95	67.5758
3224.04	68.0154
3226.12	70.6535
3228.2	55.7578
3230.29	84.7066
3232.37	67.5761
3234.45	70.1732
3236.53	55.11
3238.61	73.1989
3240.7	71.4408
3242.77	54.1323
3244.85	52.3809
3246.93	66.1622
3249.01	68.818
3251.08	55.7276
3253.16	78.4451
3255.23	60.7763
3257.31	70.0157
3259.38	83.8773
3261.46	73.0071
3263.53	75.673
3265.6	67.0945
3267.67	60.9581
3269.74	54.4913
3271.81	61.8401
3273.88	59.9191
3275.95	60.1363
3278.02	53.5135
3280.08	69.7614
3282.15	67.711
3284.21	77.1254
3286.28	52.1144
3288.34	70.7177
3290.41	57.1429
3292.47	73.4675
3294.53	57.5492
3296.59	57.7466
3298.65	76.4244
3300.71	74.386
3302.77	44.5431
3304.83	67.9121
3306.89	40.3282
3308.95	54.4493
3311	70.9075
3313.06	64.1362
3315.11	71.3398
3317.17	57.5837
3319.22	81.1242
3321.27	62.7211
3323.33	74.6829
3325.38	56.261
3327.43	54.2127
3329.48	84.9906
3331.53	66.6075
3333.58	71.7267
3335.63	74.4884
3337.67	63.0897
3339.72	65.7646
3341.77	77.8804
3343.81	66.2817
3345.86	85.5053
3347.9	66.7044
3349.95	69.3033
3351.99	95.6877
3354.03	64.9592
3356.07	53.2951
3358.11	84.5665
3360.15	68.1202
3362.19	87.5272
3364.23	78.2229
3366.27	71.2863
3368.31	59.5406
3370.34	69.3936
3372.38	74.432
3374.42	67.4263
3376.45	70.0207
3378.48	99.1188
3380.52	82.4293
3382.55	87.43
3384.58	75.5269
3386.61	63.6027
3388.64	78.2539
3390.68	71.1358
3392.7	71.2718
3394.73	61.7429
3396.76	66.7632
3398.79	76.6465
3400.82	62.2523
3402.84	74.5191
3404.87	86.7879
3406.89	79.6318
3408.92	87.056
3410.94	72.5639
3412.96	67.802
3414.98	89.8169
3417	87.4988
3419.03	92.4823
3421.05	80.3995
3423.06	78.0549
3425.08	78.1551
3427.1	88.0412
3429.12	80.8622
3431.14	98.1207
3433.15	81.1877
3435.17	81.3742
3437.18	88.9227
3439.2	79.3435
3441.21	82.0145
3443.22	67.5195
3445.23	87.4403
3447.25	75.4455
3449.26	83.1285
3451.27	71.0891
3453.28	76.3418
3455.28	89.0595
3457.29	69.6307
3459.3	67.5289
3461.31	77.8613
3463.31	55.8396
3465.32	73.6777
3467.32	76.5748
3469.33	96.9982
3471.33	79.8449
3473.33	87.6553
3475.34	77.9442
3477.34	65.6962
3479.34	66.0243
3481.34	63.8207
3483.34	54.0105
3485.34	61.906
3487.33	74.8922
3489.33	59.9523
3491.33	60.2382
3493.32	63.0618
3495.32	78.6235
3497.32	61.0044
3499.31	74.0132
3501.3	58.8795
3503.3	79.5487
3505.29	66.9259
3507.28	77.3364
3509.27	41.5171
3511.26	64.6951
3513.25	54.4965
3515.24	67.4099
3517.23	64.9067
3519.22	34.1254
3521.2	65.0347
3523.19	57.3845
3525.18	70.3277
3527.16	67.8438
3529.15	57.5932
3531.13	42.2402
3533.11	57.8557
3535.1	58.0457
3537.08	63.4345
3539.06	66.2763
3541.04	61.3209
3543.02	20.0493
3545	51.3151
3546.98	54.0661
3548.96	46.4121
3550.93	56.9118
3552.91	56.923
3554.89	59.5848
3556.86	49.2746
3558.84	49.3811
3560.81	46.8965
3562.78	49.637
3564.76	39.3536
3566.73	39.5197
3568.7	55.4182
3570.67	45.1458
3572.64	66.2876
3574.61	48.1579
3576.58	56.2594
3578.55	46
3580.52	64.6887
3582.48	51.8043
3584.45	54.728
3586.41	47.0788
3588.38	42.0508
3590.35	42.3103
3592.31	47.8808
3594.27	48.1462
3596.23	29.7661
3598.2	46.001
3600.16	43.558
3602.12	43.7834
3604.08	44.0043
3606.04	41.5279
3608	25.6144
3609.95	41.8916
3611.91	39.3749
3613.87	39.5614
3615.83	37.0233
3617.78	39.8818
3619.74	29.2226
3621.69	42.8181
3623.64	37.4709
3625.6	29.4042
3627.55	48.3733
3629.5	43.0006
3631.45	24.0745
3633.4	26.7971
3635.35	26.8331
3637.3	21.4773
3639.25	16.1436
3641.2	35.2433
3643.15	27.2524
3645.09	24.6847
3647.04	33.031
3648.98	33.0549
3650.93	35.8433
3652.87	14.1353
3654.82	25.0894
3656.76	19.6939
3658.7	25.2005
3660.64	36.1661
3662.58	22.5576
3664.53	30.7983
3666.47	22.6685
3668.4	14.5354
3670.34	25.53
3672.28	42.0087
3674.22	6.51549
3676.16	25.7961
3678.09	-12.4738
3680.03	15.0941
3681.96	15.2509
3683.9	20.9307
3685.83	18.3787
3687.76	24.101
3689.69	35.369
3691.63	27.2995
3693.56	19.1866
3695.49	2.70848
3697.42	0.105911
3699.35	30.88
3701.28	14.3801
3703.2	8.96704
3705.13	31.5
3707.06	9.34517
3708.98	17.9384
3710.91	26.5506
3712.83	21.1416
3714.76	10.071
3716.68	27.1149
3718.6	27.2742
3720.53	13.3196
3722.45	19.0981
3724.37	10.744
3726.29	13.6823
3728.21	16.6288
3730.13	13.9135
3732.05	22.555
3733.97	17.014
3735.88	5.77853
3737.8	5.89543
3739.72	20.2428
3741.63	8.95787
3743.55	-2.34549
3745.46	14.8683
3747.38	20.6745
3749.29	15.0461
3751.2	12.2572
3753.11	20.899
3755.02	12.3638
3756.93	29.5794
3758.84	18.1574
3760.75	9.58659
3762.66	15.3389
3764.57	3.89313
3766.48	29.7119
3768.39	-1.78816
3770.29	3.99249
3772.2	12.6557
3774.1	-4.5152
3776.01	15.6407
3777.91	4.21552
3779.81	18.672
3781.72	-1.36887
3783.62	7.37366
3785.52	16.1322
3787.42	7.591
3789.32	22.1173
3791.22	7.78476
3793.12	13.6816
3795.02	19.6081
3796.92	31.3512
3798.81	8.33517
3800.71	11.3949
3802.61	2.84583
3804.5	29.1843
3806.4	-5.55028
3808.29	15.0189
3810.18	12.2818
3812.08	3.68636
3813.97	15.5398
3815.86	27.4146
3817.75	7.08566
3819.64	18.9731
3821.53	19.1351
3823.42	1.66197
3825.31	16.4875
3827.2	16.6323
3829.09	-0.882675
3830.97	8.11562
3832.86	25.9864
3834.75	23.2112
3836.63	23.379
3838.52	5.78984
3840.4	20.7367
3842.28	9.11168
3844.17	18.1483
3846.05	9.36296
3847.93	0.53746
3849.81	18.4428
3851.69	-5.22902
3853.57	0.781876
3855.45	12.7507
3857.33	-2.05333
3859.21	-10.9283
3861.08	21.8355
3862.96	13.0025
3864.84	10.1841
3866.71	1.46204
3868.59	10.6558
3870.46	13.8602
3872.34	-0.966949
3874.21	2.12032
3876.08	5.22069
3877.95	14.3015
3879.82	-6.50778
3881.69	5.57635
3883.56	-9.25092
3885.44	8.84721
3887.3	17.9864
3889.17	3.17058
3891.04	-5.65419
3892.91	9.53381
3894.77	3.76886
3896.64	9.99826
3898.51	4.19533
3900.37	19.4644
3902.23	19.6941
3904.1	-4.20659
3905.96	-3.99373
3907.82	8.28596
3909.69	17.5749
3911.55	-6.35837
3913.41	21.1163
3915.27	12.303
3917.13	6.52272
3918.99	15.9243
3920.84	10.1744
3922.7	16.5874
3924.56	26.0548
3926.42	8.08813
3928.27	-0.762497
3930.13	14.8173
3931.98	5.94092
3933.84	9.27591
3935.69	15.6804
3937.54	12.8943
3939.4	10.1274
3941.25	10.4464
3943.1	7.71645
3944.95	11.1267
3946.8	23.7837
3948.65	17.9627
3950.5	18.2878
3952.35	0.0807953
3954.19	3.4742
3956.04	-5.49278
3957.89	25.7381
3959.73	10.5575
3961.58	17.0381
3963.42	20.4312
3965.27	11.4258
3967.11	17.9007
3968.96	18.1681
3970.8	2.94655
3972.64	21.8334
3974.48	-2.6759
3976.32	10.023
3978.16	13.4192
3980	13.7057
3981.84	10.8848
3983.68	14.2748
3985.52	23.8788
3987.36	21.0776
3989.19	-0.315765
3991.03	18.628
3992.86	6.57864
3994.7	13.1574
3996.53	1.13834
3998.37	1.54724
