#Acq. time (s)=	60
#Accumulations=	2
#Range (cm-¹)=	100...4000
#Windows=	1
#Auto scanning=	Off
#Autofocus=	Off
#Macrospot=	Off
#AutoExposure=	Off
#Spike filter=	Multiple accum.
#Delay time (s)=	2
#Binning=	1
#Readout mode=	Signal
#DeNoise=	Off
#ICS correction=	On
#Dark correction=	Off
#Inst. Process=	Off
#Detector Gain=	Best Dynamic
#Detector ADC=	50 kHz HS
#Detector temperature (°C)=	-60.09
#Instrument=	LabRAM HR Evol
#Detector=	SIN-EM FIVIS
#Objective=	x100_VIS
#Grating=	150 (500nm)
#ND Filter=	100%
#Laser=	633nm_Edge
#Hole=	49.98
#Temperature=	0
#Range=	Visible
#StageXY=	75x50mm Scan+
#StageZ=	Z motor
#X (µm)=	0
#Y (µm)=	0
#Z (µm)=	-266.5
#Full time(mm:ss)=	2:04
#Project=	21_11_04
#Sample=	BU19w
#Site=	
#Title=	BU19w-E-FF11-FI10-L_150 (500nm)_633nm_Edge_100%_x100_VIS_H50um_60sX2
#Remark=	
#Date=	04.11.2021 12:03
#Acquired=	04.11.2021 12:03:28
#Base:Fit=	16.12.2021 17:39:50
#Base:Edit=	16.12.2021 17:53:12
#Base:Edit=	16.12.2021 17:53:13
#Base:Edit=	16.12.2021 17:53:15
#Base:Edit=	16.12.2021 17:53:15
#Base:Edit=	16.12.2021 17:53:16
#Base:Edit=	16.12.2021 17:53:17
#Base:Sub=	16.12.2021 17:53:19
102.881	294.382
106.139	276.528
109.397	262.457
112.653	233.979
115.908	223.543
119.161	206.263
122.414	187.023
125.664	157.153
128.914	183.658
132.162	176.567
135.409	159.811
138.654	152.497
141.898	182.456
145.14	171.275
148.383	159.072
151.622	152.593
154.861	148.043
158.098	171.212
161.335	179.996
164.569	209.826
167.801	210.82
171.034	193.504
174.264	131.016
177.494	86.6315
180.721	78.5951
183.949	52.2343
187.173	55.4905
190.396	50.0349
193.62	27.3559
196.84	23.8094
200.061	21.27
203.279	26.4851
206.496	12.5636
209.712	0.486145
212.926	5.55136
216.139	5.82709
219.352	7.96802
222.562	11.9652
225.772	13.0233
228.979	45.3674
232.185	84.3351
235.392	132.795
238.595	202.109
241.797	180.134
244.999	106.06
248.199	52.8544
251.397	30.9372
254.595	16.5893
257.791	14.5897
260.985	37.2528
264.178	18.1534
267.371	41.7354
270.561	34.9622
273.75	30.0776
276.939	28.0274
280.125	22.1365
283.31	56.9664
286.494	52.88
289.678	46.8522
292.859	25.6192
296.039	6.28152
299.217	3.03537
302.396	-6.85699
305.572	-8.2616
308.746	-2.11359
311.919	11.5773
315.093	33.7452
318.263	81.3675
321.433	141.274
324.601	243.633
327.768	338.387
330.935	324.677
334.099	251.521
337.262	175.52
340.423	107.07
343.584	53.7009
346.743	51.2066
349.902	53.418
353.058	50.8704
356.213	63.3543
359.367	73.9195
362.52	79.7465
365.671	83.668
368.821	69.7213
371.971	43.5703
375.119	47.4598
378.265	4.42834
381.41	6.4496
384.553	-5.55
387.696	-0.590378
390.837	3.48543
393.976	5.72592
397.116	6.12224
400.253	0.955475
403.389	8.91551
406.524	13.1018
409.657	4.07135
412.789	5.36127
415.92	16.9786
419.05	17.2829
422.178	42.1048
425.305	37.4652
428.431	55.3007
431.555	59.8016
434.678	87.8604
437.8	83.8015
440.921	87.2708
444.04	88.8255
447.158	89.395
450.275	79.6216
453.391	81.1224
456.505	92.9313
459.618	93.5686
462.73	99.8758
465.84	90.4134
468.949	50.2113
472.057	38.9546
475.164	36.1389
478.27	34.2863
481.374	27.7495
484.477	24.9224
487.579	22.0894
490.679	36.9606
493.778	38.7954
496.876	43.4044
499.973	42.426
503.068	39.6054
506.162	57.2903
509.255	55.3932
512.346	74.0438
515.436	63.7685
518.525	91.8237
521.613	79.7654
524.7	75.1907
527.785	80.0043
530.869	87.6807
533.952	94.4707
537.033	95.6307
540.113	77.8884
543.192	62.8816
546.27	63.8254
549.347	75.0332
552.423	53.2304
555.497	52.1637
558.568	49.0956
561.64	26.0947
564.711	36.0881
567.78	36.5849
570.848	42.6675
573.915	29.894
576.979	22.7478
580.043	21.2446
583.107	36.6238
586.169	31.4347
589.228	33.7592
592.287	51.0701
595.345	57.204
598.402	69.0023
601.458	69.7491
604.511	78.9604
607.565	76.994
610.617	79.7327
613.667	91.8542
616.716	94.7228
619.764	87.279
622.811	88.2977
625.856	79.0032
628.9	61.9986
631.944	67.4773
634.986	57.7638
638.026	51.7196
641.066	51.2586
644.104	50.6908
647.14	34.1639
650.177	44.9252
653.211	57.4634
656.244	72.7438
659.276	54.2592
662.308	47.0393
665.336	44.528
668.365	31.7616
671.393	25.6365
674.418	22.4674
677.443	13.6815
680.467	21.6578
683.489	19.436
686.511	14.4435
689.53	5.75798
692.549	0.827744
695.567	3.37636
698.582	5.91965
701.598	5.6393
704.611	3.46236
707.624	7.83128
710.635	4.63496
713.646	8.81415
716.655	-0.162781
719.662	-0.68663
722.669	11.0176
725.674	1.06549
728.679	13.5895
731.681	10.1497
734.683	2.96748
737.683	7.01764
740.683	9.19458
743.681	-7.30533
746.678	5.16632
749.673	-3.82375
752.669	-6.23622
755.661	0.666824
758.654	16.0331
761.645	-3.95999
764.635	2.21237
767.623	-1.86082
770.611	-3.13806
773.597	6.83987
776.582	1.78934
779.565	7.0341
782.549	-7.51575
785.53	5.19868
788.511	4.71655
791.489	-3.33253
794.466	0.843994
797.444	-4.44058
800.419	5.32394
803.394	13.1686
806.366	10.6163
809.339	7.1178
812.309	7.35057
815.278	10.3753
818.247	7.74031
821.214	13.5391
824.18	5.26372
827.145	0.743439
830.108	5.61487
833.072	16.1739
836.033	3.42551
838.992	9.41519
841.952	5.19298
844.909	12.1747
847.865	3.2426
850.822	0.87999
853.776	16.3686
856.728	13.0909
859.681	7.92738
862.631	15.0106
865.58	18.3313
868.528	26.3848
871.476	38.2068
874.422	41.4615
877.366	41.8271
880.311	39.328
883.253	43.4416
886.194	50.3656
889.134	45.8684
892.074	52.7284
895.012	55.7696
897.948	43.5798
900.883	44.5974
903.818	47.4777
906.751	38.0691
909.683	46.5831
912.614	41.8896
915.543	38.1556
918.473	26.9814
921.4	30.891
924.326	32.977
927.251	41.6753
930.174	54.2252
933.098	45.1497
936.019	57.8007
938.94	61.1486
941.859	68.3098
944.777	84.9654
947.693	91.2818
950.61	134.687
953.525	119.186
956.438	144.608
959.35	139.477
962.261	146.723
965.171	128.05
968.08	149.585
970.988	158.618
973.894	166.622
976.801	200.439
979.705	227.373
982.608	286.803
985.51	332.679
988.411	372.701
991.311	361.919
994.209	343.48
997.107	289.772
1000	259.102
1002.9	218.976
1005.79	196.118
1008.68	175.257
1011.58	195.545
1014.47	180.598
1017.36	199.971
1020.25	203.16
1023.13	221.75
1026.02	223.245
1028.9	215.191
1031.79	177.391
1034.67	182.757
1037.55	148.722
1040.43	129.997
1043.31	123.752
1046.19	111.703
1049.07	107.295
1051.94	99.9182
1054.82	100.257
1057.69	93.7563
1060.56	93.989
1063.44	73.7665
1066.31	89.3932
1069.17	79.7644
1072.04	60.4326
1074.91	66.3276
1077.77	78.0138
1080.64	80.944
1083.5	87.7473
1086.37	113.925
1089.23	116.874
1092.09	145.964
1094.95	178.911
1097.8	192.46
1100.66	220.521
1103.52	238.942
1106.37	212.081
1109.22	170.598
1112.08	146.66
1114.93	124.841
1117.78	103
1120.63	109.236
1123.48	106.657
1126.32	108.93
1129.17	87.8158
1132.01	87.1737
1134.86	97.3006
1137.7	113.315
1140.54	132.334
1143.38	148.398
1146.22	163.405
1149.06	172.556
1151.89	218.072
1154.73	245.777
1157.56	244.821
1160.4	199.48
1163.23	140.27
1166.06	116.522
1168.89	76.1438
1171.72	64.265
1174.55	57.2972
1177.38	58.159
1180.2	37.5434
1183.03	39.4537
1185.85	30.683
1188.67	28.79
1191.49	30.8154
1194.31	37.7926
1197.13	21.3227
1199.95	23.4745
1202.77	21.7719
1205.58	17.1348
1208.4	12.5077
1211.21	5.88736
1214.02	15.0676
1216.84	18.3673
1219.65	9.78692
1222.46	11.1193
1225.27	12.4569
1228.07	14.7917
1230.88	15.1121
1233.68	12.3952
1236.49	7.63323
1239.29	7.85895
1242.09	11.0646
1244.89	2.13084
1247.69	5.26961
1250.49	3.32299
1253.29	9.45279
1256.08	10.4869
1258.88	2.39509
1261.67	6.38837
1264.47	8.35728
1267.26	7.30537
1270.05	18.3198
1272.84	17.215
1275.63	11.0802
1278.42	15.9913
1281.2	11.8695
1283.99	7.77312
1286.77	2.69959
1289.56	6.65
1292.34	16.6121
1295.12	8.60735
1297.9	10.618
1300.68	11.6395
1303.46	2.70452
1306.23	16.8033
1309.01	9.93781
1311.78	4.11301
1314.56	0.293312
1317.33	14.5721
1320.1	2.71265
1322.87	11.0126
1325.64	10.2566
1328.41	0.379684
1331.18	11.7902
1333.94	11.0095
1336.71	3.07935
1339.47	10.4212
1342.24	6.49999
1345	3.56914
1347.76	7.79003
1350.52	5.86007
1353.28	8.01913
1356.04	11.188
1358.79	10.2311
1361.55	11.3076
1364.3	19.5525
1367.06	16.4675
1369.81	20.5651
1372.56	24.6543
1375.31	30.8004
1378.06	46.1839
1380.81	45.1277
1383.56	26.6178
1386.3	28.6414
1389.05	14.2471
1391.79	20.4029
1394.53	5.03529
1397.28	4.09784
1400.02	8.29228
1402.76	-2.94032
1405.5	-5.94589
1408.23	8.56301
1410.97	9.70245
1413.71	8.79024
1416.44	8.92165
1419.17	-2.32681
1421.91	11.261
1424.64	10.3744
1427.37	-1.93838
1430.1	4.43669
1432.83	11.8643
1435.55	-3.62314
1438.28	1.72151
1441.01	6.02226
1443.73	7.21465
1446.45	2.10778
1449.17	0.103043
1451.89	11.7053
1454.62	3.35947
1457.33	3.38274
1460.05	10.7391
1462.77	5.47894
1465.48	8.60653
1468.2	6.47702
1470.91	0.150558
1473.63	10.6242
1476.34	6.41682
1479.05	16.9242
1481.76	8.53676
1484.47	12.76
1487.17	-1.91367
1489.88	0.234528
1492.59	5.55588
1495.29	14.0639
1497.99	7.83393
1500.7	17.433
1503.4	-2.51576
1506.1	17.6842
1508.8	7.246
1511.5	9.5079
1514.19	8.6051
1516.89	11.9635
1519.59	-2.77
1522.28	0.589554
1524.97	6.11066
1527.67	7.35676
1530.36	1.10648
1533.05	10.9746
1535.74	10.0885
1538.42	7.00075
1541.11	10.3761
1543.8	14.7986
1546.48	12.6776
1549.16	11.5928
1551.85	8.30537
1554.53	15.783
1557.21	10.263
1559.89	11.2496
1562.57	9.00626
1565.25	5.6815
1567.93	6.66905
1570.6	2.26598
1573.28	15.1011
1575.95	20.4027
1578.62	13.9028
1581.29	14.9496
1583.97	7.392
1586.64	20.2995
1589.3	11.6822
1591.97	18.1578
1594.64	12.7976
1597.3	7.44984
1599.97	8.57578
1602.63	23.7677
1605.3	15.2132
1607.96	25.0731
1610.62	14.385
1613.28	28.6711
1615.94	25.6213
1618.59	13.8544
1621.25	22.7937
1623.91	24.1031
1626.56	35.2806
1629.21	39.9074
1631.87	26.9341
1634.52	33.7211
1637.17	26.1468
1639.82	38.3316
1642.47	31.7604
1645.12	25.1987
1647.76	37.4237
1650.41	26.395
1653.05	24.2083
1655.7	26.4315
1658.34	33.07
1660.98	33.0466
1663.62	35.2377
1666.26	21.8901
1668.9	26.2815
1671.54	25.1249
1674.18	22.8579
1676.81	17.246
1679.45	24.9512
1682.08	19.321
1684.71	13.67
1687.34	15.775
1689.98	5.71009
1692.61	22.2349
1695.23	15.541
1697.86	14.4228
1700.49	27.7808
1703.12	21.4194
1705.74	13.8889
1708.36	11.8755
1710.99	11.7159
1713.61	18.2958
1716.23	8.30128
1718.85	7.33342
1721.47	15.2418
1724.09	4.06673
1726.7	15.3272
1729.32	10.9134
1731.94	26.7043
1734.55	13.2925
1737.16	15.6026
1739.77	10.0309
1742.39	19.1046
1745	13.5242
1747.61	5.6565
1750.21	11.3242
1752.82	9.0718
1755.43	9.06992
1758.03	2.25193
1760.64	6.73264
1763.24	3.28672
1765.84	6.64088
1768.44	2.07255
1771.05	13.3699
1773.64	21.2766
1776.24	7.65766
1778.84	9.93041
1781.44	4.2727
1784.03	11.1152
1786.63	16.8414
1789.22	14.6333
1791.81	21.543
1794.41	19.3402
1797	18.2821
1799.59	10.3769
1802.18	15.0551
1804.76	7.12809
1807.35	10.6551
1809.94	8.41574
1812.52	17.6803
1815.11	8.52276
1817.69	7.42721
1820.27	13.251
1822.85	7.53139
1825.43	19.1673
1828.01	21.5583
1830.59	11.198
1833.17	10.1046
1835.74	3.20644
1838.32	20.7215
1840.89	16.1039
1843.47	9.13715
1846.04	14.9982
1848.61	5.66682
1851.18	16.2083
1853.75	19.7028
1856.32	10.3451
1858.89	11.5354
1861.45	10.3979
1864.02	11.6051
1866.58	12.8334
1869.15	6.98532
1871.71	21.1278
1874.27	-2.44366
1876.83	8.15617
1879.39	15.2178
1881.95	6.93987
1884.51	11.632
1887.07	17.5102
1889.63	10.3477
1892.18	14.9863
1894.74	13.71
1897.29	12.4475
1899.84	13.5753
1902.39	6.47093
1904.94	11.2313
1907.49	11.2597
1910.04	17.2633
1912.59	16.1834
1915.14	12.7414
1917.68	16.4215
1920.23	13.9881
1922.77	11.5928
1925.32	-2.72865
1927.86	9.25118
1930.4	15.2626
1932.94	12.888
1935.48	-2.70311
1938.02	9.29626
1940.56	9.28214
1943.09	20.0815
1945.63	20.0511
1948.16	6.77037
1950.7	21.1605
1953.23	13.8603
1955.76	12.5737
1958.29	12.4851
1960.82	22.0329
1963.35	14.7
1965.88	14.5917
1968.41	19.2821
1970.93	13.1117
1973.46	17.779
1975.98	0.771538
1978.51	15.0723
1981.03	12.5129
1983.55	14.7693
1986.07	8.6086
1988.59	12.0763
1991.11	4.72404
1993.63	13.0075
1996.15	15.2852
1998.66	18.7751
2001.18	11.4542
2003.69	16.1657
2006.2	11.2748
2008.72	6.38631
2011.23	12.3406
2013.74	13.4814
2016.25	20.6465
2018.76	18.1567
2021.27	6.03008
2023.77	12.0046
2026.28	9.55505
2028.78	16.7732
2031.29	16.7707
2033.79	8.318
2036.29	7.11215
2038.79	5.90577
2041.3	22.8976
2043.79	16.8559
2046.29	1.08295
2048.79	-1.33347
2051.29	16.9527
2053.78	20.583
2056.28	31.5808
2058.77	3.53196
2061.27	10.8895
2063.76	18.2637
2066.25	6.04581
2068.74	22.0148
2071.23	9.75991
2073.72	19.6167
2076.21	18.4071
2078.69	19.6532
2081.18	13.4943
2083.66	24.5921
2086.15	19.6329
2088.63	10.9427
2091.11	13.4003
2093.59	24.5509
2096.07	22.1144
2098.55	23.3987
2101.03	12.2659
2103.51	2.35918
2105.99	26.0692
2108.46	29.8932
2110.94	17.4977
2113.41	21.3437
2115.89	23.952
2118.36	20.2926
2120.83	10.3337
2123.3	28.0346
2125.77	18.0464
2128.24	25.6969
2130.71	14.3949
2133.17	14.4449
2135.64	25.8907
2138.11	27.2042
2140.57	28.5136
2143.03	12.0219
2145.49	18.3926
2147.96	12.0197
2150.42	24.7389
2152.88	14.5019
2155.34	17.0043
2157.79	22.0524
2160.25	16.871
2162.71	15.5049
2165.16	15.4004
2167.62	16.5609
2170.07	11.3397
2172.52	33.0026
2174.97	18.8545
2177.43	21.3264
2179.88	0.723724
2182.32	17.2357
2184.77	23.4822
2187.22	16.9436
2189.67	19.3854
2192.11	16.7242
2194.56	12.7867
2197	15.2776
2199.44	17.7922
2201.89	15.1944
2204.33	7.47159
2206.77	29.3089
2209.21	13.8949
2211.64	20.3562
2214.08	22.9671
2216.52	8.8195
2218.95	17.91
2221.39	12.7899
2223.82	14.1357
2226.26	12.8896
2228.69	9.04222
2231.12	27.298
2233.55	14.3421
2235.98	9.17693
2238.41	24.8899
2240.84	2.72615
2243.26	0.146408
2245.69	18.5338
2248.12	15.9689
2250.54	12.0803
2252.96	4.22954
2255.39	1.62926
2257.81	17.4999
2260.23	21.5226
2262.65	14.962
2265.07	0.424698
2267.49	11.0176
2269.9	18.9613
2272.32	8.32407
2274.74	8.28131
2277.15	16.2016
2279.57	14.8098
2281.98	8.07564
2284.39	18.6098
2286.8	6.51756
2289.21	10.3933
2291.62	10.274
2294.03	10.1521
2296.44	8.71181
2298.84	20.6107
2301.25	13.8802
2303.66	21.8263
2306.06	16.4744
2308.46	15.1377
2310.87	19.1651
2313.27	13.8462
2315.67	13.8903
2318.07	-2.14149
2320.47	16.6939
2322.87	30.1936
2325.26	22.2079
2327.66	16.9002
2330.06	2.13283
2332.45	14.3771
2334.85	22.602
2337.24	21.3653
2339.63	16.0517
2342.02	9.37625
2344.41	12.225
2346.8	12.3816
2349.19	2.94061
2351.58	11.2766
2353.97	20.9957
2356.35	4.59824
2358.74	14.2933
2361.12	14.3021
2363.51	12.9507
2365.89	10.2266
2368.27	10.2578
2370.65	14.4335
2373.03	7.53371
2375.41	22.7964
2377.79	8.95279
2380.17	22.8233
2382.55	20.0241
2384.92	15.8006
2387.3	11.5654
2389.67	11.4856
2392.05	9.99066
2394.42	11.274
2396.79	15.3177
2399.16	11.0062
2401.53	16.4438
2403.9	5.15891
2406.27	14.7531
2408.64	-3.44481
2411.01	4.87578
2413.37	17.4518
2415.74	6.45319
2418.1	19.366
2420.47	16.7751
2422.83	22.4448
2425.19	13.9676
2427.55	14.0081
2429.91	12.6699
2432.27	2.87038
2434.63	8.60873
2436.99	10.1317
2439.34	14.4912
2441.7	1.82085
2444.05	16.1306
2446.41	17.6681
2448.76	20.639
2451.11	16.4774
2453.47	20.8767
2455.82	9.5289
2458.17	19.6728
2460.51	-0.329376
2462.86	17.0224
2465.21	18.5671
2467.56	14.3365
2469.9	11.5315
2472.25	14.4963
2474.59	14.5752
2476.94	13.2139
2479.28	8.94197
2481.62	14.8265
2483.96	16.3478
2486.3	20.7657
2488.64	25.191
2490.98	9.17679
2493.32	20.903
2495.65	23.8869
2497.99	18.0756
2500.32	13.7112
2502.66	22.541
2504.99	18.1586
2507.32	13.7596
2509.66	3.45869
2511.99	9.32692
2514.32	19.6137
2516.65	22.5402
2518.98	16.6401
2521.3	22.5568
2523.63	25.5256
2525.96	9.26582
2528.28	15.1816
2530.61	15.1826
2532.93	24.0945
2535.25	21.166
2537.57	12.2997
2539.89	18.2861
2542.22	9.40762
2544.53	16.8982
2546.85	11.0004
2549.17	22.9979
2551.49	29.0455
2553.8	23.1334
2556.12	23.1756
2558.43	18.7097
2560.75	5.26208
2563.06	12.8217
2565.37	20.4217
2567.68	22.0199
2569.99	7.04846
2572.3	19.2151
2574.61	14.7762
2576.92	11.8269
2579.23	24.0045
2581.53	22.5367
2583.84	10.3999
2586.14	16.4591
2588.45	8.83168
2590.75	5.71049
2593.05	8.70908
2595.35	16.3029
2597.66	23.9399
2599.96	13.2801
2602.26	13.2679
2604.55	10.1954
2606.85	16.2748
2609.15	16.2484
2611.44	28.4161
2613.74	11.5438
2616.03	19.1336
2618.33	12.9715
2620.62	25.1672
2622.91	15.9373
2625.2	2.11331
2627.49	25.0837
2629.78	26.6409
2632.07	20.5611
2634.36	8.3387
2636.64	33.0862
2638.93	10.1272
2641.22	16.4418
2643.5	15.0478
2645.78	9.01324
2648.07	23.1209
2650.35	15.499
2652.63	24.9921
2654.91	14.1602
2657.19	14.1931
2659.47	12.6533
2661.75	15.7872
2664.03	26.7278
2666.3	31.4043
2668.58	25.1707
2670.85	26.7776
2673.13	8.03873
2675.4	17.6015
2677.67	22.5766
2679.95	21.3477
2682.22	24.8126
2684.49	21.9306
2686.76	26.99
2689.03	9.74605
2691.29	22.7258
2693.56	10.1417
2695.83	18.1442
2698.09	11.7798
2700.36	31.1016
2702.62	37.6
2704.89	3.89983
2707.15	26.4582
2709.41	34.5492
2711.67	15.2419
2713.93	16.8898
2716.19	13.7472
2718.45	25.1081
2720.7	25.1605
2722.96	8.99695
2725.22	26.8224
2727.47	28.4386
2729.73	8.93571
2731.98	16.9868
2734.23	12.0641
2736.49	15.2462
2738.74	31.4244
2740.99	20.0114
2743.24	16.7343
2745.49	19.9835
2747.73	6.95709
2749.98	15.1476
2752.23	21.8423
2754.47	20.323
2756.72	23.6572
2758.96	17.1261
2761.21	13.8316
2763.45	13.847
2765.69	18.8173
2767.93	33.6803
2770.17	22.1878
2772.41	15.646
2774.65	23.97
2776.89	22.4305
2779.13	19.2418
2781.36	21.0734
2783.6	17.9259
2785.84	21.4265
2788.07	13.2704
2790.3	16.7588
2792.54	18.5776
2794.77	10.3494
2797	23.8548
2799.23	7.1821
2801.46	0.53035
2803.69	17.3973
2805.92	34.2851
2808.14	14.1132
2810.37	25.9499
2812.59	19.2245
2814.82	2.32001
2817.04	19.2112
2819.27	15.8244
2821.49	32.7627
2823.71	19.2242
2825.93	12.4513
2828.15	20.9408
2830.37	36.2337
2832.59	14.1288
2834.81	2.19345
2837.03	27.7097
2839.24	19.1803
2841.46	20.8728
2843.67	20.8669
2845.89	7.21889
2848.1	8.93677
2850.31	15.8054
2852.53	3.86757
2854.74	24.5157
2856.95	26.3261
2859.16	31.5728
2861.37	12.7465
2863.57	26.6552
2865.78	14.7182
2867.99	7.93462
2870.19	32.3135
2872.4	16.8486
2874.6	22.197
2876.81	20.6044
2879.01	19.0177
2881.21	20.9311
2883.41	17.6134
2885.61	16.0462
2887.81	14.4595
2890.01	18.1337
2892.21	11.2412
2894.41	7.85205
2896.6	9.78976
2898.8	-0.657211
2901	-4.05782
2903.19	26.267
2905.38	19.2854
2907.58	24.7567
2909.77	14.164
2911.96	8.85629
2914.15	23.2091
2916.34	14.2955
2918.53	23.3201
2920.72	12.6196
2922.91	9.08646
2925.09	19.9694
2927.28	14.6691
2929.47	18.386
2931.65	13.0779
2933.83	9.52983
2936.02	20.4514
2938.2	7.77182
2940.38	24.1137
2942.56	33.2188
2944.74	27.764
2946.92	16.7975
2949.1	29.5101
2951.28	22.1886
2953.46	22.1523
2955.63	16.6333
2957.81	0.13591
2959.98	20.1993
2962.16	21.9969
2964.33	18.3059
2966.5	23.7906
2968.68	10.9418
2970.85	16.4404
2973.02	20.1141
2975.19	23.7952
2977.36	14.5884
2979.52	40.3921
2981.69	20.1297
2983.86	31.2591
2986.03	20.2302
2988.19	29.5632
2990.36	25.9467
2992.52	29.765
2994.68	26.1438
2996.85	39.2981
2999.01	26.3857
3001.17	32.1304
3003.33	26.6765
3005.49	34.3376
3007.65	32.6266
3009.8	34.6639
3011.96	40.4377
3014.12	42.4946
3016.27	37.0188
3018.43	20.1741
3020.58	43.1132
3022.74	26.1925
3024.89	12.9908
3027.04	30.2168
3029.19	28.3826
3031.34	49.4621
3033.49	41.8611
3035.64	41.8755
3037.79	49.5209
3039.94	38.0689
3042.09	24.6477
3044.23	36.1687
3046.38	36.1554
3048.52	45.767
3050.67	32.2605
3052.81	51.5255
3054.95	43.8078
3057.09	70.8688
3059.24	43.8031
3061.38	49.601
3063.51	45.7196
3065.65	39.8936
3067.79	65.1142
3069.93	57.3484
3072.07	41.7905
3074.2	45.6767
3076.34	55.4188
3078.47	43.7308
3080.61	53.4881
3082.74	61.3088
3084.87	59.4101
3087	86.8926
3089.14	69.3899
3091.27	65.6122
3093.39	69.7127
3095.52	65.9783
3097.65	85.9058
3099.78	78.228
3101.91	70.5426
3104.03	84.6676
3106.16	78.998
3108.28	79.2861
3110.41	79.5939
3112.53	93.902
3114.65	88.2232
3116.77	106.606
3118.89	90.89
3121.01	89.2433
3123.13	121.917
3125.25	106.199
3127.37	102.598
3129.49	101.037
3131.61	113.763
3133.72	89.7813
3135.84	110.714
3137.95	92.7396
3140.06	126.069
3142.18	110.049
3144.29	108.388
3146.4	121.181
3148.51	121.574
3150.62	126.068
3152.73	122.18
3154.84	134.936
3156.95	133.106
3159.06	127.09
3161.16	133.62
3163.27	140.174
3165.37	138.312
3167.48	165.846
3169.58	157.648
3171.69	149.52
3173.79	141.3
3175.89	141.42
3177.99	147.838
3180.09	141.535
3182.19	150.017
3184.29	166.968
3186.39	152.12
3188.49	173.239
3190.58	152.033
3192.68	162.713
3194.77	186.186
3196.87	167.222
3198.96	173.901
3201.06	180.76
3203.15	172.642
3205.24	177.377
3207.33	186.497
3209.42	167.677
3211.51	178.979
3213.6	170.906
3215.69	184.492
3217.78	159.047
3219.86	179.108
3221.95	177.465
3224.04	186.726
3226.12	196.042
3228.2	187.843
3230.29	179.582
3232.37	177.913
3234.45	182.768
3236.53	205.296
3238.61	190.35
3240.7	186.488
3242.77	200.389
3244.85	203.32
3246.93	194.959
3249.01	202.202
3251.08	164.538
3253.16	189.495
3255.23	174.027
3257.31	180.975
3259.38	188.118
3261.46	186.295
3263.53	207.093
3265.6	207.719
3267.67	215.585
3269.74	191.045
3271.81	191.813
3273.88	196.818
3275.95	183.279
3278.02	199.481
3280.08	215.703
3282.15	209.045
3284.21	186.318
3286.28	193.39
3288.34	198.169
3290.41	196.045
3292.47	177.779
3294.53	226.305
3296.59	210.323
3298.65	215.115
3300.71	178.405
3302.77	197.079
3304.83	185.696
3306.89	209.064
3308.95	209.258
3311	204.785
3313.06	239.79
3315.11	212.103
3317.17	191.321
3319.22	203.189
3321.27	203.435
3323.33	203.753
3325.38	208.745
3327.43	197.407
3329.48	193.068
3331.53	219.41
3333.58	229.433
3335.63	225.31
3337.67	230.626
3339.72	242.88
3341.77	229.032
3343.81	250.643
3345.86	250.936
3347.9	243.981
3349.95	241.854
3351.99	249.219
3354.03	211.335
3356.07	252.155
3358.11	238.192
3360.15	260.026
3362.19	250.845
3364.23	263.153
3366.27	253.895
3368.31	254.228
3370.34	264.184
3372.38	250.06
3374.42	259.932
3376.45	279.406
3378.48	286.835
3380.52	243.618
3382.55	277.559
3384.58	268.064
3386.61	285.128
3388.64	297.362
3390.68	270.874
3392.7	309.713
3394.73	280.842
3396.76	300.457
3398.79	312.838
3400.82	293.637
3402.84	288.901
3404.87	284.141
3406.89	318.289
3408.92	308.69
3410.94	311.185
3412.96	308.833
3414.98	294.308
3417	326.064
3419.03	309.101
3421.05	323.798
3423.06	353.121
3425.08	336.143
3427.1	328.977
3429.12	324.288
3431.14	356.278
3433.15	307.668
3435.17	312.857
3437.18	327.891
3439.2	362.596
3441.21	313.97
3443.22	314.405
3445.23	317.384
3447.25	308.146
3449.26	321.051
3451.27	294.508
3453.28	327.266
3455.28	310.698
3457.29	318.951
3459.3	304.92
3461.31	320.705
3463.31	329.078
3465.32	305.035
3467.32	303.413
3469.33	311.767
3471.33	330.162
3473.33	293.087
3475.34	306.378
3477.34	281.951
3479.34	320.526
3481.34	308.667
3483.34	276.512
3485.34	292.403
3487.33	293.098
3489.33	258.202
3491.33	271.56
3493.32	287.479
3495.32	300.828
3497.32	286.084
3499.31	276.389
3501.3	289.67
3503.3	254.239
3505.29	264.895
3507.28	234.443
3509.27	247.499
3511.26	278.48
3513.25	209.311
3515.24	227.444
3517.23	222.452
3519.22	214.889
3521.2	235.604
3523.19	181.753
3525.18	215.382
3527.16	213.019
3529.15	207.999
3531.13	179.918
3533.11	177.703
3535.1	196.19
3537.08	176.039
3539.06	186.934
3541.04	174.483
3543.02	182.697
3545	170.143
3546.98	178.314
3548.96	168.281
3550.93	173.77
3552.91	158.276
3554.89	153.278
3556.86	171.755
3558.84	161.657
3560.81	133.346
3562.78	172.798
3564.76	123.654
3566.73	147.582
3568.7	153.362
3570.67	148.62
3572.64	138.636
3574.61	133.913
3576.58	110.837
3578.55	124.55
3580.52	122.538
3582.48	102.088
3584.45	134.399
3586.41	124.491
3588.38	114.549
3590.35	125.796
3592.31	89.2643
3594.27	100.509
3596.23	101.136
3598.2	91.0776
3600.16	113.007
3602.12	89.5322
3604.08	68.671
3606.04	98.673
3608	69.6813
3609.95	78.2193
3611.91	67.9502
3613.87	65.7659
3615.83	82.3961
3617.78	66.7054
3619.74	50.9507
3621.69	45.9171
3623.64	32.7175
3625.6	54.6367
3627.55	57.646
3629.5	52.5323
3631.45	33.8578
3633.4	58.4868
3635.35	20.911
3637.3	56.4557
3639.25	40.6082
3641.2	41.0688
3643.15	25.2751
3645.09	25.7633
3647.04	48.0749
3648.98	34.7891
3650.93	32.4474
3652.87	21.9583
3654.82	11.4335
3656.76	28.167
3658.7	9.45291
3660.64	34.3835
3662.58	12.91
3664.53	13.2878
3666.47	10.958
3668.4	11.3699
3670.34	3.56607
3672.28	12.1774
3674.22	1.67914
3676.16	-6.06778
3678.09	10.8861
3680.03	-5.05199
3681.96	-12.7506
3683.9	15.3383
3685.83	13.2158
3687.76	2.81181
3689.69	-7.61655
3691.63	-9.76294
3693.56	-9.16635
3695.49	-8.59125
3697.42	3.13591
3699.35	12.1084
3701.28	-15.1039
3703.2	-3.36674
3705.13	-13.9082
3707.06	-7.6871
3708.98	-21.0586
3710.91	-9.22594
3712.83	-2.97762
3714.76	-7.9894
3716.68	-10.2136
3718.6	-32.1833
3720.53	7.86415
3722.45	-8.49867
3724.37	-19.2499
3726.29	-1.73912
3728.21	-23.8337
3730.13	-9.12263
3732.05	-19.8952
3733.97	-5.13455
3735.88	-13.0811
3737.8	-21.0488
3739.72	5.13008
3741.63	-22.8009
3743.55	-2.29404
3745.46	-1.7411
3747.38	-6.9095
3749.29	-14.9546
3751.2	-23.0239
3753.11	-16.8079
3755.02	-16.3228
3756.93	-10.1231
3758.84	-12.5202
3760.75	-12.0616
3762.66	-23.0632
3764.57	-5.41508
3766.48	-25.0204
3768.39	-15.9431
3770.29	-3.9771
3772.2	16.6186
3774.1	-8.70825
3776.01	-16.8232
3777.91	0.933502
3779.81	10.1003
3781.72	4.90884
3783.62	-6.03102
3785.52	0.306183
3787.42	0.874191
3789.32	-13.0015
3791.22	-0.901474
3793.12	-6.10541
3795.02	-19.9763
3796.92	-2.00667
3798.81	-15.8866
3800.71	-21.0844
3802.61	-5.95663
3804.5	3.39583
3806.4	6.9536
3808.29	-4.05634
3810.18	11.16
3812.08	-23.2668
3813.97	-5.13588
3815.86	-13.3175
3817.75	-21.517
3819.64	2.52008
3821.53	-5.69817
3823.42	6.62308
3825.31	-7.52122
3827.2	-4.02657
3829.09	2.42647
3830.97	0.0612793
3832.86	0.641815
3834.75	13.0259
3836.63	4.72656
3838.52	-3.59973
3840.4	8.77682
3842.28	18.2958
3844.17	-13.8045
3846.05	13.3823
3847.93	-1.01804
3849.81	-6.51422
3851.69	14.7209
3853.57	24.0494
3855.45	21.5013
3857.33	21.8878
3859.21	22.2466
3861.08	4.79196
3862.96	23.0291
3864.84	-12.1927
3866.71	12.1509
3868.59	12.7373
3870.46	10.2829
3872.34	10.6661
3874.21	-0.908447
3876.08	14.4086
3877.95	-15.1084
3879.82	-5.77823
3881.69	-2.42567
3883.56	15.8918
3885.44	10.2796
3887.3	4.66348
3889.17	11.0265
3891.04	-3.58795
3892.91	2.79704
3894.77	12.2358
3896.64	-11.406
3898.51	0.990295
3900.37	7.38269
3902.23	7.74886
3904.1	5.07623
3905.96	11.4526
3907.82	-6.34029
3909.69	12.1
3911.55	-5.70023
3913.41	21.8518
3915.27	13.1051
3917.13	4.34892
3918.99	22.8996
3920.84	8.07512
3922.7	11.464
3924.56	11.7914
3926.42	-6.20116
3928.27	-5.9333
3930.13	15.7122
3931.98	3.71811
3933.84	10.0338
3935.69	10.2166
3937.54	4.24899
3939.4	19.7598
3941.25	29.163
3943.1	4.78122
3944.95	32.6375
3946.8	-1.07872
3948.65	5.20303
3950.5	2.20389
3952.35	2.26338
3954.19	5.3895
3956.04	11.5951
3957.89	11.5896
3959.73	8.44891
3961.58	-0.906036
3963.42	2.10545
3965.27	-7.30338
3967.11	1.84479
3968.96	10.9616
3970.8	10.7697
3972.64	7.46893
3974.48	10.3532
3976.32	-8.49103
3978.16	3.64935
3980	-2.85271
3981.84	6.12093
3983.68	5.77414
3985.52	2.31442
3987.36	8.1321
3989.19	4.63565
3991.03	1.13957
3992.86	-14.7686
3994.7	0.336792
3996.53	-6.27716
3998.37	-6.6944
