#Acq. time (s)=	60
#Accumulations=	2
#Range (cm-¹)=	100...4000
#Windows=	1
#Auto scanning=	Off
#Autofocus=	Off
#Macrospot=	Off
#AutoExposure=	Off
#Spike filter=	Multiple accum.
#Delay time (s)=	2
#Binning=	1
#Readout mode=	Signal
#DeNoise=	Off
#ICS correction=	On
#Dark correction=	Off
#Inst. Process=	Off
#Detector Gain=	Best Dynamic
#Detector ADC=	50 kHz HS
#Detector temperature (°C)=	-60.09
#Instrument=	LabRAM HR Evol
#Detector=	SIN-EM FIVIS
#Objective=	x100_VIS
#Grating=	150 (500nm)
#ND Filter=	100%
#Laser=	633nm_Edge
#Hole=	49.98
#Temperature=	0
#Range=	Visible
#StageXY=	75x50mm Scan+
#StageZ=	Z motor
#X (µm)=	0
#Y (µm)=	0
#Z (µm)=	-268.8
#Full time(mm:ss)=	2:04
#Project=	21_11_04
#Sample=	BU19w
#Site=	
#Title=	BU19w-E-FF11-FI08-V_150 (500nm)_633nm_Edge_100%_x100_VIS_H50um_60sX2
#Remark=	
#Date=	04.11.2021 16:22
#Acquired=	04.11.2021 16:22:51
#Base:Fit=	16.12.2021 17:39:50
#Base:Edit=	16.12.2021 17:51:23
#Base:Edit=	16.12.2021 17:51:25
#Base:Edit=	16.12.2021 17:51:25
#Base:Edit=	16.12.2021 17:51:25
#Base:Sub=	16.12.2021 17:51:29
102.881	199.464
106.139	187.766
109.397	180.064
112.653	162.021
115.908	155.58
119.161	151.179
122.414	127.82
125.664	138.054
128.914	148.447
132.162	161.837
135.409	172.481
138.654	167.921
141.898	160.623
145.14	166.883
148.383	151.249
151.622	204.677
154.861	214.242
158.098	262.24
161.335	231.833
164.569	148.815
167.801	108.976
171.034	71.1242
174.264	68.8193
177.494	45.4931
180.721	39.5058
183.949	36.4488
187.173	19.1093
190.396	18.1143
193.62	21.0284
196.84	7.80461
200.061	6.16615
203.279	-0.0941772
206.496	8.03326
209.712	24.8038
212.926	26.3808
216.139	43.2962
219.352	80.2916
222.562	137.343
225.772	220.102
228.979	294.136
232.185	302.518
235.392	217.813
238.595	145.625
241.797	80.2195
244.999	80.5418
248.199	69.5069
251.397	75.5901
254.595	78.8607
257.791	96.435
260.985	88.4466
264.178	84.3084
267.371	79.2814
270.561	68.6252
273.75	92.1636
276.939	73.0742
280.125	79.6102
283.31	57.7148
286.494	61.4471
289.678	48.1354
292.859	33.8977
296.039	36.7489
299.217	40.5796
302.396	74.7016
305.572	112.591
308.746	167.491
311.919	241.272
315.093	388.676
318.263	530.331
321.433	538.995
324.601	431.68
327.768	319.691
330.935	201.191
334.099	140.26
337.262	99.1591
340.423	109.953
343.584	102.844
346.743	117.405
349.902	131.982
353.058	145.592
356.213	139.405
359.367	129.46
362.52	97.8902
365.671	67.3006
368.821	47.0966
371.971	28.8071
375.119	31.1905
378.265	13.8849
381.41	14.4278
384.553	0.955048
387.696	8.18484
390.837	7.96591
393.976	-1.59879
397.116	14.2231
400.253	0.989136
403.389	21.6073
406.524	12.1039
409.657	26.1728
412.789	34.5753
415.92	32.5511
419.05	48.5194
422.178	51.2036
425.305	75.5513
428.431	101.59
431.555	114.294
434.678	101.507
437.8	108.518
440.921	102.343
444.04	113.082
447.158	141.59
450.275	140.945
453.391	159.04
456.505	129.477
459.618	106.572
462.73	71.6524
465.84	62.94
468.949	47.7165
472.057	32.5366
475.164	29.5111
478.27	38.6207
481.374	40.2632
484.477	40.0326
487.579	54.7085
490.679	43.297
493.778	68.2379
496.876	74.5269
499.973	75.2302
503.068	101.131
506.162	119.576
509.255	117.508
512.346	135.99
515.436	129.282
518.525	132.885
521.613	132.8
524.7	134.605
527.785	134.571
530.869	118.629
533.952	114.885
537.033	108.304
540.113	83.756
543.192	79.8482
546.27	78.7148
549.347	63.3319
552.423	56.4463
555.497	52.3702
558.568	51.9863
561.64	46.7958
564.711	40.6352
567.78	51.3973
570.848	39.5081
573.915	44.5237
576.979	45.7393
580.043	49.7593
583.107	61.2847
586.169	65.3213
589.228	90.8367
592.287	91.2081
595.345	95.3274
598.402	87.4025
601.458	86.1043
604.511	100.715
607.565	117.22
610.617	114.166
613.667	119.544
616.716	92.2247
619.764	111.721
622.811	78.6898
625.856	62.5113
628.9	51.836
631.944	49.5441
634.986	50.0061
638.026	49.4511
641.066	62.9788
644.104	53.7983
647.14	58.7739
650.177	65.6153
653.211	55.4699
656.244	46.2559
659.276	43.6175
662.308	41.912
665.336	15.9318
668.365	16.14
671.393	5.21156
674.418	10.2284
677.443	16.1632
680.467	12.7541
683.489	6.58127
686.511	8.81914
689.53	5.48467
692.549	8.7079
695.567	11.936
698.582	15.1614
701.598	6.18385
704.611	9.38364
707.624	11.6264
710.635	13.8378
713.646	7.48322
716.655	7.71227
719.662	3.23582
722.669	-1.22896
725.674	10.2336
728.679	13.2016
731.681	12.4068
734.683	0.373322
737.683	11.7418
740.683	12.8094
743.681	14.81
746.678	12.1529
749.673	4.83814
752.669	7.81447
755.661	20.1037
758.654	24.9889
761.645	7.54469
764.635	14.388
767.623	7.23706
770.611	21.6096
773.597	18.1982
776.582	12.8787
779.565	-0.005867
782.549	17.1809
785.53	19.2992
788.511	22.3482
791.489	12.181
794.466	21.7895
797.444	16.2848
800.419	17.3497
803.394	23.1048
806.366	23.1813
809.339	14.7772
812.309	30.8181
815.278	14.8511
818.247	24.2506
821.214	19.5528
824.18	18.6035
827.145	23.2628
830.108	33.549
833.072	32.6892
836.033	32.8061
838.992	30.1643
841.952	28.5143
844.909	24.9671
847.865	36.4178
850.822	29.1431
853.776	46.285
856.728	36.1986
859.681	51.5253
862.631	41.4259
865.58	52.0769
868.528	61.8073
871.476	64.8971
874.422	74.5726
877.366	63.3553
880.311	87.2098
883.253	71.201
886.194	76.0295
889.134	81.7761
892.074	80.8539
895.012	77.0683
897.948	75.1244
900.883	75.9609
903.818	70.1528
906.751	73.7983
909.683	72.7003
912.614	65.9556
915.543	75.2262
918.473	75.1501
921.4	73.2377
924.326	90.172
927.251	93.9978
930.174	105.441
933.098	123.474
936.019	126.582
938.94	142.071
941.859	163.314
944.777	215.88
947.693	212.733
950.61	226.678
953.525	222.545
956.438	227.889
959.35	216.935
962.261	230.774
965.171	264.667
968.08	286.149
970.988	324.848
973.894	368.28
976.801	413.484
979.705	448.841
982.608	442.795
985.51	451.06
988.411	397.987
991.311	337.322
994.209	296.814
997.107	265.956
1000	248.552
1002.9	250.282
1005.79	258.751
1008.68	271.114
1011.58	272.224
1014.47	288.652
1017.36	306.021
1020.25	302.44
1023.13	273.176
1026.02	229.595
1028.9	203.185
1031.79	197.824
1034.67	179.039
1037.55	171.773
1040.43	165.448
1043.31	147.514
1046.19	133.407
1049.07	131.781
1051.94	132.041
1054.82	115.785
1057.69	115.963
1060.56	106.377
1063.44	102.565
1066.31	108.38
1069.17	117.109
1072.04	124.871
1074.91	130.664
1077.77	159.712
1080.64	183.867
1083.5	202.181
1086.37	241.799
1089.23	300.824
1092.09	349.153
1094.95	364.54
1097.8	357.629
1100.66	298.489
1103.52	254.913
1106.37	213.453
1109.22	191.249
1112.08	171.106
1114.93	177.335
1117.78	165.18
1120.63	154.85
1123.48	134.687
1126.32	176.875
1129.17	177.226
1132.01	200.059
1134.86	230.788
1137.7	256.667
1140.54	279.699
1143.38	336.113
1146.22	406.23
1149.06	425.335
1151.89	370.506
1154.73	277.072
1157.56	180.566
1160.4	141.117
1163.23	118.317
1166.06	104.393
1168.89	86.5777
1171.72	80.5539
1174.55	68.6574
1177.38	74.3869
1180.2	54.7181
1183.03	51.7115
1185.85	45.8354
1188.67	39.0207
1191.49	34.1698
1194.31	41.0962
1197.13	36.3086
1199.95	27.6435
1202.77	22.929
1205.58	29.0162
1208.4	15.4713
1211.21	19.6156
1214.02	17.8706
1216.84	15.1446
1219.65	11.4234
1222.46	19.6267
1225.27	6.93122
1228.07	3.164
1230.88	11.3848
1233.68	11.5911
1236.49	14.797
1239.29	11.9466
1242.09	21.1516
1244.89	20.254
1247.69	7.21023
1250.49	5.2363
1253.29	17.4027
1256.08	20.4416
1258.88	11.3301
1261.67	15.3202
1264.47	19.3036
1267.26	12.2006
1270.05	28.2542
1272.84	82.4838
1275.63	108.454
1278.42	41.0003
1281.2	12.805
1283.99	7.72111
1286.77	11.6673
1289.56	14.6195
1292.34	18.5833
1295.12	4.57889
1297.9	1.58651
1300.68	13.592
1303.46	10.6379
1306.23	9.7107
1309.01	1.80212
1311.78	5.94537
1314.56	7.09917
1317.33	17.3135
1320.1	5.40416
1322.87	15.6706
1325.64	3.73627
1328.41	0.878922
1331.18	12.2284
1333.94	7.32257
1336.71	2.39039
1339.47	1.51443
1342.24	15.9406
1345	-2.36416
1347.76	14.1109
1350.52	15.2326
1353.28	9.16344
1356.04	9.23033
1358.79	15.4461
1361.55	15.4838
1364.3	14.4724
1367.06	17.5528
1369.81	-0.955017
1372.56	22.6608
1375.31	80.1677
1378.06	192.081
1380.81	103.721
1383.56	22.5834
1386.3	8.1912
1389.05	14.3259
1391.79	11.2453
1394.53	11.2607
1397.28	18.5194
1400.02	18.59
1402.76	5.28555
1405.5	17.6998
1408.23	16.7504
1410.97	-0.690704
1413.71	11.7719
1416.44	8.77185
1419.17	11.9703
1421.91	13.1102
1424.64	-2.33141
1427.37	15.4114
1430.1	10.332
1432.83	4.19406
1435.55	-0.91951
1438.28	14.8252
1441.01	14.9248
1443.73	11.9021
1446.45	17.2372
1449.17	5.77989
1451.89	5.82207
1454.62	8.99924
1457.33	5.86006
1460.05	5.85586
1462.77	2.68886
1465.48	17.3623
1468.2	-3.66833
1470.91	8.89719
1473.63	13.0672
1476.34	13.0495
1479.05	16.1958
1481.76	10.9438
1484.47	10.9491
1487.17	5.71104
1489.88	10.9929
1492.59	-1.59396
1495.29	4.76785
1497.99	7.98071
1500.7	4.87979
1503.4	8.11425
1506.1	9.24828
1508.8	10.3986
1511.5	10.4946
1514.19	7.41594
1516.89	6.46185
1519.59	9.77261
1522.28	14.1613
1524.97	11.0913
1527.67	3.71803
1530.36	5.98088
1533.05	6.11609
1535.74	7.31174
1538.42	9.55769
1541.11	2.08497
1543.8	16.1838
1546.48	2.13538
1549.16	7.51761
1551.85	10.7072
1554.53	3.04605
1557.21	12.6612
1559.89	13.6434
1562.57	13.5517
1565.25	6.98381
1567.93	19.8249
1570.6	7.86768
1573.28	6.69396
1575.95	9.83674
1578.62	11.9308
1581.29	14.0329
1583.97	9.68157
1586.64	12.873
1589.3	9.61058
1591.97	16.0534
1594.64	10.6565
1597.3	9.58154
1599.97	11.7466
1602.63	2.04742
1605.3	13.9674
1607.96	11.8596
1610.62	15.1855
1613.28	17.4581
1615.94	14.3144
1618.59	3.53902
1621.25	13.4732
1623.91	15.7821
1626.56	14.8079
1629.21	7.23765
1631.87	10.6357
1634.52	9.61365
1637.17	5.25494
1639.82	18.4879
1642.47	10.7519
1645.12	15.1814
1647.76	14.0722
1650.41	5.19923
1653.05	16.2522
1655.7	8.45756
1658.34	8.40383
1660.98	11.6683
1663.62	13.8221
1666.26	14.8581
1668.9	13.6724
1671.54	11.3751
1674.18	14.6217
1676.81	3.43774
1679.45	16.6573
1682.08	11.0039
1684.71	9.76811
1687.34	11.8542
1689.98	9.51762
1692.61	11.6241
1695.23	13.7519
1697.86	14.8053
1700.49	10.3739
1703.12	10.5341
1705.74	9.56413
1708.36	18.6134
1710.99	16.2041
1713.61	4.91988
1716.23	10.4799
1718.85	18.3782
1721.47	9.45049
1724.09	9.41676
1726.7	10.5352
1729.32	9.41962
1731.94	10.5461
1734.55	16.1684
1737.16	12.7938
1739.77	12.7909
1742.39	12.7867
1745	12.7822
1747.61	21.7989
1750.21	-0.833008
1752.82	14.9501
1755.43	17.1641
1758.03	14.8309
1760.64	13.6116
1763.24	15.7869
1765.84	8.90807
1768.44	9.96027
1771.05	1.95069
1773.64	9.80766
1776.24	16.5478
1778.84	19.9077
1781.44	8.52309
1784.03	5.08234
1786.63	9.6057
1789.22	11.8799
1791.81	9.60078
1794.41	26.7212
1797	11.8921
1799.59	13.0608
1802.18	11.942
1804.76	22.2969
1807.35	25.7739
1809.94	14.2848
1812.52	25.7942
1815.11	17.7337
1817.69	21.199
1820.27	8.49169
1822.85	8.48379
1825.43	11.9511
1828.01	14.2682
1830.59	11.955
1833.17	11.9577
1835.74	7.31928
1838.32	8.46997
1840.89	8.44305
1843.47	1.41006
1846.04	10.7096
1848.61	5.9931
1851.18	15.3079
1853.75	12.9
1856.32	6.99609
1858.89	9.29852
1861.45	13.9651
1864.02	11.5926
1866.58	11.5819
1869.15	19.7953
1871.71	19.7583
1874.27	18.5273
1876.83	17.2947
1879.39	16.0506
1881.95	13.6266
1884.51	20.6371
1887.07	17.0164
1889.63	3.9022
1892.18	15.5971
1894.74	17.8314
1897.29	12.9837
1899.84	-0.124901
1902.39	14.0145
1904.94	21.0945
1907.49	9.21558
1910.04	22.2772
1912.59	10.4316
1915.14	8.09718
1917.68	12.894
1920.23	8.02838
1922.77	4.38387
1925.32	16.3036
1927.86	18.6714
1930.4	11.4586
1932.94	7.82651
1935.48	10.1806
1938.02	8.92699
1940.56	13.6717
1943.09	11.1973
1945.63	18.3376
1948.16	6.21661
1950.7	22.9753
1953.23	10.8193
1955.76	16.7254
1958.29	11.7822
1960.82	14.0648
1963.35	12.7254
1965.88	6.55941
1968.41	16.0439
1970.93	2.62051
1973.46	19.3116
1975.98	7.09612
1978.51	21.3712
1981.03	12.7693
1983.55	7.78342
1986.07	13.6287
1988.59	8.65257
1991.11	19.3116
1993.63	13.1408
1996.15	20.2003
1998.66	16.4495
2001.18	4.29057
2003.69	12.5772
2006.2	11.2601
2008.72	12.3527
2011.23	6.2381
2013.74	15.7687
2016.25	6.03616
2018.76	5.91982
2021.27	14.2446
2023.77	11.7458
2026.28	10.4636
2028.78	17.6415
2031.29	6.72073
2033.79	7.88911
2036.29	-0.626808
2038.79	10.2327
2041.3	7.77331
2043.79	4.09825
2046.29	2.85231
2048.79	24.7308
2051.29	21.0681
2053.78	14.9097
2056.28	17.3162
2058.77	14.8605
2061.27	14.8458
2063.76	14.8314
2066.25	13.5953
2068.74	11.1199
2071.23	19.693
2073.72	11.0694
2076.21	23.3492
2078.69	22.0937
2081.18	18.363
2083.66	8.44177
2086.15	14.5521
2088.63	18.1854
2091.11	19.3742
2093.59	10.6783
2096.07	21.8182
2098.55	15.6116
2101.03	28.033
2103.51	23.0766
2105.99	21.8521
2108.46	19.3851
2110.94	20.667
2113.41	30.7229
2115.89	19.5102
2118.36	20.8132
2120.83	20.8607
2123.3	13.3503
2125.77	25.985
2128.24	18.4493
2130.71	13.4128
2133.17	9.61987
2135.64	17.2154
2138.11	7.05868
2140.57	22.2777
2143.03	20.9982
2145.49	20.9761
2147.96	14.5701
2150.42	10.6857
2152.88	23.3716
2155.34	18.1917
2157.79	19.3819
2160.25	12.8965
2162.71	23.0082
2165.16	12.6581
2167.62	15.0779
2170.07	13.672
2172.52	12.287
2174.97	8.34401
2177.43	15.9103
2179.88	11.9312
2182.32	11.7837
2184.77	11.6167
2187.22	22.9835
2189.67	25.4077
2192.11	4.7999
2194.56	14.9272
2197	8.42428
2199.44	19.8826
2201.89	10.8411
2204.33	18.4924
2206.77	13.3156
2209.21	10.7155
2211.64	14.5603
2214.08	18.4166
2216.52	6.8054
2218.95	11.9749
2221.39	5.51197
2223.82	14.5824
2226.26	9.40337
2228.69	14.6044
2231.12	15.9162
2233.55	15.9291
2235.98	13.3332
2238.41	27.7048
2240.84	14.6555
2243.26	4.19578
2245.69	27.7897
2248.12	16.0086
2250.54	6.8229
2252.96	13.3976
2255.39	21.3062
2257.81	12.0998
2260.23	13.4324
2262.65	21.3672
2265.07	12.094
2267.49	10.7383
2269.9	19.9745
2272.32	9.30659
2274.74	17.2023
2277.15	10.4836
2279.57	10.3917
2281.98	16.9302
2284.39	12.8138
2286.8	24.6456
2289.21	20.5209
2291.62	3.08488
2294.03	13.5883
2296.44	16.12
2298.84	16.0132
2301.25	17.2466
2303.66	9.17171
2306.06	17.1152
2308.46	9.06878
2310.87	19.7332
2313.27	15.713
2315.67	15.7173
2318.07	15.736
2320.47	22.4657
2322.87	17.1079
2325.26	11.7513
2327.66	3.68723
2330.06	7.75299
2332.45	21.3084
2334.85	5.12252
2337.24	16.0125
2339.63	21.5051
2342.02	2.5411
2344.41	14.8637
2346.8	23.1601
2349.19	-1.36346
2351.58	17.8717
2353.97	15.1966
2356.35	12.4853
2358.74	-1.25311
2361.12	2.8334
2363.51	4.18507
2365.89	12.4505
2368.27	5.53011
2370.65	20.7243
2373.03	16.5572
2375.41	1.29
2377.79	13.7449
2380.17	17.8591
2382.55	19.1871
2384.92	28.8312
2387.3	27.3495
2389.67	20.2857
2392.05	20.1541
2394.42	20.0175
2396.79	12.8992
2399.16	14.1283
2401.53	13.9706
2403.9	9.619
2406.27	5.27048
2408.64	9.30893
2411.01	2.27634
2413.37	12.0127
2415.74	9.32142
2418.1	15.1558
2420.47	22.3152
2422.83	19.508
2425.19	18.0202
2427.55	19.4227
2429.91	10.9898
2432.27	15.247
2434.63	5.39761
2436.99	-0.222
2439.34	16.8226
2441.7	-1.58286
2444.05	1.28667
2446.41	12.7112
2448.76	14.1881
2451.11	5.67099
2453.47	4.27289
2455.82	11.4648
2458.17	10.0737
2460.51	1.49132
2462.86	10.1519
2465.21	11.6266
2467.56	18.8698
2469.9	13.1223
2472.25	18.924
2474.59	16.053
2476.94	16.0839
2479.28	19.0169
2481.62	17.5847
2483.96	8.86081
2486.3	20.5011
2488.64	13.1994
2490.98	26.3229
2493.32	0.00440979
2495.65	20.4681
2497.99	10.2022
2500.32	17.504
2502.66	17.476
2504.99	1.2831
2507.32	5.63628
2509.66	9.9875
2511.99	2.55771
2514.32	18.6807
2516.65	17.1326
2518.98	2.32373
2521.3	8.17285
2523.63	15.5068
2525.96	9.53484
2528.28	19.8345
2530.61	9.41721
2532.93	12.3379
2535.25	12.3064
2537.57	18.2212
2539.89	15.2342
2542.22	6.29143
2544.53	21.165
2546.85	9.24387
2549.17	12.2194
2551.49	16.6973
2553.8	-4.25267
2556.12	4.68805
2558.43	9.1391
2560.75	18.1256
2563.06	9.11232
2565.37	10.6258
2567.68	1.60446
2569.99	15.1872
2572.3	18.2378
2574.61	18.2657
2576.92	18.2816
2579.23	10.7042
2581.53	10.6773
2583.84	22.757
2586.14	13.5784
2588.45	8.93193
2590.75	11.8385
2593.05	16.3047
2595.35	11.6706
2597.66	25.3344
2599.96	0.897598
2602.26	19.1209
2604.55	3.78445
2606.85	12.8565
2609.15	12.7705
2611.44	29.4675
2613.74	15.5986
2616.03	10.8975
2618.33	35.2826
2620.62	22.9356
2622.91	15.18
2625.2	12.026
2627.49	44.1447
2629.78	11.8927
2632.07	5.73303
2634.36	21.1121
2636.64	7.30301
2638.93	10.4552
2641.22	21.3338
2643.5	16.7802
2645.78	12.2253
2648.07	24.7139
2650.35	23.243
2652.63	20.2179
2654.91	18.67
2657.19	28.0082
2659.47	24.8573
2661.75	23.2514
2664.03	12.2408
2666.3	18.4171
2668.58	18.3779
2670.85	8.94379
2673.13	18.3715
2675.4	21.5929
2677.67	26.4997
2679.95	17.3005
2682.22	17.5102
2684.49	3.42638
2686.76	27.4502
2689.03	18.1
2691.29	39.0083
2693.56	19.9831
2695.83	26.3353
2698.09	29.536
2700.36	31.1669
2702.62	15.1185
2704.89	23.1407
2707.15	10.255
2709.41	21.4966
2711.67	24.6916
2713.93	13.3833
2716.19	29.5633
2718.45	11.7753
2720.7	26.327
2722.96	19.8308
2725.22	14.9141
2727.47	18.0942
2729.73	31.0016
2731.98	21.152
2734.23	14.5597
2736.49	32.3239
2738.74	24.078
2740.99	14.241
2743.24	23.9335
2745.49	5.96793
2747.73	28.7406
2749.98	10.798
2752.23	12.5259
2754.47	15.8497
2756.72	32.235
2758.96	24.0254
2761.21	22.3325
2763.45	27.236
2765.69	17.381
2767.93	10.8073
2770.17	9.13205
2772.41	25.61
2774.65	22.3479
2776.89	19.1069
2779.13	27.45
2781.36	20.958
2783.6	22.7425
2785.84	29.5291
2788.07	13.0096
2790.3	28.1319
2792.54	18.2251
2794.77	6.60538
2797	10.0088
2799.23	25.165
2801.46	25.2187
2803.69	5.06975
2805.92	26.9625
2808.14	10.1219
2810.37	8.42639
2812.59	11.7873
2814.82	18.5086
2817.04	21.856
2819.27	9.98308
2821.49	16.7285
2823.71	9.93228
2825.93	4.82381
2828.15	13.2842
2830.37	1.36006
2832.59	18.3231
2834.81	18.2842
2837.03	14.8433
2839.24	7.9917
2841.46	6.24886
2843.67	11.3363
2845.89	6.20493
2848.1	18.1653
2850.31	21.605
2852.53	4.51794
2854.74	13.1426
2856.95	1.18214
2859.16	11.5437
2861.37	1.28708
2863.57	18.6143
2865.78	1.46869
2867.99	15.4115
2870.19	15.5323
2872.4	17.3851
2874.6	12.2965
2876.81	14.1611
2879.01	12.5557
2881.21	23.1835
2883.41	9.36407
2885.61	13.034
2887.81	25.4855
2890.01	13.3444
2892.21	15.2522
2894.41	10.1049
2896.6	13.814
2898.8	8.68884
2901	15.9552
2903.19	7.21194
2905.38	18.0112
2907.58	5.66066
2909.77	16.4773
2911.96	27.2762
2914.15	14.8226
2916.34	9.50211
2918.53	7.77777
2920.72	11.4453
2922.91	11.5282
2925.09	17.0337
2927.28	26.1766
2929.47	19.0977
2931.65	8.38852
2933.83	32.026
2936.02	12.1814
2938.2	10.4164
2940.38	6.81371
2942.56	15.9393
2944.74	28.7081
2946.92	19.6064
2949.1	19.6082
2951.28	15.972
2953.46	19.6283
2955.63	28.7672
2957.81	1.36241
2959.98	17.8201
2962.16	25.1592
2964.33	14.197
2966.5	17.8988
2968.68	-4.07515
2970.85	32.6897
2973.02	-0.332169
2975.19	8.9091
2977.36	8.9583
2979.52	25.6008
2981.69	18.304
2983.86	23.9506
2986.03	0.0257111
2988.19	14.9528
2990.36	15.0904
2992.52	24.5306
2994.68	19.1089
2996.85	19.2795
2999.01	13.8668
3001.17	27.1349
3003.33	27.3573
3005.49	29.4643
3007.65	33.4517
3009.8	24.2762
3011.96	16.9236
3014.12	17.1311
3016.27	30.5932
3018.43	32.7542
3020.58	8.3587
3022.74	42.7794
3024.89	33.4967
3027.04	29.8717
3029.19	41.4911
3031.34	22.5486
3033.49	30.3225
3035.64	18.9376
3037.79	30.5037
3039.94	28.727
3042.09	40.3726
3044.23	32.7918
3046.38	38.66
3048.52	42.6095
3050.67	23.433
3052.81	46.666
3054.95	40.9925
3057.09	39.1786
3059.24	56.6982
3061.38	43.2689
3063.51	39.5063
3065.65	49.3173
3067.79	59.1439
3069.93	53.445
3072.07	71.0735
3074.2	49.8148
3076.34	55.7973
3078.47	42.2939
3080.61	69.7529
3082.74	66.0044
3084.87	56.4236
3087	64.4585
3089.14	74.5106
3091.27	64.9844
3093.39	71.1845
3095.52	61.677
3097.65	83.705
3099.78	50.4715
3101.91	78.5047
3104.03	86.8312
3106.16	89.2478
3108.28	77.7497
3110.41	92.1507
3112.53	90.6346
3114.65	75.0786
3116.77	91.5694
3118.89	63.9052
3121.01	96.5835
3123.13	103.172
3125.25	89.5768
3127.37	96.215
3129.49	109.004
3131.61	81.1408
3133.72	104.191
3135.84	94.5915
3137.95	111.607
3140.06	95.7644
3142.18	116.929
3144.29	94.781
3146.4	109.773
3148.51	124.817
3150.62	108.706
3152.73	102.88
3154.84	122.03
3156.95	122.442
3159.06	122.856
3161.16	127.463
3163.27	125.799
3165.37	128.296
3167.48	101.354
3169.58	126.933
3171.69	125.262
3173.79	134.081
3175.89	109.039
3177.99	107.17
3180.09	98.9218
3182.19	128.757
3184.29	126.832
3186.39	120.654
3188.49	120.767
3190.58	131.578
3192.68	119.082
3194.77	119.338
3196.87	119.661
3198.96	107.286
3201.06	120.614
3203.15	118.995
3205.24	110.96
3207.33	107.243
3209.42	99.2051
3211.51	104.08
3213.6	100.352
3215.69	120.455
3217.78	101.563
3219.86	104.3
3221.95	100.514
3224.04	81.4288
3226.12	114.776
3228.2	89.0676
3230.29	98.3735
3232.37	107.733
3234.45	99.4343
3236.53	102.141
3238.61	93.8308
3240.7	94.3948
3242.77	74.9776
3244.85	88.9307
3246.93	87.2328
3249.01	94.4623
3251.08	79.2255
3253.16	72.893
3255.23	75.4586
3257.31	64.5432
3259.38	87.4557
3261.46	54.1168
3263.53	43.2697
3265.6	64.1096
3267.67	83.0299
3269.74	58.4799
3271.81	54.5352
3273.88	86.9028
3275.95	80.3411
3278.02	71.5049
3280.08	67.221
3282.15	56.055
3284.21	54.0422
3286.28	56.6156
3288.34	59.1892
3290.41	54.86
3292.47	57.4205
3294.53	66.8933
3296.59	87.9127
3298.65	48.9557
3300.71	56.1949
3302.77	65.7245
3304.83	47.4899
3306.89	38.4925
3308.95	45.7121
3311	36.6767
3313.06	57.8284
3315.11	51.1305
3317.17	49.0622
3319.22	56.3441
3321.27	44.984
3323.33	59.3345
3325.38	66.6997
3327.43	34.2936
3329.48	62.7783
3331.53	42.0977
3333.58	44.9121
3335.63	43.0033
3337.67	50.5388
3339.72	46.184
3341.77	29.938
3343.81	58.6656
3345.86	35.2431
3347.9	35.4725
3349.95	38.1172
3351.99	74.0649
3354.03	52.9167
3356.07	41.3206
3358.11	15.3857
3360.15	49.117
3362.19	44.6676
3364.23	56.9506
3366.27	57.2654
3368.31	52.7871
3370.34	55.5114
3372.38	43.7877
3374.42	41.6489
3376.45	41.8935
3378.48	39.7175
3380.52	35.1232
3382.55	47.41
3384.58	33.1435
3386.61	28.5197
3388.64	28.7201
3390.68	57.9388
3392.7	29.0993
3394.73	19.6233
3396.76	27.119
3398.79	37.0558
3400.82	25.1441
3402.84	39.8988
3404.87	37.6523
3406.89	40.2733
3408.92	28.3026
3410.94	28.462
3412.96	35.9286
3414.98	31.228
3417	38.7069
3419.03	26.6939
3421.05	53.665
3423.06	5.06255
3425.08	41.8023
3427.1	20.0293
3429.12	27.5469
3431.14	37.5293
3433.15	35.3118
3435.17	35.5536
3437.18	43.1563
3439.2	28.7284
3441.21	14.277
3443.22	29.2764
3445.23	36.963
3447.25	32.3911
3449.26	30.2656
3451.27	23.1983
3453.28	23.5494
3455.28	31.3479
3457.29	31.7656
3459.3	17.2981
3461.31	12.7339
3463.31	8.15454
3465.32	36.0083
3467.32	16.4496
3469.33	51.9135
3471.33	39.8163
3473.33	7.49225
3475.34	2.80321
3477.34	25.8218
3479.34	18.6295
3481.34	13.9372
3483.34	31.9997
3485.34	4.49139
3487.33	17.504
3489.33	17.8394
3491.33	30.8975
3493.32	23.5948
3495.32	34.1089
3497.32	19.094
3499.31	39.8272
3501.3	34.9937
3503.3	35.2453
3505.29	53.4416
3507.28	33.1491
3509.27	17.9267
3511.26	36.0442
3513.25	10.5086
3515.24	18.3515
3517.23	21.0547
3519.22	34.0412
3521.2	31.604
3523.19	34.3124
3525.18	26.7447
3527.16	29.4733
3529.15	14.1434
3531.13	11.7315
3533.11	22.2561
3535.1	27.6651
3537.08	38.2815
3539.06	25.6709
3541.04	25.9435
3543.02	21.0108
3545	34.2091
3546.98	0.690582
3548.96	32.0492
3550.93	37.4235
3552.91	37.5045
3554.89	27.2348
3556.86	22.1902
3558.84	35.3752
3560.81	38.1713
3562.78	43.5936
3564.76	33.3878
3566.73	12.7448
3568.7	33.9285
3570.67	26.336
3572.64	31.8263
3574.61	34.723
3576.58	50.7719
3578.55	40.5938
3580.52	33.0363
3582.48	38.6519
3584.45	39.005
3586.41	39.355
3588.38	31.7551
3590.35	29.4342
3592.31	27.1036
3594.27	27.4243
3596.23	19.7545
3598.2	28.0556
3600.16	36.3539
3602.12	36.6495
3604.08	23.5511
3606.04	26.4886
3608	26.7355
3609.95	40.3992
3611.91	43.3306
3613.87	22.0558
3615.83	14.1802
3617.78	22.4794
3619.74	1.07217
3621.69	25.516
3623.64	25.6224
3625.6	17.6057
3627.55	17.6956
3629.5	17.7756
3631.45	15.1258
3633.4	9.77803
3635.35	7.15195
3637.3	26.2093
3639.25	15.5131
3641.2	18.3978
3643.15	21.3061
3645.09	18.7898
3647.04	16.3075
3648.98	-2.67734
3650.93	32.8092
3652.87	16.5947
3654.82	11.2427
3656.76	16.7904
3658.7	8.69942
3660.64	16.9704
3662.58	17.0435
3664.53	22.5904
3666.47	22.6936
3668.4	36.4708
3670.34	14.6925
3672.28	31.2032
3674.22	14.9107
3676.16	26.0172
3678.09	20.7054
3680.03	18.1459
3681.96	18.3497
3683.9	15.8212
3685.83	13.3081
3687.76	19.0687
3689.69	13.7912
3691.63	0.199387
3693.56	17.036
3695.49	11.6935
3697.42	25.8156
3699.35	14.929
3701.28	26.3082
3703.2	18.1557
3705.13	32.3592
3707.06	-0.945801
3708.98	10.4709
3710.91	19.1084
3712.83	22.1504
3714.76	13.925
3716.68	25.372
3718.6	8.64671
3720.53	11.6275
3722.45	14.6053
3724.37	-5.03603
3726.29	26.201
3728.21	20.6853
3730.13	3.82468
3732.05	1.13126
3733.97	26.8246
3735.88	18.4612
3737.8	24.2987
3739.72	13.0547
3741.63	4.63017
3743.55	27.5623
3745.46	13.4188
3747.38	10.6691
3749.29	-3.52774
3751.2	19.4195
3753.11	10.9076
3755.02	28.135
3756.93	19.5934
3758.84	19.6289
3760.75	11.0619
3762.66	25.4138
3764.57	2.50862
3766.48	8.26323
3768.39	19.7731
3770.29	16.961
3772.2	5.54553
3774.1	25.7022
3776.01	17.1515
3777.91	22.9764
3779.81	0.0684967
3781.72	26.0648
3783.62	6.04076
3785.52	-2.48396
3787.42	9.16048
3789.32	29.4689
3791.22	18.0385
3793.12	15.2833
3795.02	3.86607
3796.92	24.296
3798.81	18.6809
3800.71	-1.4472
3802.61	21.9608
3804.5	16.3491
3806.4	7.82253
3808.29	22.5972
3810.18	5.29739
3812.08	-3.28639
3813.97	2.73097
3815.86	20.4667
3817.75	6.01106
3819.64	14.9853
3821.53	21.0353
3823.42	15.3365
3825.31	21.3717
3827.2	12.7145
3829.09	9.94499
3830.97	7.18829
3832.86	-1.47037
3834.75	4.61739
3836.63	10.7093
3838.52	16.8051
3840.4	11.0661
3842.28	20.2172
3844.17	-3.33661
3846.05	14.6081
3847.93	17.6879
3849.81	-0.00804138
3851.69	6.0551
3853.57	15.0719
3855.45	15.1903
3857.33	3.39339
3859.21	21.3049
3861.08	30.3288
3862.96	15.5934
3864.84	12.8284
3866.71	-7.74561
3868.59	1.50211
3870.46	7.74699
3872.34	-4.0401
3874.21	-0.895935
3876.08	5.25296
3877.95	17.3867
3879.82	8.60535
3881.69	-3.16313
3883.56	20.9785
3885.44	27.1938
3887.3	0.48436
3889.17	9.71686
3891.04	0.985458
3892.91	13.273
3894.77	13.6208
3896.64	13.9511
3898.51	11.2659
3900.37	5.57846
3902.23	5.91211
3904.1	0.208633
3905.96	6.58145
3907.82	9.93617
3909.69	-1.79199
3911.55	7.6579
3913.41	14.1005
3915.27	8.45673
3917.13	14.9542
3918.99	12.3815
3920.84	12.8709
3922.7	22.5007
3924.56	10.8237
3926.42	14.369
3928.27	8.76208
3930.13	0.0904083
3931.98	6.6893
3933.84	4.09944
3935.69	13.7668
3937.54	1.99077
3939.4	-9.77371
3941.25	-3.10735
3943.1	9.75165
3944.95	7.24612
3946.8	13.9821
3948.65	-0.847382
3950.5	27.4885
3952.35	24.9891
3954.19	19.3983
3956.04	26.1771
3957.89	17.4917
3959.73	11.8817
3961.58	3.17923
3963.42	13.0667
3965.27	16.7647
3967.11	20.4623
3968.96	14.8598
3970.8	27.8715
3972.64	16.1078
3974.48	32.2621
3976.32	29.8252
3978.16	27.3945
3980	31.1659
3981.84	34.9392
3983.68	38.7307
3985.52	27.0391
3987.36	15.3577
3989.19	-2.50052
3991.03	19.9893
3992.86	45.6215
3994.7	37.1636
3996.53	22.5285
3998.37	23.4375
