#Acq. time (s)=	30
#Accumulations=	2
#Range (cm-¹)=	1230...2360
#Windows=	3
#Auto scanning=	Off
#Autofocus=	Off
#Macrospot=	Off
#AutoExposure=	Off
#Spike filter=	Multiple accum.
#Delay time (s)=	2
#Binning=	1
#Readout mode=	Signal
#DeNoise=	Off
#ICS correction=	On
#Dark correction=	Off
#Inst. Process=	Off
#Detector Gain=	Best Dynamic
#Detector ADC=	50 kHz HS
#Detector temperature (°C)=	-60.09
#Instrument=	LabRAM HR Evol
#Detector=	SIN-EM FIVIS
#Objective=	x100_VIS
#Grating=	1800 (450-850nm)
#ND Filter=	100%
#Laser=	532nm_Edge
#Hole=	30.0125
#Temperature=	0
#Range=	Visible
#StageXY=	75x50mm Scan+
#StageZ=	Z motor
#X (µm)=	0
#Y (µm)=	0
#Z (µm)=	-137.6
#Full time(mm:ss)=	3:18
#Project=	21_05_14
#Sample=	BU19w
#Site=	
#Title=	BU19w-FF1-FI01-V_1800 (450-850nm)_532nm_Edge_100%_x100_VIS_H30um_30sX2
#Remark=	
#Date=	14.05.2021 11:21
#Acquired=	14.05.2021 11:21:13
#Base:Fit=	22.12.2021 12:22:35
#Base:Sub=	22.12.2021 12:23:38
#Data Range:Extract=	22.12.2021 12:27:19
1231.3	4.99422
1231.57	9.28225
1231.85	9.37045
1232.13	-0.00634766
1232.4	16.8917
1232.68	9.61549
1232.96	9.69616
1233.23	11.874
1233.51	16.145
1233.79	17.2563
1234.06	16.2628
1234.34	4.75214
1234.62	22.6543
1234.89	10.0939
1235.17	9.08741
1235.45	15.424
1235.72	13.3674
1236	26.0014
1236.28	18.7136
1236.55	12.4777
1236.83	23.017
1237.11	14.6897
1237.38	14.7494
1237.66	7.47356
1237.94	18.0184
1238.21	10.7441
1238.49	9.75444
1238.76	18.1839
1239.04	12.9891
1239.32	9.89787
1239.59	17.2954
1239.87	15.2575
1240.15	16.376
1240.42	23.7701
1240.7	13.3367
1240.98	13.3932
1241.25	12.3999
1241.53	18.7357
1241.8	15.636
1242.08	20.9152
1242.36	12.5611
1242.63	17.8283
1242.91	18.8943
1243.19	19.9699
1243.46	22.1043
1243.74	12.7252
1244.01	14.8653
1244.29	15.9519
1244.57	8.66444
1244.84	11.8449
1245.12	20.2416
1245.4	9.79778
1245.67	18.2004
1245.95	19.2875
1246.22	15.1498
1246.5	23.5575
1246.78	20.4529
1247.05	27.8121
1247.33	24.7049
1247.61	19.4935
1247.88	19.5117
1248.16	16.3968
1248.43	20.5982
1248.71	21.6645
1248.98	21.6849
1249.26	22.7485
1249.54	27.9875
1249.81	23.8276
1250.09	28.0183
1250.36	20.7331
1250.64	24.9348
1250.92	30.1904
1251.19	21.8849
1251.47	28.1936
1251.74	17.7921
1252.02	29.3086
1252.29	33.5169
1252.57	38.768
1252.85	21.0392
1253.12	26.2868
1253.4	36.7603
1253.67	31.5743
1253.95	32.6508
1254.23	23.273
1254.5	31.6423
1254.78	33.7442
1255.05	25.4056
1255.33	34.8179
1255.6	25.4353
1255.88	24.3943
1256.16	27.5368
1256.43	32.7828
1256.71	38.0261
1256.98	27.6455
1257.26	25.5669
1257.53	29.7437
1257.81	22.4255
1258.08	21.377
1258.36	24.5081
1258.63	23.4717
1258.91	26.6712
1259.19	22.5939
1259.46	15.4124
1259.74	22.6343
1260.01	29.859
1260.29	29.7678
1260.56	29.8593
1260.84	29.94
1261.11	34.1921
1261.39	35.3654
1261.67	22.76
1261.94	21.6965
1262.22	27.9739
1262.49	22.7617
1262.77	27.9742
1263.04	20.6659
1263.32	34.2614
1263.59	30.0992
1263.87	30.1209
1264.14	33.2824
1264.42	37.4944
1264.69	41.7109
1264.97	42.7925
1265.24	36.5544
1265.52	42.886
1265.79	59.6707
1266.07	46.0754
1266.35	56.5716
1266.62	46.1021
1266.89	48.1808
1267.17	45.0139
1267.45	16.7202
1267.72	21.9412
1268	30.2997
1268.27	19.8274
1268.55	25.0532
1268.82	26.0984
1269.1	14.6012
1269.37	25.088
1269.65	18.8316
1269.92	18.8539
1270.2	17.8236
1270.47	14.6971
1270.75	21.0036
1271.02	19.9727
1271.3	12.6435
1271.57	17.8913
1271.85	19.9854
1272.12	18.9319
1272.4	19.9824
1272.67	19.9891
1272.95	14.7508
1273.22	15.8106
1273.5	16.8696
1273.77	10.5779
1274.04	21.0836
1274.32	24.2446
1274.6	20.0551
1274.87	25.3208
1275.14	13.7688
1275.42	24.287
1275.69	14.8363
1275.97	17.9974
1276.24	19.0545
1276.52	23.2545
1276.79	27.4482
1277.07	27.4298
1277.34	19.0011
1277.62	22.1508
1277.89	15.8355
1278.17	14.7877
1278.44	19.0093
1278.71	17.9612
1278.99	21.1074
1279.26	28.4691
1279.54	18.9962
1279.81	26.348
1280.09	23.1536
1280.36	23.0699
1280.64	25.1154
1280.91	29.311
1281.19	29.2699
1281.46	30.5339
1281.73	33.7056
1282.01	35.8168
1282.28	33.6534
1282.56	38.8628
1282.83	39.8924
1283.11	53.5913
1283.38	65.1763
1283.66	83.0272
1283.93	107.228
1284.2	158.797
1284.48	195.601
1284.75	250.271
1285.03	324.929
1285.3	438.555
1285.58	517.481
1285.85	569.057
1286.13	618.594
1286.4	587.116
1286.67	488.238
1286.95	359.845
1287.22	250.362
1287.5	182.947
1287.77	123.914
1288.04	92.2853
1288.32	73.3058
1288.59	63.8075
1288.87	49.0412
1289.14	41.6474
1289.41	41.6345
1289.69	33.1901
1289.96	39.4796
1290.24	31.0358
1290.51	31.0347
1290.78	32.1063
1291.06	26.85
1291.33	26.8523
1291.61	20.5022
1291.88	25.7529
1292.15	31.0082
1292.43	22.5808
1292.7	25.7659
1292.98	14.1797
1293.25	18.4246
1293.52	19.473
1293.8	22.6247
1294.07	23.6558
1294.35	24.6776
1294.62	20.4137
1294.89	19.3188
1295.17	26.6702
1295.44	11.861
1295.72	23.4576
1295.99	20.2543
1296.26	20.2206
1296.54	21.2419
1296.81	24.3807
1297.09	20.1447
1297.36	16.9643
1297.63	12.7207
1297.91	16.919
1298.18	22.1712
1298.45	22.1492
1298.73	24.2479
1299	11.5631
1299.27	13.6588
1299.55	17.8629
1299.82	7.27535
1300.1	16.7542
1300.37	23.0598
1300.64	24.0786
1300.92	22.992
1301.19	19.7999
1301.46	17.6637
1301.74	19.7502
1302.01	13.383
1302.28	11.2355
1302.56	14.3622
1302.83	9.04527
1303.11	19.5538
1303.38	14.2387
1303.65	18.4234
1303.92	19.4504
1304.2	20.4851
1304.47	15.1891
1304.75	9.88913
1305.02	14.0809
1305.29	17.2236
1305.57	7.70086
1305.84	15.0594
1306.11	16.0987
1306.39	13.9725
1306.66	22.3985
1306.93	10.7728
1307.21	12.8568
1307.48	9.65918
1307.75	15.9634
1308.03	13.8289
1308.3	12.7509
1308.57	10.6164
1308.85	11.6486
1309.12	13.7448
1309.39	10.5622
1309.66	9.48511
1309.94	11.5709
1310.21	19.9784
1310.48	11.5005
1310.76	18.8584
1311.03	16.7139
1311.3	16.6854
1311.58	20.8837
1311.85	9.2513
1312.12	8.1761
1312.4	1.82119
1312.67	11.306
1312.94	18.681
1313.21	13.3729
1313.49	23.9025
1313.76	13.3104
1314.04	18.561
1314.31	15.365
1314.58	13.2329
1314.85	17.4385
1315.13	14.2472
1315.4	18.4486
1315.67	11.028
1315.95	9.9445
1316.22	13.0849
1316.49	10.942
1316.76	14.0808
1317.04	11.9438
1317.31	8.74855
1317.58	15.057
1317.85	11.8516
1318.13	9.69753
1318.4	18.0983
1318.67	18.0464
1318.95	12.7283
1319.22	3.18658
1319.49	14.7522
1319.76	11.5507
1320.04	8.35006
1320.31	10.4162
1320.58	12.5038
1320.86	14.5887
1321.13	17.7267
1321.4	12.4241
1321.67	9.2352
1321.95	17.6392
1322.22	14.4571
1322.49	11.2518
1322.76	11.1948
1323.04	7.97164
1323.31	11.049
1323.58	2.58208
1323.85	14.1175
1324.13	7.79286
1324.4	4.65501
1324.67	12.0235
1324.94	14.1278
1325.22	6.74909
1325.49	7.80253
1325.76	13.072
1326.03	9.89299
1326.31	18.2913
1326.58	16.1652
1326.85	8.75016
1327.12	10.8283
1327.4	6.57386
1327.67	10.7541
1327.94	15.9837
1328.21	10.6651
1328.49	0.0758171
1328.76	10.5555
1329.03	15.768
1329.3	8.35249
1329.58	7.25392
1329.85	9.30922
1330.12	11.3614
1330.39	11.3117
1330.66	3.90758
1330.94	16.4705
1331.21	11.1714
1331.48	5.87669
1331.75	6.88422
1332.03	6.84369
1332.3	12.0517
1332.57	12.0121
1332.84	9.87576
1333.11	14.0332
1333.39	8.7531
1333.66	12.9121
1333.93	10.7807
1334.2	13.8931
1334.47	2.33134
1334.75	9.63598
1335.02	9.59559
1335.29	2.21948
1335.56	4.27973
1335.83	13.6697
1336.11	14.682
1336.38	6.27742
1336.65	11.4895
1336.92	16.7044
1337.19	13.5398
1337.47	9.32809
1337.74	7.21128
1338.01	16.6113
1338.28	11.3469
1338.55	8.17617
1338.82	5.0034
1339.1	11.2505
1339.37	10.1646
1339.64	11.1688
1339.91	13.2182
1340.18	10.0444
1340.46	11.0604
1340.73	7.89597
1341	12.0546
1341.27	18.3069
1341.54	8.87072
1341.82	7.79583
1342.09	9.85301
1342.36	11.9053
1342.63	10.8153
1342.9	14.9524
1343.17	8.63806
1343.44	12.7584
1343.72	10.6226
1343.99	4.31883
1344.26	4.27576
1344.53	10.491
1344.8	7.32695
1345.07	15.6341
1345.35	9.35098
1345.62	4.11241
1345.89	12.4168
1346.16	9.25579
1346.43	10.2618
1346.7	10.2267
1346.97	8.1094
1347.25	3.91085
1347.52	12.2045
1347.79	10.0843
1348.06	12.1258
1348.33	14.1721
1348.6	9.97248
1348.88	14.1035
1349.15	7.84126
1349.42	10.9467
1349.69	7.81962
1349.96	10.9411
1350.23	5.72583
1350.5	4.71579
1350.78	7.89321
1351.05	17.1916
1351.32	10.8128
1351.59	6.55412
1351.86	12.7751
1352.13	7.56892
1352.4	17.9147
1352.67	7.48928
1352.95	8.52851
1353.22	9.55934
1353.49	11.6007
1353.76	11.5739
1354.03	8.43233
1354.3	12.5605
1354.57	15.6471
1354.84	10.425
1355.11	6.24165
1355.39	14.5136
1355.66	7.21814
1355.93	9.26112
1356.2	10.2659
1356.47	6.08851
1356.74	12.2836
1357.01	12.248
1357.28	4.95275
1357.55	8.0247
1357.83	11.1008
1358.1	19.3636
1358.37	7.95007
1358.64	10.0018
1358.91	5.8373
1359.18	21.3471
1359.45	14.072
1359.72	4.72881
1359.99	8.85052
1360.26	9.87287
1360.53	11.9388
1360.8	12.9676
1361.08	3.63707
1361.35	13.9797
1361.62	7.7435
1361.89	8.75595
1362.16	14.941
1362.43	12.8378
1362.7	12.8045
1362.97	5.52814
1363.24	4.46301
1363.51	19.9475
1363.78	10.6025
1364.05	11.5965
1364.32	6.40109
1364.6	12.58
1364.87	7.40562
1365.14	9.46395
1365.41	9.45355
1365.68	15.646
1365.95	8.39928
1366.22	12.5263
1366.49	14.5853
1366.76	11.4615
1367.03	23.8443
1367.3	12.4506
1367.57	15.5187
1367.84	8.26166
1368.11	17.5334
1368.38	9.23627
1368.65	10.2321
1368.92	20.5115
1369.19	13.2457
1369.46	7.01894
1369.74	15.2361
1370.01	7.99412
1370.28	11.0644
1370.55	11.0429
1370.82	13.0841
1371.09	26.4606
1371.36	34.6849
1371.63	33.6365
1371.9	42.8891
1372.17	33.5934
1372.44	11.9538
1372.71	11.9521
1372.98	18.1198
1373.25	20.1749
1373.52	13.963
1373.79	18.0529
1374.06	12.869
1374.33	24.1448
1374.6	17.9701
1374.87	6.65675
1375.14	12.8519
1375.41	12.8781
1375.68	19.0953
1375.95	13.9444
1376.22	17.025
1376.49	9.78911
1376.76	10.8002
1377.03	15.9285
1377.3	10.737
1377.57	16.8443
1377.84	19.8856
1378.11	15.7311
1378.38	19.8503
1378.65	18.7927
1378.92	15.6635
1379.19	16.6439
1379.46	19.6834
1379.73	20.6722
1380	15.5019
1380.27	13.4208
1380.54	24.672
1380.81	16.4462
1381.08	14.377
1381.35	15.3974
1381.62	19.4981
1381.89	16.4292
1382.16	5.15979
1382.43	11.3364
1382.7	19.5609
1382.97	20.599
1383.24	21.6303
1383.51	19.587
1383.78	23.6972
1384.05	28.8256
1384.32	23.6158
1384.59	35.7375
1384.86	30.4534
1385.13	35.5045
1385.4	26.404
1385.67	42.9325
1385.94	37.9244
1386.21	33.875
1386.48	57.494
1386.75	56.476
1387.02	77.9891
1387.29	87.1063
1387.56	113.711
1387.83	138.308
1388.1	179.221
1388.37	266.311
1388.64	422.042
1388.91	644.253
1389.17	900.138
1389.44	1223.52
1389.71	1368.7
1389.98	1277.39
1390.25	879.043
1390.52	531.971
1390.79	315.969
1391.06	199.274
1391.33	137.856
1391.6	92.8193
1391.87	62.1153
1392.14	61.1038
1392.41	60.0984
1392.68	45.7806
1392.95	43.7363
1393.22	34.5184
1393.49	34.5086
1393.76	35.519
1394.03	28.3421
1394.3	29.3466
1394.56	26.26
1394.83	24.2052
1395.1	29.3177
1395.37	31.369
1395.64	13.9883
1395.91	27.293
1396.18	25.2509
1396.45	23.2191
1396.72	16.064
1396.99	17.0949
1397.26	15.0467
1397.53	13.0108
1397.79	22.2456
1398.06	19.1832
1398.33	16.1086
1398.6	12.022
1398.87	18.1678
1399.14	23.3194
1399.41	12.0929
1399.68	18.2931
1399.95	15.2505
1400.22	13.2229
1400.49	10.1555
1400.76	15.2901
1401.02	22.4591
1401.29	18.3135
1401.56	12.1701
1401.83	12.1655
1402.1	12.1587
1402.37	14.1991
1402.64	8.03468
1402.91	18.2776
1403.18	17.2425
1403.44	16.212
1403.71	21.334
1403.98	24.416
1404.25	13.1497
1404.52	15.2095
1404.79	15.2174
1405.06	15.2254
1405.33	13.1827
1405.6	19.3433
1405.86	16.2767
1406.13	13.211
1406.4	13.2212
1406.67	25.5402
1406.94	21.446
1407.21	22.4749
1407.48	20.4112
1407.75	17.3168
1408.01	16.2724
1408.28	20.3587
1408.55	17.2759
1408.82	25.4669
1409.09	27.5193
1409.36	34.7106
1409.63	33.7202
1409.9	47.1266
1410.16	48.2852
1410.43	56.5646
1410.7	58.518
1410.97	59.4115
1411.24	66.63
1411.51	72.8801
1411.77	64.726
1412.04	52.4066
1412.31	34.9635
1412.58	33.944
1412.85	33.9543
1413.12	26.7815
1413.39	23.7159
1413.65	16.5422
1413.92	19.639
1414.19	15.5469
1414.46	16.5909
1414.73	13.5238
1415	21.7557
1415.27	12.5167
1415.53	9.44523
1415.8	8.42793
1416.07	18.7145
1416.34	10.5013
1416.61	16.6665
1416.87	4.33091
1417.14	9.46227
1417.41	15.6196
1417.68	15.6121
1417.95	13.551
1418.21	6.36134
1418.48	8.41789
1418.75	11.5114
1419.02	9.48876
1419.29	8.49294
1419.56	4.41794
1419.82	11.6598
1420.09	15.8531
1420.36	7.68645
1420.63	-0.731949
1420.9	13.5578
1421.17	6.389
1421.43	16.5774
1421.7	6.35992
1421.97	7.40285
1422.24	11.581
1422.51	7.47163
1422.77	12.619
1423.04	7.51709
1423.31	8.54846
1423.58	14.6985
1423.85	6.48692
1424.11	0.328289
1424.38	12.6185
1424.65	10.5488
1424.92	0.298317
1425.18	4.3959
1425.45	4.40377
1425.72	9.53603
1425.99	12.6238
1426.26	10.5937
1426.52	8.56549
1426.79	10.6373
1427.06	4.51749
1427.33	11.7214
1427.6	9.69753
1427.86	7.68229
1428.13	11.8292
1428.4	1.60225
1428.67	9.83478
1428.93	14.9775
1429.2	13.9478
1429.47	6.7612
1429.74	14.9711
1430.01	9.83047
1430.27	14.9422
1430.54	7.74946
1430.81	7.73616
1431.08	-0.458145
1431.34	6.71773
1431.61	11.8929
1431.88	7.81576
1432.15	9.8812
1432.41	3.74616
1432.68	4.78263
1432.95	12.9901
1433.22	9.92524
1433.48	0.713127
1433.75	-0.303562
1434.02	9.94792
1434.29	16.1016
1434.55	6.89597
1434.82	12.0219
1435.09	13.0577
1435.36	5.90847
1435.62	3.88394
1435.89	6.97681
1436.16	15.1894
1436.43	13.16
1436.69	4.98936
1436.96	8.09439
1437.23	8.12688
1437.49	6.09863
1437.76	8.16794
1438.03	14.3372
1438.3	9.22722
1438.56	14.3628
1438.83	12.3161
1439.1	9.25338
1439.37	10.3059
1439.63	8.27472
1439.9	5.22263
1440.17	10.3567
1440.44	6.25916
1440.7	15.4925
1440.97	10.376
1441.24	4.23963
1441.5	7.3382
1441.77	12.5003
1442.04	6.38089
1442.31	4.36058
1442.57	7.44889
1442.84	7.45877
1443.11	10.5465
1443.37	10.5569
1443.64	2.36279
1443.91	8.52758
1444.18	6.48739
1444.44	5.4713
1444.71	3.42919
1444.98	3.44041
1445.24	9.61039
1445.51	5.53895
1445.78	11.7217
1446.04	5.58775
1446.31	7.65402
1446.58	10.7412
1446.84	7.67216
1447.11	3.57683
1447.38	7.68514
1447.65	8.7217
1447.91	1.55875
1448.18	2.59585
1448.45	4.65716
1448.71	2.61853
1448.98	0.580814
1449.25	9.81484
1449.51	10.8549
1449.78	3.70192
1450.05	5.77308
1450.31	7.84761
1450.58	5.82085
1450.85	4.8129
1451.11	10.9746
1451.38	6.89075
1451.65	5.88411
1451.91	3.85239
1452.18	12.065
1452.45	3.88189
1452.71	10.0529
1452.98	11.1068
1453.25	11.1301
1453.51	8.07216
1453.78	13.2071
1454.05	3.99065
1454.31	10.1477
1454.58	9.13652
1454.85	1.97988
1455.11	9.16736
1455.38	9.1863
1455.65	-0.0125771
1455.91	5.13191
1456.18	1.05493
1456.44	10.2971
1456.71	3.14407
1456.98	9.30708
1457.24	5.22334
1457.51	4.21296
1457.78	7.29928
1458.04	11.4072
1458.31	11.417
1458.58	7.33095
1458.84	7.33976
1459.11	13.4893
1459.38	4.28356
1459.64	1.2199
1459.91	6.34082
1460.17	5.32191
1460.44	8.3932
1460.71	6.35479
1460.97	5.35465
1461.24	10.5147
1461.51	6.46997
1461.77	12.6544
1462.04	13.7364
1462.3	7.5061
1462.57	13.5564
1462.84	10.4647
1463.1	8.45419
1463.37	9.51086
1463.63	11.5544
1463.9	6.4409
1464.17	8.50498
1464.43	9.54601
1464.7	14.6616
1464.97	8.55567
1465.23	6.5332
1465.5	11.6521
1465.76	12.69
1466.03	12.7046
1466.3	6.59765
1466.56	5.58947
1466.83	15.7899
1467.09	4.58065
1467.36	12.7426
1467.63	3.58274
1467.89	2.57661
1468.16	12.7815
1468.42	10.7509
1468.69	0.573524
1468.95	5.67832
1469.22	1.62175
1469.49	6.73101
1469.75	7.76759
1470.02	4.73093
1470.28	11.8717
1470.55	10.8623
1470.82	9.85512
1471.08	4.77902
1471.35	3.77825
1471.61	11.9408
1471.88	7.89833
1472.15	11.9924
1472.41	7.94172
1472.68	8.97656
1472.94	6.95414
1473.21	4.92993
1473.47	10.0328
1473.74	11.064
1474.01	3.95108
1474.27	9.04719
1474.54	8.04701
1474.8	12.1333
1475.07	10.1181
1475.33	11.1446
1475.6	4.03545
1475.87	5.06348
1476.13	11.1719
1476.4	7.11571
1476.66	1.02784
1476.93	12.2083
1477.19	14.242
1477.46	7.13203
1477.72	6.1208
1477.99	9.17496
1478.25	11.217
1478.52	12.2458
1478.79	3.14294
1479.05	7.23275
1479.32	12.3404
1479.58	9.32878
1479.85	8.34108
1480.11	7.34872
1480.38	16.5148
1480.64	5.36858
1480.91	5.38871
1481.17	3.36862
1481.44	1.33193
1481.7	4.35183
1481.97	10.3775
1482.23	5.26784
1482.5	4.23803
1482.77	2.25616
1483.03	5.41151
1483.3	9.50788
1483.56	7.49093
1483.83	11.5311
1484.09	7.52548
1484.36	12.6118
1484.62	2.48305
1484.89	15.6586
1485.15	8.57972
1485.42	10.6132
1485.68	7.58143
1485.95	3.53933
1486.21	11.6454
1486.48	11.659
1486.74	2.56849
1487.01	8.65634
1487.27	11.7115
1487.54	8.69351
1487.8	9.71549
1488.07	12.7563
1488.33	4.67694
1488.6	8.73683
1488.86	11.7883
1489.13	11.8102
1489.39	2.73225
1489.66	11.8492
1489.92	13.8883
1490.19	13.9077
1490.45	11.904
1490.72	10.9095
1490.98	7.89613
1491.25	11.9621
1491.51	5.92256
1491.78	7.96732
1492.04	11.0151
1492.31	4.95696
1492.57	17.0815
1492.84	13.037
1493.1	5.97184
1493.37	12.0396
1493.63	9.0228
1493.9	12.0618
1494.16	9.0489
1494.42	22.1897
1494.69	10.0962
1494.95	7.08593
1495.22	8.1148
1495.48	10.1544
1495.75	8.1579
1496.01	10.199
1496.28	5.17594
1496.54	6.2102
1496.81	12.2932
1497.07	8.27961
1497.34	12.3393
1497.6	9.32911
1497.86	8.33777
1498.13	8.35476
1498.39	8.36358
1498.66	12.412
1498.92	6.37408
1499.19	4.37389
1499.45	17.5089
1499.72	10.4552
1499.98	13.4859
1500.25	13.497
1500.51	13.5043
1500.77	4.44219
1501.04	8.49923
1501.3	13.5658
1501.57	10.5624
1501.83	5.53923
1502.1	6.563
1502.36	13.633
1502.62	7.59198
1502.89	10.6094
1503.15	4.57129
1503.42	18.6926
1503.68	10.6503
1503.95	1.61152
1504.21	9.69617
1504.47	7.70377
1504.74	9.74054
1505	11.7728
1505.27	15.8173
1505.53	15.8357
1505.8	14.8501
1506.06	7.81813
1506.33	10.8606
1506.59	5.84007
1506.85	1.83043
1507.12	10.9313
1507.38	14.9737
1507.65	19.0106
1507.91	15.9918
1508.17	12.9726
1508.44	7.9362
1508.7	10.944
1508.97	5.89804
1509.23	11.9191
1509.49	20.9465
1509.76	8.88818
1510.02	14.9168
1510.29	17.9325
1510.55	9.90833
1510.81	13.9427
1511.08	8.97102
1511.34	10.0117
1511.6	8.01873
1511.87	15.0586
1512.13	9.03234
1512.4	9.03659
1512.66	15.058
1512.93	13.0487
1513.19	9.03549
1513.45	8.04291
1513.72	12.0673
1513.98	13.0832
1514.24	14.1008
1514.51	12.1136
1514.77	14.1398
1515.04	15.1704
1515.3	12.1892
1515.56	6.19355
1515.83	16.2464
1516.09	13.2604
1516.35	16.2941
1516.62	15.3138
1516.88	11.32
1517.14	9.328
1517.41	15.3598
1517.67	8.35497
1517.94	7.37481
1518.2	17.4319
1518.46	0.396961
1518.73	8.44206
1518.99	16.4826
1519.26	9.47074
1519.52	5.46863
1519.78	9.49169
1520.05	11.5067
1520.31	16.5225
1520.57	12.5064
1520.84	0.477779
1521.1	11.5014
1521.36	10.5046
1521.63	9.50986
1521.89	6.52157
1522.15	11.5513
1522.42	13.5743
1522.68	12.5963
1522.94	8.61778
1523.21	11.6554
1523.47	7.67924
1523.73	11.7149
1524	7.72457
1524.26	12.748
1524.52	-1.27273
1524.79	1.74675
1525.05	13.7837
1525.31	12.7918
1525.58	10.7975
1525.84	21.8271
1526.1	13.8252
1526.37	13.8397
1526.63	15.857
1526.89	13.8624
1527.16	6.86227
1527.42	11.8875
1527.68	7.90786
1527.95	16.953
1528.21	10.9707
1528.47	16.003
1528.73	11.0072
1529	9.01907
1529.26	10.0329
1529.52	14.0568
1529.79	16.0906
1530.05	13.1219
1530.31	10.1524
1530.58	11.1856
1530.84	20.2371
1531.1	15.2397
1531.37	9.23461
1531.63	14.2617
1531.89	8.25317
1532.15	21.3007
1532.42	12.2822
1532.68	8.26336
1532.94	12.2626
1533.21	19.274
1533.47	20.2697
1533.73	21.2595
1534	11.2405
1534.26	16.2452
1534.52	12.2443
1534.78	17.2562
1535.05	12.2632
1535.31	14.2592
1535.57	10.2633
1535.84	14.2686
1536.1	14.2909
1536.36	14.3357
1536.62	10.3945
1536.89	19.4601
1537.15	10.4914
1537.41	10.5351
1537.67	17.5899
1537.94	16.6188
1538.2	9.59667
1538.46	12.6088
1538.73	13.6128
1538.99	23.6301
1539.25	11.6044
1539.51	15.6085
1539.78	13.6039
1540.04	15.6052
1540.3	14.6028
1540.56	17.5992
1540.83	17.586
1541.09	14.5942
1541.35	13.6107
1541.61	3.63197
1541.88	9.66589
1542.14	12.6955
1542.4	18.7404
1542.66	13.7679
1542.93	13.7921
1543.19	9.80896
1543.45	12.8264
1543.72	18.8505
1543.98	8.8531
1544.24	10.8774
1544.5	15.9106
1544.76	11.9133
1545.03	5.8828
1545.29	17.9047
1545.55	8.90149
1545.81	10.9465
1546.08	9.92428
1546.34	17.8669
1546.6	6.8442
1546.86	14.8732
1547.13	8.93564
1547.39	19.0633
1547.65	13.1362
1547.91	17.2631
1548.18	21.2595
1548.44	17.253
1548.7	12.2422
1548.96	17.2426
1549.22	18.2755
1549.49	22.3456
1549.75	18.3387
1550.01	13.3238
1550.27	8.26677
1550.53	13.2764
1550.8	9.2713
1551.06	13.2856
1551.32	7.26403
1551.58	16.28
1551.85	9.24932
1552.11	10.2518
1552.37	17.2703
1552.63	17.2798
1552.89	8.27866
1553.15	20.3182
1553.42	11.3023
1553.68	15.3184
1553.94	17.3372
1554.2	18.3553
1554.46	16.3661
1554.73	13.3705
1554.99	12.3736
1555.25	7.35618
1555.51	10.3577
1555.77	4.34299
1556.04	11.3391
1556.3	17.3333
1556.56	16.3278
1556.82	14.3262
1557.08	13.3271
1557.35	16.3287
1557.61	20.3315
1557.87	10.3432
1558.13	12.3507
1558.39	19.3582
1558.65	18.3805
1558.92	21.4062
1559.18	18.4431
1559.44	7.45763
1559.7	17.4676
1559.96	13.4721
1560.23	15.4839
1560.49	18.4906
1560.75	14.4939
1561.01	14.5189
1561.27	19.5581
1561.53	8.57566
1561.79	12.5897
1562.06	17.5811
1562.32	16.4977
1562.58	15.3544
1562.84	13.2337
1563.1	12.4287
1563.36	17.5786
1563.63	15.5895
1563.89	16.5472
1564.15	18.5817
1564.41	18.6597
1564.67	6.67293
1564.93	15.6422
1565.19	16.644
1565.46	20.6622
1565.72	15.6791
1565.98	13.6868
1566.24	10.6767
1566.5	13.6663
1566.76	16.6693
1567.03	14.6841
1567.29	13.6961
1567.55	15.705
1567.81	6.71848
1568.07	12.7214
1568.33	13.7246
1568.59	14.7233
1568.85	11.7222
1569.11	15.7226
1569.38	16.7234
1569.64	18.7164
1569.9	13.721
1570.16	13.72
1570.42	17.7104
1570.68	19.7032
1570.94	11.7249
1571.21	16.7324
1571.47	17.7537
1571.73	19.7752
1571.99	12.8094
1572.25	20.8259
1572.51	9.85676
1572.77	16.8661
1573.03	7.87595
1573.29	14.8774
1573.56	8.88486
1573.82	14.8702
1574.08	18.8473
1574.34	9.84445
1574.6	9.82977
1574.86	12.8097
1575.12	17.7829
1575.38	14.7832
1575.64	11.7934
1575.9	13.793
1576.16	23.7686
1576.43	15.8003
1576.69	18.8003
1576.95	9.84303
1577.21	16.8358
1577.47	21.8312
1577.73	18.8448
1577.99	14.8563
1578.25	10.8646
1578.51	13.8537
1578.77	17.8346
1579.03	12.8427
1579.29	15.8316
1579.56	15.8333
1579.82	16.8303
1580.08	10.8554
1580.34	15.8394
1580.6	15.8448
1580.86	8.8722
1581.12	18.8354
1581.38	9.88274
1581.64	23.8382
1581.9	16.875
1582.16	17.8774
1582.42	11.9028
1582.68	13.8992
1582.95	9.91675
1583.21	10.9052
1583.47	18.8589
1583.73	11.8832
1583.99	14.865
1584.25	11.8776
1584.51	16.8519
1584.77	16.8529
1585.03	18.847
1585.29	17.8619
1585.55	18.8693
1585.81	18.8849
1586.07	16.9079
1586.33	15.9264
1586.59	17.9296
1586.85	8.97748
1587.11	14.9552
1587.38	15.9599
1587.64	11.989
1587.9	15.9852
1588.16	11.0087
1588.42	14.0011
1588.68	22.9642
1588.94	11.0137
1589.2	14.9885
1589.46	14.9716
1589.72	19.9327
1589.98	18.9341
1590.24	16.9248
1590.5	18.891
1590.76	11.9078
1591.02	8.91314
1591.28	13.8731
1591.54	19.8344
1591.8	13.8846
1592.06	12.909
1592.32	18.8835
1592.58	9.95354
1592.84	23.83
1593.1	10.9181
1593.36	19.8604
1593.62	19.8642
1593.88	16.89
1594.14	12.9247
1594.4	15.9136
1594.66	19.8985
1594.92	18.9079
1595.18	17.9122
1595.44	14.9252
1595.7	13.9173
1595.96	16.8818
1596.22	9.92383
1596.48	18.8479
1596.74	16.8546
1597	17.8377
1597.26	20.8053
1597.52	15.8363
1597.78	15.8238
1598.04	23.7355
1598.3	12.814
1598.56	17.7477
1598.82	23.672
1599.08	21.6785
1599.34	10.7787
1599.6	12.7476
1599.86	13.7236
1600.12	14.7003
1600.38	20.6233
1600.64	26.549
1600.9	19.6223
1601.16	17.6448
1601.42	15.6703
1601.68	23.5849
1601.94	17.655
1602.2	13.7033
1602.46	15.685
1602.72	21.6243
1602.98	13.7233
1603.24	22.6357
1603.5	19.6796
1603.76	18.6998
1604.02	8.81359
1604.28	21.681
1604.54	17.7243
1604.8	17.7235
1605.06	13.7661
1605.32	22.6715
1605.58	12.7779
1605.83	17.7223
1606.09	19.6863
1606.35	16.6995
1606.61	23.6034
1606.87	15.6772
1607.13	14.669
1607.39	13.6643
1607.65	17.6008
1607.91	7.71532
1608.17	14.6147
1608.43	15.5901
1608.69	13.6152
1608.95	19.5367
1609.21	19.545
1609.47	9.68291
1609.73	14.6198
1609.99	14.6192
1610.25	25.4789
1610.51	25.4794
1610.77	11.6539
1611.02	8.68305
1611.28	16.57
1611.54	17.5563
1611.8	17.5613
1612.06	22.496
1612.32	14.5961
1612.58	26.4271
1612.84	23.4645
1613.1	19.518
1613.36	16.5649
1613.62	10.6527
1613.88	17.5644
1614.14	17.5652
1614.39	13.6164
1614.65	23.4791
1614.91	16.5685
1615.17	14.5919
1615.43	15.5782
1615.69	14.5861
1615.95	5.69751
1616.21	26.3955
1616.47	19.4819
1616.73	16.5142
1616.99	7.63473
1617.24	17.4847
1617.5	13.5378
1617.76	19.4485
1618.02	19.4492
1618.28	22.4112
1618.54	13.5483
1618.8	7.63799
1619.06	14.5419
1619.32	18.4872
1619.58	10.6034
1619.83	11.5974
1620.09	21.4697
1620.35	8.66237
1620.61	21.5028
1620.87	25.4524
1621.13	17.5504
1621.39	17.5316
1621.65	13.5581
1621.91	21.4264
1622.16	19.4415
1622.42	18.4455
1622.68	17.4529
1622.94	16.4631
1623.2	18.4327
1623.46	15.4796
1623.72	14.5064
1623.98	7.59987
1624.24	18.4364
1624.49	20.4059
1624.75	17.4493
1625.01	23.3622
1625.27	14.4953
1625.53	11.5405
1625.79	16.4728
1626.05	17.4542
1626.3	18.4295
1626.56	16.4513
1626.82	16.4453
1627.08	21.367
1627.34	18.4063
1627.6	22.3413
1627.86	21.3438
1628.11	15.4318
1628.37	14.4497
1628.63	16.4295
1628.89	23.3388
1629.15	21.3792
1629.41	20.3876
1629.67	18.4362
1629.92	4.66326
1630.18	14.4992
1630.44	10.5214
1630.7	22.3364
1630.96	11.5053
1631.22	15.4564
1631.47	15.4585
1631.73	16.4079
1631.99	18.2857
1632.25	22.9578
1632.51	9.48775
1632.77	16.0446
1633.02	20.4788
1633.28	11.1353
1633.54	17.3701
1633.8	10.9949
1634.06	18.0581
1634.32	17.0877
1634.58	11.42
1634.83	13.1705
1635.09	17.6885
1635.35	16.064
1635.61	16.8877
1635.87	15.5348
1636.12	19.083
1636.38	10.3639
1636.64	19.4643
1636.9	12.9543
1637.16	17.3239
1637.42	11.543
1637.67	16.0241
1637.93	15.5629
1638.19	13.2845
1638.45	8.96842
1638.7	8.09944
1638.96	18.1095
1639.22	11.9555
1639.48	16.3427
1639.74	13.8228
1640	14.4746
1640.25	15.0684
1640.51	15.3236
1640.77	9.64265
1641.03	16.9286
1641.28	14.2414
1641.54	7.66122
1641.8	11.3044
1642.06	12.4572
1642.32	13.6763
1642.58	11.3777
1642.83	9.98635
1643.09	10.1058
1643.35	8.60807
1643.61	10.6618
1643.86	14.2248
1644.12	10.4568
1644.38	10.633
1644.64	10.013
1644.9	12.7932
1645.15	13.2315
1645.41	12.8449
1645.67	9.9451
1645.93	10.1617
1646.18	13.1846
1646.44	12.2637
1646.7	13.8509
1646.96	6.60888
1647.21	10.7885
1647.47	9.50504
1647.73	14.1191
1647.99	7.73156
1648.24	10.8069
1648.5	13.7854
1648.76	14.4174
1649.02	13.0438
1649.27	11.4115
1649.53	10.5295
1649.79	12.8266
1650.05	11.3675
1650.31	8.2987
1650.56	9.56976
1650.82	11.139
1651.08	10.9054
1651.33	9.82688
1651.59	6.87636
1651.85	6.25545
1652.11	7.93263
1652.37	7.20956
1652.62	10.5993
1652.88	11.3503
1653.14	10.2243
1653.39	13.6899
1653.65	12.0602
1653.91	9.94803
1654.17	9.56963
1654.42	10.0237
1654.68	9.92561
1654.94	8.82505
1655.2	5.94099
1655.45	7.27713
1655.71	7.38067
1655.97	10.1251
1656.22	10.9404
1656.48	8.96834
1656.74	5.93805
1657	9.39342
1657.25	3.51603
1657.51	3.79289
1657.77	7.09545
1658.03	9.48286
1658.23	10.2753
1658.49	7.32513
1658.75	5.35558
1659.01	9.30985
1659.27	9.25789
1659.53	2.40396
1659.79	10.3925
1660.05	8.40877
1660.31	1.46892
1660.57	7.40181
1660.83	7.27893
1661.09	4.33008
1661.35	2.38228
1661.61	4.35627
1661.87	11.2891
1662.13	9.34029
1662.39	7.33126
1662.65	4.24788
1662.92	3.39326
1663.17	7.39462
1663.43	13.3076
1663.69	4.43239
1663.96	8.05019
1664.22	10.2143
1664.47	0.356274
1664.73	1.32761
1665	11.1884
1665.26	9.199
1665.51	4.25646
1665.77	8.21274
1666.04	8.25793
1666.3	2.33947
1666.55	2.33673
1666.81	10.2373
1667.08	11.2234
1667.34	5.27707
1667.59	3.32091
1667.85	5.33101
1668.12	8.28754
1668.37	8.27718
1668.63	4.31775
1668.89	4.31239
1669.16	9.25833
1669.41	10.2456
1669.67	9.25476
1669.93	10.2381
1670.19	9.24737
1670.45	4.30329
1670.71	5.29145
1670.97	11.2255
1671.23	8.26353
1671.49	7.27954
1671.75	6.29391
1672.01	7.28923
1672.27	6.30787
1672.53	7.30017
1672.79	10.2684
1673.05	9.2742
1673.31	5.31247
1673.57	14.2194
1673.83	2.3417
1674.09	11.246
1674.35	5.30146
1674.61	10.2414
1674.87	9.2407
1675.13	-0.667248
1675.39	12.1767
1675.65	8.20419
1675.91	5.22482
1676.17	8.17986
1676.43	5.20441
1676.68	10.138
1676.94	5.18586
1677.2	4.18887
1677.46	12.0858
1677.72	7.13492
1677.98	6.13771
1678.24	8.10621
1678.5	10.0768
1678.76	0.193386
1679.02	7.10501
1679.28	7.10181
1679.54	1.17171
1679.8	7.09481
1680.06	8.0771
1680.32	5.10886
1680.58	-0.82217
1680.84	8.06408
1681.1	9.0453
1681.35	7.05882
1681.61	14.9494
1681.87	8.02903
1682.13	9.99811
1682.39	9.00568
1682.65	6.03926
1682.91	5.04855
1683.17	11.9584
1683.43	8.99593
1683.69	2.08973
1683.95	2.09396
1684.21	8.02105
1684.46	6.0391
1684.72	2.07837
1684.98	7.00667
1685.24	11.9352
1685.5	0.0757141
1685.76	6.97709
1686.02	3.01255
1686.28	11.8819
1686.54	6.93337
1686.8	7.90565
1687.06	4.92922
1687.31	6.88664
1687.57	4.92534
1687.83	8.87683
1688.09	4.93329
1688.35	10.8543
1688.61	10.8554
1688.87	7.89967
1689.13	11.8458
1689.39	3.94472
1689.65	8.86941
1689.91	2.93458
1690.16	6.86539
1690.42	5.86053
1690.68	8.79778
1690.94	8.77882
1691.2	4.8232
1691.46	6.77813
1691.72	3.80935
1691.98	5.77267
1692.23	9.71265
1692.49	6.75822
1692.75	6.75852
1693.01	5.77427
1693.27	8.73389
1693.53	4.79667
1693.79	8.73729
1694.05	3.80284
1694.31	7.73216
1694.56	5.74462
1694.82	11.6347
1695.08	3.74025
1695.34	2.74253
1695.6	4.69882
1695.86	7.6397
1696.12	6.64717
1696.38	9.5939
1696.63	5.65703
1696.89	10.5761
1697.15	7.62203
1697.41	7.6123
1697.67	1.7006
1697.93	4.64713
1698.19	9.55997
1698.44	10.536
1698.7	7.57388
1698.96	0.676403
1699.22	7.54571
1699.48	10.4803
1699.73	11.4485
1699.99	3.57829
1700.25	10.4522
1700.51	7.49846
1700.77	4.54311
1701.03	7.48368
1701.29	6.50167
1701.54	6.50681
1701.8	10.4388
1702.06	2.57351
1702.32	3.55017
1702.58	7.47718
1702.84	0.597523
1703.09	4.51869
1703.35	9.41615
1703.61	14.3097
1703.87	6.43612
1704.13	1.5109
1704.39	5.42221
1704.65	2.46185
1704.9	14.2118
1705.16	7.32481
1705.42	9.26421
1705.68	9.23923
1705.94	10.1948
1706.19	2.34281
1706.45	6.24725
1706.71	8.19784
1706.97	8.19401
1707.23	11.1299
1707.48	5.25563
1707.74	5.25653
1708	3.3063
1708.26	10.1649
1708.52	15.0657
1708.77	6.25441
1709.03	9.19389
1709.29	4.29049
1709.55	7.21322
1709.81	6.20763
1710.07	3.24578
1710.32	1.2627
1710.58	5.15468
1710.84	2.19501
1711.1	1.20488
1711.35	6.08039
1711.61	15.8404
1711.87	6.06713
1712.13	1.17999
1712.39	5.09009
1712.64	8.0377
1712.9	9.9915
1713.16	7.05453
1713.42	12.9068
1713.68	6.05536
1713.93	5.06169
1714.19	12.8497
1714.45	8.91869
1714.71	9.86258
1714.96	7.88124
1715.22	3.95932
1715.48	6.85927
1715.74	9.76486
1716	7.80676
1716.25	8.77642
1716.51	9.74913
1716.77	5.85056
1717.03	6.82397
1717.29	6.82838
1717.54	11.691
1717.8	10.7058
1718.06	5.82275
1718.32	7.75299
1718.57	8.71339
1718.83	11.6161
1719.09	9.65477
1719.35	7.69341
1719.6	8.64868
1719.86	5.71791
1720.12	13.4752
1720.38	9.57734
1720.63	10.5394
1720.89	9.56516
1721.15	-0.148834
1721.41	8.58502
1721.66	4.69352
1721.92	8.56095
1722.18	7.56766
1722.44	9.48384
1722.69	9.46008
1722.95	7.50325
1723.21	3.61751
1723.47	7.495
1723.72	4.58566
1723.98	9.422
1724.24	7.4651
1724.5	6.48914
1724.75	9.40619
1725.01	11.3444
1725.27	9.39722
1725.52	10.3445
1725.78	8.33604
1726.04	5.34448
1726.3	5.29813
1726.55	10.1434
1726.81	6.31509
1727.07	9.23876
1727.33	8.24817
1727.58	5.33016
1727.84	9.1827
1728.1	7.30751
1728.35	3.45837
1728.61	8.29287
1728.87	13.1244
1729.13	6.35644
1729.38	9.24981
1729.64	5.37887
1729.9	6.33686
1730.15	1.49614
1730.41	6.30873
1730.67	5.32107
1730.93	1.43574
1731.18	5.27756
1731.44	15.8661
1731.7	9.09679
1731.95	3.29539
1732.21	8.0941
1732.47	5.18711
1732.72	9.0262
1732.98	2.27779
1733.24	12.861
1733.5	6.11835
1733.75	6.11114
1734.01	5.14177
1734.27	2.24788
1734.52	8.0122
1734.78	6.08209
1735.04	9.91969
1735.29	7.98436
1735.55	8.93337
1735.81	10.8434
1736.06	6.02554
1736.32	6.97049
1736.58	16.5519
1736.83	5.00457
1737.09	9.77663
1737.35	3.99952
1737.61	10.6922
1737.86	7.80187
1738.12	2.99849
1738.38	7.7769
1738.63	4.89216
1738.89	12.544
1739.15	5.83533
1739.4	12.5349
1739.66	14.4466
1739.92	3.91084
1740.17	3.90813
1740.43	4.8651
1740.69	8.69062
1740.94	4.85259
1741.2	8.66993
1741.46	8.66265
1741.71	13.4408
1741.97	11.5292
1742.23	4.83627
1742.48	7.70801
1742.74	3.88131
1743	8.65851
1743.25	10.561
1743.51	6.72296
1743.76	8.61846
1744.02	8.60477
1744.28	11.4558
1744.53	3.80199
1744.79	8.56478
1745.05	11.4216
1745.3	15.24
1745.56	9.51532
1745.82	3.79223
1746.07	6.66213
1746.33	13.3542
1746.59	9.54732
1746.84	7.65168
1747.1	12.4443
1747.35	10.5512
1747.61	10.5676
1747.87	4.84154
1748.12	14.4098
1748.38	8.67942
1748.63	3.89581
1748.89	9.61725
1749.15	1.95742
1749.4	12.4532
1749.66	13.3966
1749.92	6.70124
1750.17	8.59944
1750.43	10.4988
1750.69	4.7655
1750.94	8.57487
1751.2	9.51833
1751.45	7.59993
1751.71	7.59284
1751.97	4.72725
1752.22	9.48928
1752.48	11.3906
1752.73	9.47723
1752.99	5.6563
1753.25	7.55014
1753.5	10.3937
1753.76	12.2806
1754.02	5.60118
1754.27	7.48967
1754.53	9.38668
1754.78	9.38206
1755.04	15.0944
1755.29	9.40881
1755.55	13.2256
1755.81	9.42479
1756.06	-0.086483
1756.32	7.53018
1756.57	8.48869
1756.83	9.44338
1757.09	5.63619
1757.34	1.8289
1757.6	5.63293
1757.85	12.2891
1758.11	5.62458
1758.37	8.46917
1758.62	8.46154
1758.88	7.50665
1759.13	8.4565
1759.39	5.60453
1759.65	10.3724
1759.9	6.58082
1760.16	10.3901
1760.41	12.2924
1760.67	7.54416
1760.92	10.4051
1761.18	17.0728
1761.43	10.4311
1761.69	11.4126
1761.95	10.4756
1762.2	8.58493
1762.46	8.59521
1762.71	16.2201
1762.97	6.70665
1763.22	3.85512
1763.48	3.85788
1763.74	2.90598
1763.99	8.61725
1764.25	11.4769
1764.5	4.81357
1764.76	9.56897
1765.01	10.5149
1765.27	13.367
1765.52	6.70501
1765.78	15.269
1766.04	9.54141
1766.29	6.65932
1766.55	8.53365
1766.8	9.4635
1767.06	10.4192
1767.31	6.63819
1767.57	6.66026
1767.82	10.4665
1768.08	11.4257
1768.33	9.54561
1768.59	2.91924
1768.84	14.3433
1769.1	1.98947
1769.36	6.75871
1769.61	5.82475
1769.87	7.74235
1770.12	9.65825
1770.38	10.6225
1770.63	7.77922
1770.89	15.4054
1771.14	11.6085
1771.4	8.7616
1771.65	12.5783
1771.91	10.6881
1772.16	8.79446
1772.42	11.6677
1772.67	4.07862
1772.93	13.6317
1773.18	6.01998
1773.44	13.6549
1773.69	14.611
1773.95	17.4679
1774.21	6.02512
1774.46	11.7417
1774.71	9.83057
1774.97	6.01456
1775.22	12.6763
1775.48	1.24319
1775.74	7.90181
1775.99	5.03626
1776.24	8.83202
1776.5	12.6327
1776.76	11.6858
1777.01	3.1447
1777.27	6.01062
1777.52	12.6833
1777.77	0.320919
1778.03	11.756
1778.29	10.8117
1778.54	13.6766
1778.8	1.31105
1779.05	14.6563
1779.3	5.14917
1779.56	6.12184
1779.81	9.94857
1780.07	9.96236
1780.32	6.16346
1780.58	5.22445
1780.83	10.0049
1781.09	13.8342
1781.34	7.17715
1781.6	7.19942
1781.85	14.8477
1782.11	17.7224
1782.36	12.0044
1782.62	6.28318
1782.87	12.0075
1783.13	7.2375
1783.38	6.29114
1783.64	9.16468
1783.89	12.0438
1784.14	6.33825
1784.4	13.0438
1784.65	10.2103
1784.91	7.38813
1785.16	8.38997
1785.42	8.43652
1785.67	8.46995
1785.93	4.65778
1786.18	9.46625
1786.44	4.70696
1786.69	11.4366
1786.95	10.4936
1787.2	4.75752
1787.46	7.64841
1787.71	7.65614
1787.96	8.619
1788.22	4.77914
1788.47	6.66599
1788.73	6.66801
1788.98	8.58458
1789.24	10.5079
1789.49	8.60234
1789.75	5.73955
1790	10.544
1790.25	-0.939331
1790.51	16.3139
1790.76	11.5316
1791.02	10.5895
1791.27	6.76652
1791.53	11.5638
1791.78	6.77109
1792.03	10.6288
1792.29	10.6861
1792.54	10.7263
1792.8	12.6702
1793.05	10.7682
1793.31	13.668
1793.56	6.00502
1793.81	8.90623
1794.07	8.92639
1794.32	9.90666
1794.58	14.7302
1794.83	10.9018
1795.08	8.9939
1795.34	9.96896
1795.59	11.9036
1795.85	11.9119
1796.1	5.18535
1796.36	13.8395
1796.61	11.9144
1796.86	10.9484
1797.12	11.9056
1797.37	11.9042
1797.63	7.10118
1797.88	10.9461
1798.13	19.5949
1798.39	7.11412
1798.64	13.8456
1798.9	10.9745
1799.15	12.9081
1799.4	11.9619
1799.66	6.21345
1799.91	8.15347
1800.17	11.0574
1800.42	0.503525
1800.67	8.21365
1800.93	15.9209
1801.18	8.23878
1801.44	5.36939
1801.69	8.27474
1801.94	10.2188
1802.2	15.0536
1802.45	12.1906
1802.7	11.2518
1802.96	8.38423
1803.21	11.2934
1803.47	7.4579
1803.72	14.22
1803.97	6.52406
1804.23	6.53433
1804.48	17.145
1804.74	11.3709
1804.99	9.45244
1805.24	9.46201
1805.5	11.3997
1805.75	7.55458
1806	12.385
1806.26	6.61213
1806.51	10.4788
1806.77	6.63383
1807.02	11.4654
1807.27	5.6912
1807.53	9.55695
1807.78	10.5264
1808.03	11.4959
1808.29	18.2522
1808.54	6.69067
1808.79	10.5547
1809.05	17.3126
1809.3	12.5045
1809.55	11.5561
1809.81	10.6096
1810.06	11.5941
1810.31	14.5056
1810.57	13.554
1810.82	6.8181
1811.07	12.6311
1811.33	12.6571
1811.58	7.85649
1811.83	12.7143
1812.09	12.7357
1812.34	11.788
1812.59	17.6007
1812.85	12.7808
1813.1	8.92668
1813.35	14.7381
1813.61	11.8522
1813.86	8.96442
1814.11	15.7369
1814.37	8.96819
1814.62	10.8803
1814.87	9.90482
1815.13	7.98581
1815.38	12.836
1815.63	8.99803
1815.89	11.9137
1816.14	8.05477
1816.39	9.03487
1816.65	10.018
1816.9	7.13396
1817.15	6.18171
1817.41	15.8669
1817.66	7.18175
1817.91	14.9343
1818.17	13.0154
1818.42	16.9032
1818.67	14.0207
1818.93	18.8777
1819.18	6.31334
1819.43	11.1673
1819.69	16.0204
1819.94	13.1293
1820.19	13.1416
1820.44	8.30834
1820.7	5.40835
1820.95	14.1225
1821.2	3.48442
1821.46	14.1458
1821.71	13.1928
1821.96	6.43066
1822.22	14.1917
1822.47	7.42956
1822.72	13.2533
1822.97	21.9795
1823.23	16.1777
1823.48	11.3463
1823.73	12.3256
1823.98	11.3679
1824.24	13.3187
1824.49	9.45949
1824.74	14.3197
1825	11.4286
1825.25	10.4684
1825.5	8.53749
1825.76	15.3215
1826.01	10.4781
1826.26	11.4506
1826.51	11.4577
1826.77	13.4013
1827.02	10.5015
1827.27	9.53448
1827.52	10.5055
1827.78	11.4762
1828.03	6.64644
1828.28	13.4406
1828.53	14.4269
1828.79	8.63425
1829.04	10.5883
1829.29	4.79304
1829.55	14.4997
1829.8	10.6465
1830.05	14.5408
1830.3	17.4581
1830.56	12.623
1830.81	13.6084
1831.06	6.83387
1831.31	15.5734
1831.57	1.99207
1831.82	16.5023
1832.07	10.6696
1832.32	12.586
1832.58	0.000656128
1832.83	8.70074
1833.08	9.67965
1833.33	12.5725
1833.59	9.97609
1833.84	11.8582
1834.09	15.6646
1834.34	12.7444
1834.6	8.82955
1834.85	17.5136
1835.1	15.5143
1835.35	14.5225
1835.6	12.596
1835.86	6.92436
1836.11	13.7413
1836.36	15.7116
1836.61	14.7589
1836.87	11.8704
1837.12	12.8648
1837.37	19.5814
1837.62	5.03057
1837.88	13.7112
1838.13	13.6885
1838.38	14.6336
1838.63	15.5798
1838.88	8.80499
1839.14	13.6178
1839.39	6.85236
1839.64	16.4893
1839.89	15.5471
1840.14	10.7268
1840.4	5.92016
1840.65	16.5388
1840.9	20.4058
1841.15	11.7273
1841.41	12.7021
1841.66	16.5773
1841.91	13.692
1842.16	10.7985
1842.41	5.98739
1842.66	9.85908
1842.92	17.6145
1843.17	9.92973
1843.42	12.8641
1843.67	10.0047
1843.93	14.7986
1844.18	13.7458
1844.43	14.6251
1844.68	9.80383
1844.93	10.7825
1845.19	17.5654
1845.44	19.5202
1845.69	11.7921
1845.94	11.7884
1846.19	9.87106
1846.44	19.4933
1846.7	11.7832
1846.95	11.773
1847.2	19.4559
1847.45	14.6332
1847.7	21.3509
1847.96	12.6943
1848.21	15.5718
1848.46	13.648
1848.71	11.7273
1848.96	12.6909
1849.21	15.5783
1849.47	17.5074
1849.72	19.437
1849.97	16.5649
1850.22	14.651
1850.47	8.89467
1850.72	14.6563
1850.98	14.6511
1851.23	12.722
1851.48	16.5467
1851.73	16.5384
1851.98	8.86769
1852.23	15.5767
1852.49	5.02206
1852.74	15.5528
1852.99	5.0145
1853.24	16.5126
1853.49	15.561
1853.74	15.5704
1853.99	16.5359
1854.25	12.7103
1854.5	15.5856
1854.75	19.4169
1855	10.7999
1855.25	9.8411
1855.5	16.5367
1855.75	15.573
1856.01	7.91337
1856.26	17.4715
1856.51	19.375
1856.76	21.2859
1857.01	9.82287
1857.26	12.6989
1857.51	16.5383
1857.77	9.86673
1858.02	11.7975
1858.27	5.11921
1858.52	9.92302
1858.77	6.112
1859.02	16.6489
1859.27	8.04023
1859.52	10.9088
1859.78	14.7298
1860.03	16.6353
1860.28	16.628
1860.53	12.7976
1860.78	16.6153
1861.03	8.96728
1861.28	17.5626
1861.53	18.5145
1861.78	13.7354
1862.04	11.8204
1862.29	8.94844
1862.54	17.5265
1862.79	7.97261
1863.04	14.6324
1863.29	15.5663
1863.54	11.7355
1863.79	12.6704
1864.04	11.7002
1864.3	14.538
1864.55	15.4734
1864.8	16.4148
1865.05	12.6105
1865.3	18.316
1865.55	7.86341
1865.8	10.7259
1866.05	14.5403
1866.3	14.5461
1866.56	17.4023
1866.81	15.5048
1867.06	10.7565
1867.31	15.5138
1867.56	20.2707
1867.81	17.4248
1868.06	17.4314
1868.31	16.4879
1868.56	7.93691
1868.81	17.4396
1869.06	18.3847
1869.31	8.8867
1869.57	17.4367
1869.82	13.6318
1870.07	5.08208
1870.32	9.83017
1870.57	14.5827
1870.82	11.7363
1871.07	18.3777
1871.32	17.4228
1871.57	17.4148
1871.82	17.4053
1872.07	12.6545
1872.32	14.5405
1872.57	17.372
1872.82	8.82755
1873.08	6.90859
1873.33	10.6835
1873.58	6.88866
1873.83	14.4512
1874.08	9.71783
1874.33	20.0882
1874.58	13.4351
1874.83	15.2736
1875.08	12.5484
1875.33	15.5899
1875.58	9.79546
1875.83	13.5773
1876.08	11.6978
1876.33	16.5005
1876.58	14.6284
1876.83	11.7703
1877.08	13.6561
1877.33	6.08682
1877.58	13.6678
1877.83	15.5779
1878.09	13.6771
1878.34	8.94326
1878.59	16.4926
1878.84	16.4663
1879.09	16.4394
1879.34	12.6312
1879.59	18.2646
1879.84	15.4004
1880.09	9.72284
1880.34	16.4141
1880.59	9.08923
1880.84	15.4585
1881.09	13.4656
1881.34	15.3761
1881.59	8.80009
1881.84	17.2738
1882.09	11.651
1882.34	17.3428
1882.59	22.0761
1882.84	12.6622
1883.09	12.6943
1883.34	17.4356
1883.59	8.00254
1883.84	16.4952
1884.09	17.4221
1884.34	8.91986
1884.59	13.6296
1884.84	15.5066
1885.09	8.89465
1885.34	14.5381
1885.59	15.4623
1885.84	13.5627
1886.09	16.3733
1886.34	11.6544
1886.59	12.5955
1886.84	10.7154
1887.09	16.3691
1887.34	20.1506
1887.59	12.6404
1887.84	7.00565
1888.09	6.0716
1888.34	16.4332
1888.59	17.3775
1888.84	11.7302
1889.09	20.2069
1889.34	17.3857
1889.59	13.6195
1889.84	15.4979
1890.09	20.1941
1890.34	12.6414
1890.59	17.3141
1890.84	20.111
1891.09	13.547
1891.34	12.6038
1891.59	9.77281
1891.84	21.0431
1892.09	18.228
1892.34	12.5995
1892.59	8.85187
1892.84	14.5017
1893.09	15.4545
1893.34	18.2885
1893.59	10.7851
1893.84	17.3839
1894.09	7.99488
1894.34	16.4719
1894.59	18.3634
1894.84	15.5484
1895.09	15.5517
1895.34	14.6109
1895.59	19.3091
1895.84	21.1813
1896.08	12.7082
1896.33	15.5173
1896.58	20.2112
1896.83	11.7526
1897.08	14.5662
1897.33	7.99
1897.58	16.448
1897.83	18.3357
1898.08	13.6507
1898.33	13.668
1898.58	19.3242
1898.83	5.24123
1899.08	10.898
1899.33	14.6816
1899.58	9.0502
1899.83	15.636
1900.08	11.8727
1900.33	18.4526
1900.57	18.4496
1900.83	11.8666
1901.07	16.5683
1901.32	15.6297
1901.57	12.8115
1901.82	14.6932
1902.07	17.5136
1902.32	16.5762
1902.57	16.579
1902.82	18.457
1903.07	20.3102
1903.32	18.4211
1903.57	18.4165
1903.82	23.1081
1904.06	8.08046
1904.31	9.95863
1904.56	12.7837
1904.81	15.6067
1905.06	12.8067
1905.31	13.7582
1905.56	12.8254
1905.81	12.8333
1906.06	14.7243
1906.31	15.6788
1906.56	17.5767
1906.81	13.8371
1907.05	11.9789
1907.31	18.59
1907.55	12.0281
1907.8	16.7557
1908.05	14.8883
1908.3	11.1322
1908.55	12.082
1908.8	13.0278
1909.05	14.9135
1909.3	16.7935
1909.55	17.736
1909.79	14.9125
1910.04	11.1483
1910.29	17.7441
1910.54	19.635
1910.79	14.9422
1911.04	15.909
1911.29	8.38922
1911.54	15.0028
1911.79	16.9062
1912.03	21.6393
1912.28	10.3329
1912.53	15.0601
1912.78	13.1767
1913.03	21.6679
1913.28	8.45408
1913.53	19.7769
1913.78	14.1039
1914.03	12.2074
1914.27	13.1428
1914.52	8.42252
1914.77	16.9047
1915.02	17.8468
1915.27	14.083
1915.52	14.0968
1915.77	16.944
1916.02	14.1345
1916.26	11.3247
1916.51	18.8998
1916.76	19.8772
1917.01	14.229
1917.26	12.3488
1917.51	22.7432
1917.76	13.2867
1918	19.9166
1918.25	11.4302
1918.5	15.2281
1918.75	12.3997
1919	18.0848
1919.25	13.3602
1919.49	19.034
1919.74	17.1363
1919.99	12.3989
1920.24	17.1195
1920.49	16.1701
1920.74	15.2207
1920.99	17.1051
1921.24	16.1504
1921.48	10.4712
1921.73	17.0807
1921.98	18.0263
1922.23	16.143
1922.48	13.3201
1922.73	18.0628
1922.97	17.1393
1923.22	11.4827
1923.47	17.1757
1923.72	16.2493
1923.97	19.1083
1924.22	16.2802
1924.46	13.4495
1924.71	23.8758
1924.96	15.3608
1925.21	13.4739
1925.46	13.4803
1925.7	14.4335
1925.95	11.6
1926.2	11.6087
1926.45	14.464
1926.7	17.3254
1926.95	15.4487
1927.19	16.4146
1927.44	15.4846
1927.69	18.3479
1927.94	11.7155
1928.19	7.91964
1928.43	8.86827
1928.68	16.4565
1928.93	17.3967
1929.18	12.6421
1929.43	15.4801
1929.67	14.5216
1929.92	18.309
1930.17	15.4581
1930.42	23.9908
1930.67	18.3107
1930.92	17.3874
1931.16	7.92797
1931.41	16.5246
1931.66	11.826
1931.91	16.6342
1932.16	8.10369
1932.4	11.9474
1932.65	11.9717
1932.9	12.9184
1933.15	9.07365
1933.39	20.508
1933.64	19.5474
1933.89	15.7239
1934.14	15.7081
1934.39	21.4063
1934.63	23.2951
1934.88	15.6638
1935.13	11.8431
1935.38	23.2552
1935.62	11.8435
1935.87	18.5235
1936.12	21.3866
1936.37	20.4444
1936.62	20.4535
1936.86	19.5094
1937.11	9.98742
1937.36	20.4756
1937.61	18.5854
1937.85	18.6134
1938.1	15.787
1938.35	12.9341
1938.6	12.9273
1938.85	15.7724
1939.09	13.8322
1939.34	10.9609
1939.59	20.544
1939.84	16.7698
1940.08	15.8193
1940.33	11.9866
1940.58	14.82
1940.83	18.6081
1941.07	25.2938
1941.32	13.873
1941.57	11.0187
1941.82	14.8492
1942.06	18.6827
1942.31	15.831
1942.56	11.0665
1942.81	18.7247
1943.05	17.78
1943.3	12.0515
1943.55	12.0569
1943.8	10.1466
1944.04	18.7528
1944.29	18.7463
1944.54	20.6495
1944.79	12.9926
1945.03	17.7701
1945.28	12.0294
1945.53	8.19894
1945.77	15.8446
1946.02	15.8495
1946.27	17.7722
1946.52	13.9562
1946.76	15.8817
1947.01	13.0239
1947.26	12.085
1947.51	18.8146
1947.75	12.1302
1948	18.8605
1948.25	10.2528
1948.49	10.2729
1948.74	14.1287
1948.99	17.0208
1949.24	13.1878
1949.48	23.7581
1949.73	20.877
1949.98	19.9187
1950.22	24.7342
1950.47	16.0811
1950.72	13.1743
1950.97	17.9369
1951.21	17.8929
1951.46	22.6466
1951.71	12.0668
1951.95	17.794
1952.2	16.8268
1952.45	12.0363
1952.69	13.0031
1952.94	15.8974
1953.19	18.8093
1953.44	19.7961
1953.68	14.0535
1953.93	10.2237
1954.18	14.0733
1954.42	15.0435
1954.67	15.0519
1954.92	17.9407
1955.16	16.9833
1955.41	15.0622
1955.66	17.9452
1955.91	16.9777
1956.15	16.0023
1956.4	11.1842
1956.65	21.745
1956.89	18.8505
1957.14	11.1505
1957.39	15.9386
1957.63	14.9629
1957.88	12.0662
1958.13	19.7297
1958.37	17.7939
1958.62	17.7807
1958.87	15.8552
1959.11	13.9339
1959.36	17.7707
1959.61	14.8891
1959.85	13.9269
1960.1	15.8441
1960.35	12.9615
1960.59	14.8784
1960.84	20.636
1961.09	20.6375
1961.33	18.72
1961.58	14.8756
1961.83	15.8265
1962.07	12.9396
1962.32	24.4552
1962.57	13.8874
1962.81	13.8863
1963.06	21.5741
1963.31	12.938
1963.55	18.7115
1963.8	17.757
1964.05	16.7999
1964.29	13.9118
1964.54	13.9054
1964.79	17.7487
1965.03	13.9016
1965.28	16.7819
1965.52	12.9316
1965.77	14.8439
1966.02	17.7122
1966.26	13.8473
1966.51	18.6263
1966.75	16.6773
1967	8.01113
1967.25	23.3506
1967.49	10.8554
1967.74	15.6382
1967.99	16.5801
1968.23	11.7688
1968.48	17.5116
1968.73	13.6628
1968.97	20.3707
1969.22	16.5349
1969.47	17.4922
1969.71	17.4866
1969.96	23.2318
1970.2	16.5009
1970.45	18.3987
1970.7	14.5427
1970.94	19.3197
1971.19	18.3474
1971.43	16.4199
1971.68	13.5369
1971.93	14.4903
1972.17	14.4875
1972.42	16.4053
1972.66	19.2847
1972.91	16.4107
1973.16	19.2885
1973.4	13.5318
1973.65	14.4868
1973.9	13.5215
1974.14	11.5948
1974.39	10.625
1974.63	17.3258
1974.88	11.5552
1975.13	13.4554
1975.37	14.3975
1975.62	16.2998
1975.86	14.3702
1976.11	18.1952
1976.35	14.3554
1976.6	18.1833
1976.85	20.0943
1977.09	13.3791
1977.34	16.2439
1977.59	11.4339
1977.83	16.2064
1978.08	15.2329
1978.32	17.1343
1978.57	16.1596
1978.81	18.0625
1979.06	11.3472
1979.31	13.2528
1979.55	9.40754
1979.8	16.0913
1980.04	12.2412
1980.29	11.2588
1980.53	18.8894
1980.78	15.0456
1981.03	15.9898
1981.27	16.9324
1981.52	15.961
1981.76	14.0342
1982.01	16.8863
1982.25	12.0826
1982.5	14.9302
1982.75	13.9646
1982.99	13.9595
1983.24	21.6058
1983.48	15.8729
1983.73	17.7848
1983.97	12.0392
1984.22	17.7692
1984.47	13.9324
1984.71	12.9501
1984.95	19.611
1985.2	16.7113
1985.45	12.8556
1985.69	21.3971
1985.94	17.5223
1986.18	13.6604
1986.43	20.2833
1986.67	21.1967
1986.92	10.7008
1987.16	13.5411
1987.41	16.3908
1987.66	9.73705
1987.9	7.84599
1988.15	14.52
1988.39	17.3899
1988.64	13.5889
1988.88	17.4068
1989.13	15.5013
1989.37	16.4503
1989.62	14.5307
1989.86	12.606
1990.11	8.77296
1990.35	10.6571
1990.6	17.297
1990.84	13.4523
1991.09	19.1299
1991.34	10.5304
1991.58	14.3009
1991.83	11.4067
1992.07	15.1731
1992.32	16.0892
1992.56	9.4089
1992.81	16.9789
1993.05	15.059
1993.3	16.9472
1993.54	15.9917
1993.79	14.0898
1994.03	16.9374
1994.28	10.2902
1994.52	16.9355
1994.77	3.62934
1995.01	18.816
1995.26	10.2568
1995.5	14.99
1995.75	18.7724
1995.99	13.055
1996.24	12.0759
1996.48	16.7724
1996.73	17.6407
1996.97	14.7308
1997.22	14.7078
1997.46	17.5489
1997.71	22.306
1997.95	16.6721
1998.2	16.698
1998.44	6.24988
1998.69	11.0084
1998.93	25.2023
1999.18	19.4129
1999.42	14.664
1999.67	10.8573
1999.91	10.8078
2000.16	11.7275
2000.4	10.7616
2000.65	10.7425
2000.89	13.559
2001.14	15.4278
2001.38	13.5168
2001.63	16.3366
2001.87	15.3792
2002.12	15.3674
2002.36	8.73729
2002.6	12.5043
2002.85	20.9967
2003.09	19.0931
2003.34	11.5214
2003.58	13.4029
2003.83	17.1803
2004.07	9.61244
2004.32	23.7754
2004.56	20.9211
2004.81	16.1765
2005.05	17.0971
2005.3	15.1728
2005.54	17.0255
2005.78	14.166
2006.03	9.42388
2006.27	21.6587
2006.52	11.2504
2006.76	11.2261
2007.01	15.9109
2007.25	12.1198
2007.5	22.4483
2007.74	12.0735
2007.99	12.0613
2008.23	18.6425
2008.48	9.2119
2008.72	11.0852
2008.96	18.5548
2009.21	9.14614
2009.45	13.882
2009.7	10.9994
2009.94	15.4756
2010.19	8.16229
2010.43	11.8131
2010.67	10.5821
2010.92	16.6428
2011.16	12.2234
2011.41	13.5106
2011.65	10.4743
2011.9	13.1088
2012.14	16.833
2012.39	13.5409
2012.63	16.6124
2012.87	15.7116
2013.12	9.8563
2013.36	10.8325
2013.61	7.12834
2013.85	16.0205
2014.09	16.5706
2014.34	9.15264
2014.58	15.9912
2014.83	12.5419
2015.07	8.13226
2015.31	14.5642
2015.56	9.13193
2015.8	13.5679
2016.05	14.3476
2016.29	11.467
2016.54	11.9536
2016.78	11.8762
2017.02	11.7254
2017.27	17.9077
2017.51	13.0286
2017.76	6.80363
2018	8.71905
2018.24	10.7107
2018.49	9.53681
2018.73	8.51094
2018.98	14.2303
2019.22	9.52875
2019.46	13.753
2019.71	13.8035
2019.95	7.55981
2020.2	12.3085
2020.44	15.1877
2020.68	11.6724
2020.93	9.73124
2021.17	10.632
2021.42	14.9683
2021.66	11.5203
2021.9	9.03021
2022.15	7.45632
2022.39	12.216
2022.63	11.9946
2022.88	8.64515
2023.12	10.8907
2023.37	11.8955
2023.61	10.5451
2023.85	10.3254
2024.1	10.7035
2024.34	8.69443
2024.58	8.76408
2024.83	9.00899
2025.07	10.4241
2025.32	8.40057
2025.56	9.43719
2025.8	10.4235
2026.05	8.28475
2026.29	8.36288
2026.53	10.3733
2026.78	11.3208
2027.02	7.2555
2027.26	6.88964
2027.51	10.2118
2027.75	10.0484
2027.99	8.22036
2028.24	8.18757
2028.48	5.13915
2028.73	8.81478
2028.97	5.71762
2029.21	12.0124
2029.46	7.10012
2029.7	9.23701
2029.94	9.01459
2030.19	12.9949
2030.43	7.81529
2030.67	7.24583
2030.92	9.16443
2031.16	9.13362
2031.4	6.94988
2031.65	7.44749
2031.89	8.85669
2032.13	8.17044
2032.38	5.63722
2032.62	6.81379
2032.86	4.35921
2033.11	9.4929
2033.35	10.5548
2033.59	7.67672
2033.84	8.69557
2034.08	5.94977
2034.32	9.70164
2034.57	4.00768
2034.81	7.95751
2035.05	7.36805
2035.11	6.70482
2035.36	7.62125
2035.61	5.73286
2035.85	4.77927
2036.1	8.49715
2036.34	2.87233
2036.59	13.1259
2036.84	3.76552
2037.08	0.939312
2037.33	-0.951916
2037.58	5.55561
2037.82	3.66599
2038.07	7.37419
2038.32	8.28595
2038.56	4.54085
2038.81	9.18917
2039.05	8.23983
2039.3	6.35803
2039.54	10.9969
2039.79	2.59375
2040.04	3.51585
2040.28	11.8957
2040.53	3.51356
2040.78	1.66098
2041.02	5.4052
2041.27	8.20704
2041.51	1.66552
2041.76	7.24118
2042.01	5.34212
2042.25	9.94362
2042.5	6.25314
2042.74	4.41415
2042.99	7.27158
2043.24	8.29758
2043.48	9.20037
2043.73	5.38961
2043.97	5.33544
2044.22	8.12086
2044.47	9.03163
2044.71	6.17989
2044.96	10.8128
2045.2	6.14321
2045.45	4.27255
2045.69	8.92877
2045.94	7.99336
2046.19	6.13423
2046.43	0.540253
2046.68	4.27849
2046.93	4.28995
2047.17	4.29756
2047.42	13.6449
2047.66	8.04294
2047.91	4.30116
2048.15	6.1581
2048.4	5.2044
2048.64	11.7157
2048.89	14.5046
2049.14	7.02728
2049.38	2.35726
2049.63	14.4932
2049.87	8.88765
2050.12	5.15202
2050.37	6.08909
2050.61	8.8989
2050.86	0.50375
2051.1	4.2481
2051.35	6.1188
2051.59	13.5968
2051.84	8.9101
2052.08	3.28619
2052.33	8.88724
2052.58	5.12302
2052.82	2.30231
2053.07	6.03166
2053.31	-0.526249
2053.56	8.80742
2053.8	15.3377
2054.05	7.85106
2054.29	7.84573
2054.54	2.23327
2054.78	5.03662
2055.03	4.10284
2055.28	6.90831
2055.52	6.91565
2055.77	8.79296
2056.01	3.18309
2056.26	3.18497
2056.5	2.24479
2056.75	6.92078
2056.99	11.5971
2057.24	7.83674
2057.49	7.82047
2057.73	13.4191
2057.98	6.86749
2058.22	9.6773
2058.47	1.25099
2058.71	7.79998
2058.96	0.303665
2059.2	10.5974
2059.45	7.78536
2059.69	4.03848
2059.94	12.4687
2060.18	7.78937
2060.43	8.72983
2060.67	6.85707
2060.92	2.17089
2061.16	9.667
2061.41	4.04089
2061.65	6.85268
2061.9	3.10427
2062.14	5.92303
2062.39	8.74891
2062.63	4.0676
2062.88	6.89104
2063.12	1.26365
2063.37	3.14285
2063.61	8.77354
2063.86	4.07676
2064.11	4.07753
2064.35	8.77253
2064.6	1.25834
2064.84	10.6571
2065.09	10.66
2065.33	7.84104
2065.58	7.83882
2065.82	4.08052
2066.07	8.77713
2066.31	6.88249
2066.56	9.67898
2066.8	7.76742
2067.05	10.5659
2067.29	2.11191
2067.54	7.76508
2067.78	7.79018
2068.02	7.81609
2068.27	6.86945
2068.51	10.6071
2068.76	16.3126
2069	7.86819
2069.25	1.2674
2069.49	8.79048
2069.74	7.84109
2069.98	5.00601
2070.23	3.11675
2070.47	11.5819
2070.72	7.81266
2070.96	4.98487
2071.21	3.09965
2071.45	6.86733
2071.7	4.98942
2071.94	4.99963
2072.19	5.9569
2072.43	7.8638
2072.68	12.6084
2072.92	6.02174
2073.16	7.91668
2073.41	9.80202
2073.65	9.79996
2073.9	3.18122
2074.14	7.88388
2074.39	7.86543
2074.63	6.88894
2074.88	6.876
2075.12	4.04885
2075.36	4.05732
2075.61	9.71849
2075.85	8.77609
2076.1	2.1751
2076.34	4.07067
2076.59	5.98343
2076.83	9.76955
2077.08	4.10833
2077.32	12.6172
2077.57	9.78741
2077.81	5.05978
2078.06	9.77418
2078.3	5.04138
2078.54	4.09079
2078.79	9.75541
2079.03	9.74872
2079.28	8.80515
2079.52	7.8614
2079.77	7.86144
2080.01	10.6943
2080.25	11.6348
2080.5	5.01384
2080.74	2.17314
2080.99	5.00452
2081.23	5.94709
2081.48	7.83295
2081.72	9.72058
2081.96	9.71947
2082.21	9.71704
2082.45	9.71368
2082.7	6.87606
2082.94	13.4923
2083.19	6.88929
2083.43	5.01469
2083.67	3.13441
2083.92	7.86731
2084.16	8.81812
2084.41	12.6109
2084.65	0.312675
2084.89	4.09604
2085.14	9.77289
2085.38	7.87929
2085.63	9.77266
2085.87	2.20161
2086.12	5.98838
2086.36	9.78226
2086.6	11.6847
2086.85	3.17561
2087.09	10.7575
2087.33	7.91695
2087.58	4.13
2087.82	6.0285
2088.07	0.347816
2088.31	8.88131
2088.55	6.99076
2088.8	2.26451
2089.04	5.12439
2089.29	2.29591
2089.53	6.10846
2089.78	7.07727
2090.02	8.04211
2090.26	5.20702
2090.51	9.97138
2090.75	9.03565
2090.99	12.8496
2091.24	14.7626
2091.48	10.0121
2091.73	5.25739
2091.97	13.8101
2092.21	6.19921
2092.46	5.23781
2092.7	5.22619
2092.94	6.16722
2093.19	5.20956
2093.43	2.35453
2093.68	2.35193
2093.92	5.19902
2094.16	7.09024
2094.41	8.02736
2094.65	7.06516
2094.89	5.16113
2095.14	9.90428
2095.38	9.90108
2095.63	6.09525
2095.87	4.19711
2096.11	6.09391
2096.36	10.8357
2096.6	6.08797
2096.84	3.24014
2097.09	-0.55508
2097.33	9.88642
2097.57	3.24669
2097.82	5.15132
2098.06	5.16653
2098.31	7.07795
2098.55	5.18678
2098.79	6.14103
2099.03	10.8909
2099.28	10.8902
2099.52	7.09228
2099.77	5.19003
2100.01	5.18142
2100.25	6.11981
2100.5	4.21568
2100.74	4.21519
2100.98	3.26398
2101.23	1.36791
2101.47	11.8168
2101.71	9.92949
2101.96	8.04132
2102.2	9.00151
2102.44	9.9643
2102.69	4.27946
2102.93	13.7958
2103.17	12.8547
2103.42	7.15997
2103.66	7.16505
2103.9	9.0712
2104.15	3.3746
2104.39	10.0339
2104.63	7.17678
2104.88	7.16715
2105.12	16.6561
2105.36	7.1391
2105.6	7.12492
2105.85	0.467907
2106.09	11.8597
2106.34	12.815
2106.58	4.28755
2106.82	9.05122
2107.06	1.45486
2107.31	4.30782
2107.55	5.26056
2107.79	10.0133
2108.04	2.41662
2108.28	8.11899
2108.52	1.46827
2108.77	6.21264
2109.01	6.20998
2109.25	4.31045
2109.5	10.9612
2109.74	0.524258
2109.98	5.28247
2110.22	4.34328
2110.47	13.8638
2110.71	0.575462
2110.95	11.9902
2111.2	12.94
2111.44	8.18635
2111.68	11.0403
2111.93	9.14671
2112.17	8.20174
2112.41	3.45043
2112.65	6.30048
2112.9	6.30007
2113.14	7.2494
2113.38	4.3912
2113.62	10.0831
2113.87	6.28334
2114.11	5.33523
2114.35	8.18618
2114.6	10.093
2114.84	16.7373
2115.08	12.9333
2115.33	9.13017
2115.57	6.27112
2115.81	7.20699
2116.05	7.19841
2116.3	8.1389
2116.54	-1.34969
2116.78	10.0193
2117.02	1.48358
2117.27	6.21885
2117.51	7.16901
2117.75	11.9144
2117.99	5.29734
2118.24	12.8909
2118.48	7.22377
2118.72	5.34789
2118.97	3.46971
2119.21	10.1283
2119.45	7.29942
2119.69	8.26367
2119.94	13.973
2120.18	4.49402
2120.42	9.25159
2120.66	9.25971
2120.91	7.36223
2121.15	7.36145
2121.39	6.40798
2121.63	7.34687
2121.88	9.22547
2122.12	8.25417
2122.36	5.39135
2122.6	7.27235
2122.85	3.47284
2123.09	3.46308
2123.33	3.4553
2123.57	6.28868
2123.81	5.33702
2124.06	8.16855
2124.3	4.38103
2124.54	6.27427
2124.78	11.9513
2125.03	6.28175
2125.27	8.1734
2125.51	7.23209
2125.75	7.23989
2126	8.19278
2126.24	4.41658
2126.48	8.20013
2126.72	13.8744
2126.97	11.989
2127.21	5.37847
2127.45	5.38267
2127.69	8.22057
2127.93	6.33282
2128.18	5.38866
2128.42	6.33251
2128.66	4.44246
2128.9	1.60992
2129.15	8.22221
2129.39	8.22287
2129.63	12.938
2129.87	3.49789
2130.11	11.0502
2130.35	2.56597
2130.6	9.18253
2130.84	6.36241
2131.08	3.54048
2131.32	8.27114
2131.57	10.1687
2131.81	4.51332
2132.05	4.52058
2132.29	10.19
2132.53	12.0829
2132.78	2.64956
2133.02	0.761795
2133.26	8.2979
2133.5	9.23242
2133.74	4.52037
2133.99	-0.180058
2134.23	13.9723
2134.47	8.32668
2134.71	-0.142483
2134.95	8.36745
2135.2	4.59653
2135.44	9.30307
2135.68	7.41553
2135.92	7.4402
2136.16	11.2419
2136.4	7.49269
2136.65	8.40749
2136.89	7.4564
2137.13	12.1675
2137.37	14.0521
2137.61	9.34389
2137.85	9.34746
2138.1	7.46943
2138.34	8.41656
2138.58	1.83643
2138.82	2.77478
2139.06	9.36283
2139.31	7.48658
2139.55	11.263
2139.79	5.63913
2140.03	8.48296
2140.27	1.01105
2140.51	4.75532
2140.76	13.0577
2141	10.2815
2141.24	8.42004
2141.48	11.2758
2141.72	9.42723
2141.96	15.0931
2142.21	7.53786
2142.45	8.50069
2142.69	0.050869
2142.93	11.3412
2143.17	4.76609
2143.41	5.71253
2143.65	8.53916
2143.9	7.60569
2144.14	10.4303
2144.38	13.2518
2144.62	10.436
2144.86	9.50052
2145.1	6.68764
2145.34	9.51011
2145.59	8.57535
2145.83	5.76196
2146.07	6.70319
2146.31	5.76397
2146.55	8.57554
2146.79	8.56372
2147.03	6.68561
2147.28	16.0577
2147.52	9.49532
2147.76	13.2511
2148	14.2006
2148.24	14.2196
2148.48	6.7419
2148.72	1.13518
2148.96	4.90615
2149.21	5.86153
2149.45	18.0726
2149.69	12.4478
2149.93	12.4507
2150.17	10.5764
2150.41	8.70477
2150.65	10.5869
2150.89	8.71859
2151.14	8.72026
2151.38	12.4641
2151.62	7.77124
2151.86	7.75924
2152.1	5.87576
2152.34	3.05833
2152.58	9.59846
2152.82	10.528
2153.06	7.72235
2153.3	13.3306
2153.55	10.5352
2153.79	10.5458
2154.03	10.5576
2154.27	15.2427
2154.51	11.525
2154.75	13.4166
2154.99	9.70425
2155.23	8.79132
2155.47	11.6109
2155.72	12.5583
2155.96	11.6337
2156.2	14.4449
2156.44	12.5807
2156.68	7.91188
2156.92	4.17643
2157.16	17.2499
2157.4	13.5122
2157.64	16.3117
2157.88	9.78026
2158.13	8.85545
2158.36	13.5311
2158.61	7.00711
2158.85	4.21728
2159.09	10.7601
2159.33	11.707
2159.57	9.85531
2159.81	8.93493
2160.05	8.00951
2160.29	16.4101
2160.53	9.88879
2160.77	5.23417
2161.01	9.90381
2161.26	11.7752
2161.49	10.8411
2161.74	4.31752
2161.98	6.18714
2162.22	6.20744
2162.46	11.8165
2162.7	11.8316
2162.94	5.32398
2163.18	9.99802
2163.42	7.20831
2163.66	5.35344
2163.9	11.879
2164.14	7.22406
2164.38	14.6794
2164.62	14.6771
2164.86	14.6701
2165.1	13.7208
2165.35	7.20045
2165.59	7.20893
2165.83	3.50482
2166.07	13.7506
2166.31	8.19602
2166.55	10.0841
2166.79	11.978
2167.03	9.2235
2167.27	10.1913
2167.51	12.0805
2167.75	5.57954
2167.99	14.9007
2168.23	12.1103
2168.47	6.53057
2168.71	11.1702
2168.95	13.9342
2169.19	7.42125
2169.43	13.0017
2169.67	8.35991
2169.91	11.1556
2170.15	13.9563
2170.39	13.0412
2170.63	12.1276
2170.87	9.36049
2171.12	12.1707
2171.35	9.40287
2171.6	9.42029
2171.84	7.57697
2172.08	9.45034
2172.32	5.74604
2172.56	11.3333
2172.8	12.2742
2173.04	14.1453
2173.28	8.58151
2173.52	8.59035
2173.76	8.59752
2174	15.1124
2174.24	12.3413
2174.48	5.85554
2174.72	6.79983
2174.96	10.5309
2175.2	8.68857
2175.44	17.9832
2175.68	14.2663
2175.92	15.2
2176.16	15.215
2176.4	12.4471
2176.64	7.82082
2176.88	5.05082
2177.12	14.3509
2177.36	12.5084
2177.6	6.02189
2177.84	14.3889
2178.08	8.83071
2178.32	10.7005
2178.56	6.9978
2178.8	10.7183
2179.04	18.1527
2179.28	7.9545
2179.52	16.3134
2179.76	7.97293
2180	6.12512
2180.24	7.05681
2180.48	11.6934
2180.72	7.05666
2180.96	7.06092
2181.2	12.6266
2181.44	11.7079
2181.68	12.6479
2181.92	4.32766
2182.16	8.98125
2182.39	9.00055
2182.64	8.09441
2182.87	11.8252
2183.12	12.7792
2183.35	11.877
2183.59	10.9781
2183.83	9.1559
2184.07	8.26062
2184.31	8.2934
2184.55	10.182
2184.79	10.208
2185.03	13.9381
2185.27	9.30123
2185.51	14.8767
2185.75	11.1653
2185.99	16.7354
2186.23	13.022
2186.47	8.38112
2186.71	14.8661
2186.95	13.0134
2187.19	9.31248
2187.43	11.1819
2187.67	10.27
2187.91	16.7837
2188.15	12.1638
2188.39	7.54433
2188.63	9.41747
2188.87	6.65575
2189.1	11.3126
2189.34	14.1153
2189.58	15.9903
2189.82	6.7349
2190.06	5.83318
2190.3	16.0643
2190.54	15.1627
2190.78	15.1933
2191.02	15.2424
2191.26	15.2855
2191.5	10.6699
2191.74	11.6228
2191.98	13.4872
2192.22	9.77839
2192.46	15.3622
2192.7	15.3653
2192.93	11.6483
2193.17	3.28525
2193.41	8.85042
2193.65	13.488
2193.89	11.6323
2194.13	11.6356
2194.37	17.2053
2194.61	9.79024
2194.85	7.95395
2195.09	11.6784
2195.33	13.5575
2195.57	9.87726
2195.81	10.8341
2196.04	14.5817
2196.28	12.7607
2196.52	15.5788
2196.76	5.39208
2197	11.0026
2197.24	12.9098
2197.48	12.026
2197.72	12.0668
2197.96	15.8304
2198.2	8.40685
2198.44	15.8855
2198.67	8.40455
2198.91	5.55378
2199.15	10.0829
2199.39	10.9703
2199.63	12.9173
2199.87	11.1693
2200.11	8.4117
2200.35	11.2003
2200.59	13.9896
2200.83	13.2305
2201.06	13.3142
2201.3	16.075
2201.54	17.03
2201.78	13.3015
2202.02	10.4703
2202.26	15.0856
2202.5	15.0504
2202.74	15.9684
2202.98	11.3258
2203.21	13.2051
2203.45	6.72287
2203.69	11.3708
2203.93	14.1618
2204.17	10.4616
2204.41	10.4837
2204.65	14.2282
2204.89	12.3934
2205.12	12.4189
2205.36	16.167
2205.6	12.4685
2205.84	12.4912
2206.08	16.236
2206.32	13.4601
2206.56	8.81827
2206.8	10.6917
2207.03	14.4274
2207.27	17.2389
2207.51	7.94437
2207.75	13.5546
2207.99	15.4401
2208.23	13.5976
2208.47	14.551
2208.71	16.4384
2208.94	17.3984
2209.18	13.6902
2209.42	14.6443
2209.66	18.3864
2209.9	6.26622
2210.14	18.3955
2210.38	14.6712
2210.61	12.8017
2210.85	15.6047
2211.09	6.29921
2211.33	17.5143
2211.57	16.6283
2211.81	12.9187
2212.04	14.8023
2212.28	13.8841
2212.52	12.9645
2212.76	18.579
2213	8.32007
2213.24	10.1973
2213.47	14.8744
2213.71	13.9488
2213.95	13.9552
2214.19	12.0964
2214.43	12.1068
2214.67	15.8543
2214.9	5.59594
2215.14	13.0729
2215.38	18.6847
2215.62	14.9637
2215.86	11.2452
2216.09	13.1314
2216.33	15.9553
2216.57	11.3041
2216.81	13.1858
2217.05	16.009
2217.29	15.0863
2217.52	15.0905
2217.76	16.0321
2218	14.1688
2218.24	9.49651
2218.48	7.61904
2218.72	20.688
2218.95	9.47768
2219.19	9.47536
2219.43	16.0123
2219.67	25.356
2219.91	7.63404
2220.15	15.1208
2220.38	16.0714
2220.62	9.55293
2220.86	11.4446
2221.1	17.0782
2221.33	14.3009
2221.57	13.39
2221.81	12.4762
2222.05	23.7236
2222.29	17.1958
2222.52	18.1563
2222.76	17.2457
2223	19.1383
2223.24	13.539
2223.48	20.117
2223.71	10.7624
2223.95	10.7827
2224.19	13.6115
2224.43	18.315
2224.67	15.5144
2224.9	16.4604
2225.14	14.587
2225.38	21.1512
2225.62	14.5889
2225.85	9.90255
2226.09	13.655
2226.33	17.4076
2226.57	12.7288
2226.81	15.5609
2227.04	18.397
2227.28	12.7872
2227.52	13.7409
2227.76	18.4509
2227.99	8.14284
2228.23	10.0378
2228.47	20.3876
2228.71	10.0736
2228.95	20.4247
2229.18	16.6833
2229.42	11.0599
2229.66	13.8958
2229.9	15.7918
2230.13	14.8669
2230.37	14.8818
2230.61	16.7788
2230.85	21.4987
2231.08	15.8634
2231.32	19.6348
2231.56	11.1615
2231.8	17.7466
2232.03	13.0347
2232.27	12.0812
2232.51	20.528
2232.75	14.8789
2232.98	15.8245
2233.22	17.7105
2233.46	18.6568
2233.7	10.1972
2233.94	5.49866
2234.17	9.27016
2234.41	11.167
2234.65	21.5388
2234.88	13.0938
2235.12	19.7137
2235.36	15.9683
2235.6	23.5273
2235.83	19.777
2236.07	16.0276
2236.31	10.3854
2236.54	17.9318
2236.78	6.60345
2237.02	12.2549
2237.26	11.2891
2237.49	11.2815
2237.73	14.1052
2237.97	11.3233
2238.21	16.9879
2238.44	20.7656
2238.68	16.0518
2238.92	14.169
2239.16	13.2278
2239.39	16.0653
2239.63	17.0152
2239.87	12.3014
2240.11	21.7375
2240.34	10.4048
2240.58	12.2797
2240.82	7.55231
2241.05	17.9285
2241.29	16.0386
2241.53	16.0416
2241.76	16.9974
2242	14.1854
2242.24	10.4305
2242.48	15.171
2242.71	0.0565834
2242.95	13.2994
2243.19	16.1464
2243.42	17.1015
2243.66	14.2696
2243.9	16.164
2244.14	12.3872
2244.37	17.1229
2244.61	15.2313
2244.85	17.1213
2245.08	13.3291
2245.32	11.4282
2245.56	19.9372
2245.79	21.8212
2246.03	17.0817
2246.27	17.0735
2246.5	15.178
2246.74	14.2402
2246.98	14.2379
2247.21	18.9605
2247.45	14.2124
2247.69	11.3556
2247.92	13.2288
2248.16	12.2632
2248.4	16.9755
2248.64	8.45322
2248.87	10.3375
2249.11	22.6273
2249.35	16.0109
2249.58	13.1782
2249.82	17.9173
2250.06	13.2057
2250.29	14.1776
2250.53	13.2427
2250.77	10.4093
2251	14.2049
2251.24	14.2087
2251.48	18.9524
2251.71	18.9498
2251.95	9.45747
2252.19	16.0829
2252.42	19.8709
2252.66	12.2774
2252.9	15.1164
2253.13	12.2686
2253.37	13.2201
2253.61	14.1709
2253.84	14.1722
2254.08	11.3261
2254.32	15.1234
2254.55	14.1745
2254.79	19.8702
2255.03	15.118
2255.26	17.0102
2255.5	13.2048
2255.73	16.9987
2255.97	17.946
2256.21	16.0452
2256.44	16.9928
2256.68	15.0871
2256.92	13.1816
2257.15	16.9793
2257.39	14.1229
2257.63	11.2655
2257.86	12.212
2258.1	8.41062
2258.33	16.9762
2258.57	18.8752
2258.81	16.0117
2259.05	15.0526
2259.28	14.094
2259.52	17.8956
2259.75	12.1832
2259.99	10.2793
2260.23	13.1379
2260.46	13.1426
2260.7	13.1498
2260.93	19.8333
2261.17	14.1238
2261.41	7.45404
2261.64	17.0022
2261.88	17.9602
2262.12	15.0962
2262.35	20.8247
2262.59	9.35485
2262.82	16.9842
2263.06	10.2812
2263.3	15.0325
2263.53	14.0478
2263.77	13.0628
2264	20.6683
2264.24	16.8225
2264.48	12.9804
2264.71	12.955
2264.95	10.0655
2265.18	12.899
2265.42	17.6435
2265.66	14.7662
2265.89	16.6628
2266.13	11.8892
2266.36	11.8873
2266.6	13.7959
2266.84	16.661
2267.07	11.891
2267.31	14.7597
2267.54	13.8024
2267.78	16.6611
2268.02	17.6114
2268.25	15.6946
2268.49	14.7301
2268.72	6.11396
2268.96	13.757
2269.2	11.8343
2269.43	19.472
2269.67	11.8024
2269.9	12.7433
2270.14	12.7279
2270.38	16.5397
2270.61	9.82544
2270.85	10.7663
2271.08	9.79286
2271.32	15.5187
2271.55	13.5878
2271.79	14.5285
2272.03	14.5122
2272.26	18.3259
2272.5	10.6507
2272.73	11.5872
2272.97	13.4864
2273.2	16.3519
2273.44	11.5575
2273.68	10.5925
2273.91	14.4176
2274.15	14.4097
2274.38	16.3249
2274.62	15.3678
2274.85	19.2096
2275.09	18.2582
2275.32	7.68976
2275.56	12.4757
2275.8	16.2977
2276.03	12.4322
2276.27	12.4067
2276.5	12.3769
2276.74	18.09
2276.97	11.3263
2277.21	11.2863
2277.45	10.2887
2277.68	12.1706
2277.92	14.0544
2278.15	11.148
2278.39	12.0756
2278.62	16.836
2278.86	13.9405
2279.09	9.12857
2279.33	7.19414
2279.56	15.81
2279.8	12.9234
2280.04	10.0353
2280.27	10.986
2280.51	14.8228
2280.74	13.8676
2280.98	15.7916
2281.21	10.9922
2281.45	10.9884
2281.68	14.8188
2281.92	15.7685
2282.15	15.7596
2282.39	16.704
2282.62	11.8712
2282.86	12.8005
2283.09	11.7872
2283.33	9.8296
2283.56	15.5775
2283.8	16.519
2284.03	21.3318
2284.27	13.6356
2284.5	21.3274
2284.74	19.3797
2284.98	9.74063
2285.21	12.6049
2285.45	13.5325
2285.68	10.6064
2285.92	10.5697
2286.15	11.4891
2286.39	10.4757
2286.62	13.3149
2286.86	13.2575
2287.09	12.2557
2287.33	13.1809
2287.56	11.2297
2287.8	8.31714
2288.03	15.0255
2288.27	16.9355
2288.5	12.1209
2288.74	12.1091
2288.97	6.31754
2289.21	10.1496
2289.44	12.0575
2289.68	7.2284
2289.91	4.32376
2290.15	8.15917
2290.38	12.9582
2290.62	11.9733
2290.85	9.05903
2291.09	8.0632
2291.32	8.99127
2291.56	11.8445
2291.79	10.8389
2292.02	14.6533
2292.26	10.7619
2292.49	16.5017
2292.73	7.79621
2292.97	9.68462
2293.2	7.72213
2293.43	9.58644
2293.67	-0.0719299
2293.9	8.56004
2294.14	5.65103
2294.37	9.48031
2294.61	20.0525
2294.84	7.52256
2295.08	10.4042
2295.31	5.57292
2295.55	9.40484
2295.78	14.2038
2296.02	6.47851
2296.25	12.2475
2296.48	4.51305
2296.72	7.38557
2296.95	12.1756
2297.19	11.1831
2297.42	15.0059
2297.66	8.22785
2297.89	15.9278
2298.13	7.22078
2298.36	12.0231
2298.6	10.0672
2298.83	14.865
2299.07	10.972
2299.3	14.797
2299.53	11.8629
2299.77	11.834
2300	10.8377
2300.24	9.83696
2300.47	8.83944
2300.71	9.77327
2300.94	8.78103
2301.18	12.6213
2301.41	9.7056
2301.64	12.5784
2301.88	12.5547
2302.11	10.6049
2302.35	11.5495
2302.58	7.6564
2302.82	8.59562
2303.05	14.369
2303.29	10.4827
2303.52	14.3206
2303.75	12.3587
2303.99	14.2597
2304.22	10.3608
2304.46	11.292
2304.69	8.35241
2304.93	11.2146
2305.16	11.1792
2305.39	10.1735
2305.63	7.24453
2305.86	9.14555
2306.1	8.15723
2306.33	5.23698
2306.56	7.15132
2306.8	3.27287
2307.03	6.15819
2307.27	7.10169
2307.5	7.07325
2307.74	8.00937
2307.97	6.03864
2308.2	14.7017
2308.44	8.84071
2308.67	15.5225
2308.91	13.5359
2309.14	6.72647
2309.37	11.5141
2309.61	15.3321
2309.84	12.3958
2310.08	14.2917
2310.31	10.4074
2310.54	18.1137
2310.78	11.3554
2311.01	11.3453
2311.25	14.2327
2311.48	4.55903
2311.71	10.3497
2311.95	15.1828
2312.18	6.45902
2312.42	8.35656
2312.65	8.30822
2312.88	9.2328
2313.12	8.22082
2313.35	12.9933
2313.59	6.17684
2313.82	3.24145
2314.05	8.03696
2314.29	4.14807
2314.52	7.01985
2314.75	10.8669
2314.99	7.95496
2315.22	8.88071
2315.46	8.8354
2315.69	12.6622
2315.92	3.93488
2316.16	8.7235
2316.39	9.65097
2316.62	5.7555
2316.86	6.6879
2317.09	14.3787
2317.33	7.59856
2317.56	10.4666
2317.79	4.65356
2318.03	10.4263
2318.26	12.3412
2318.49	7.49945
2318.73	11.3492
2318.96	5.54493
2319.19	7.47036
2319.43	9.39519
2319.66	3.57867
2319.9	9.35271
2320.13	11.2615
2320.36	1.57339
2320.6	7.35319
2320.83	2.49787
2321.06	14.0797
2321.3	8.25185
2321.53	4.3568
2321.76	11.0888
2322	0.413616
2322.23	9.06582
2322.46	8.05897
2322.7	5.1262
2322.93	8.95321
2323.17	9.88262
2323.4	8.88102
2323.63	4.98515
2323.86	13.632
2324.1	7.80828
2324.33	9.701
2324.57	12.5608
2324.8	8.67317
2325.03	6.71628
2325.27	8.62395
2325.5	10.5332
2325.73	6.65871
2325.97	18.1953
2326.2	12.3788
2326.43	12.3429
2326.67	10.3877
2326.9	9.40284
2327.13	7.46367
2327.36	14.1877
2327.6	12.237
2327.83	8.36129
2328.06	10.2668
2328.3	12.1791
2328.53	16.0245
2328.76	16.0202
2329	25.6564
2329.23	20.8118
2329.46	33.2992
2329.7	35.1972
2329.93	46.7251
2330.16	72.693
2330.4	96.73
2330.63	123.651
2330.86	107.259
2331.1	74.5045
2331.33	53.3019
2331.56	37.8718
2331.79	29.1866
2332.03	29.1659
2332.26	11.8406
2332.49	15.6731
2332.73	20.4722
2332.96	7.96523
2333.19	0.261448
2333.43	18.5178
2333.66	6.00322
2333.89	7.91505
2334.13	9.82758
2334.36	7.89408
2334.59	6.92276
2334.82	9.79544
2335.06	10.7455
2335.29	11.6976
2335.52	9.76674
2335.75	4.95385
2335.99	8.7956
2336.22	7.83238
2336.45	11.6738
2336.69	3.97943
2336.92	12.6227
2337.15	3.96336
2337.38	8.75626
2337.62	10.6652
2337.85	11.6108
2338.08	6.79097
2338.32	3.89144
2338.55	2.91026
2338.78	11.5268
2339.01	9.59703
2339.25	13.4241
2339.48	6.70454
2339.71	5.74173
2339.94	0.948322
2340.18	4.78574
2340.41	4.79118
2340.64	3.83605
2340.87	10.5493
2341.11	3.84657
2341.34	14.4023
2341.57	8.66132
2341.81	6.75132
2342.04	5.79794
2342.27	8.6769
2342.5	6.76041
2342.74	1.96514
2342.97	-0.90892
2343.2	6.75483
2343.43	7.71927
2343.67	9.64428
2343.9	8.69731
2344.13	15.4091
2344.36	3.92942
2344.6	9.6879
2344.83	6.83323
2345.06	9.72647
2345.29	10.7093
2345.53	7.86085
2345.76	9.796
2345.99	8.85281
2346.22	5.99079
2346.46	5.03091
2346.69	11.7231
2346.92	10.7562
2347.15	11.6962
2347.38	5.94223
2347.62	3.02976
2347.85	9.59941
2348.08	5.88099
2348.31	7.06536
2348.55	8.13986
2348.78	6.15105
2349.01	9.91718
2349.24	16.6244
2349.48	3.30158
2349.71	5.21121
2349.94	10.9094
2350.17	6.13037
2350.4	8.07776
2350.64	8.11122
2350.87	9.08738
2351.1	9.123
2351.33	10.1111
2351.57	13.9733
2351.8	7.36145
2352.03	6.44683
2352.26	9.34246
2352.49	11.2839
2352.73	10.3674
2352.96	6.59326
2353.19	7.5799
2353.42	3.79816
2353.65	8.57406
2353.89	7.64413
2354.12	10.5323
2354.35	3.91306
2354.58	5.85469
2354.81	5.89633
2355.05	5.93933
2355.28	9.78618
2355.51	7.93579
2355.74	7.02585
2355.97	7.07468
2356.21	9.97657
2356.44	8.13102
2356.67	8.18197
2356.9	8.23116
2357.13	6.37945
2357.36	10.2237
2357.6	8.37323
2357.83	10.3201
2358.06	13.2151
2358.29	9.47114
2358.53	9.52223
2358.76	15.2611
2358.99	11.5217
2359.22	15.363
2359.45	10.6796
2359.68	0.321487
2359.92	7.95751
