#Acq. time (s)=	60
#Accumulations=	2
#Range (cm-¹)=	100...4000
#Windows=	1
#Auto scanning=	Off
#Autofocus=	Off
#Macrospot=	Off
#AutoExposure=	Off
#Spike filter=	Multiple accum.
#Delay time (s)=	2
#Binning=	1
#Readout mode=	Signal
#DeNoise=	Off
#ICS correction=	On
#Dark correction=	Off
#Inst. Process=	Off
#Detector Gain=	Best Dynamic
#Detector ADC=	50 kHz HS
#Detector temperature (°C)=	-60.09
#Instrument=	LabRAM HR Evol
#Detector=	SIN-EM FIVIS
#Objective=	x100_VIS
#Grating=	150 (500nm)
#ND Filter=	100%
#Laser=	633nm_Edge
#Hole=	49.98
#Temperature=	0
#Range=	Visible
#StageXY=	75x50mm Scan+
#StageZ=	Z motor
#X (µm)=	0
#Y (µm)=	0
#Z (µm)=	-271.2
#Full time(mm:ss)=	2:04
#Project=	21_11_04
#Sample=	BU19w
#Site=	
#Title=	BU19w-E-FF11b-FI10-V_150 (500nm)_633nm_Edge_100%_x100_VIS_H50um_60sX2
#Remark=	
#Date=	04.11.2021 17:04
#Acquired=	04.11.2021 17:04:15
#Base:Fit=	16.12.2021 17:39:50
#Base:Edit=	16.12.2021 17:48:42
#Base:Edit=	16.12.2021 17:48:43
#Base:Edit=	16.12.2021 17:48:44
#Base:Sub=	16.12.2021 17:48:47
102.881	9.82065
106.139	29.4824
109.397	60.4902
112.653	185.907
115.908	341.864
119.161	259.796
122.414	99.1706
125.664	39.6434
128.914	26.8306
132.162	26.296
135.409	26.5836
138.654	19.068
141.898	12.4003
145.14	-0.0996246
148.383	20.7853
151.622	2.33441
154.861	26.8859
158.098	31.2323
161.335	33.5746
164.569	28.1547
167.801	39.8734
171.034	62.9901
174.264	88.8661
177.494	129.945
180.721	184.306
183.949	241.336
187.173	324.017
190.396	383.469
193.62	447.533
196.84	429.361
200.061	370.232
203.279	294.113
206.496	241.773
209.712	172.168
212.926	125.421
216.139	112.973
219.352	78.5291
222.562	44.0291
225.772	55.2057
228.979	42.4486
232.185	42.0428
235.392	38.7562
238.595	24.9718
241.797	25.406
244.999	33.4437
248.199	49.9703
251.397	83.5111
254.595	81.8538
257.791	41.263
260.985	28.1725
264.178	12.2034
267.371	12.3303
270.561	10.529
273.75	1.1078
276.939	10.6213
280.125	10.6043
283.31	5.79968
286.494	10.4363
289.678	-0.134506
292.859	0.625259
296.039	-0.538979
299.217	4.89481
302.396	10.2914
305.572	10.9215
308.746	9.63755
311.919	-1.11411
315.093	7.00586
318.263	9.43325
321.433	8.08154
324.601	14.2639
327.768	4.38255
330.935	6.75446
334.099	12.8762
337.262	18.0299
340.423	52.3971
343.584	83.9058
346.743	63.5184
349.902	40.2992
353.058	10.466
356.213	10.7653
359.367	12.9273
362.52	16.9499
365.671	11.5487
368.821	9.90035
371.971	12.9392
375.119	15.9551
378.265	18.9607
381.41	26.6416
384.553	35.2718
387.696	34.5641
390.837	54.5206
393.976	38.8489
397.116	17.5333
400.253	18.7848
403.389	17.19
406.524	14.6372
409.657	14.9009
412.789	24.5832
415.92	19.1221
419.05	25.0103
422.178	34.648
425.305	29.0808
428.431	43.2645
431.555	51.7128
434.678	78.9976
437.8	91.1318
440.921	163.442
444.04	284.41
447.158	579.52
450.275	1085.43
453.391	1488
456.505	1211.36
459.618	692.041
462.73	368.808
465.84	231.623
468.949	168.18
472.057	115.076
475.164	94.6406
478.27	86.3432
481.374	65.9172
484.477	55.7304
487.579	46.4748
490.679	47.4717
493.778	40.0895
496.876	42.9492
499.973	36.4941
503.068	41.2418
506.162	31.9994
509.255	25.5545
512.346	29.3831
515.436	25.7502
518.525	17.4638
521.613	21.3433
524.7	19.6257
527.785	16.0475
530.869	23.7356
533.952	16.4339
537.033	24.1626
540.113	12.1112
543.192	13.2123
546.27	17.1247
549.347	12.5023
552.423	13.5526
555.497	5.15469
558.568	4.2663
561.64	8.99583
564.711	10.8741
567.78	17.4352
570.848	7.02099
573.915	7.88971
576.979	11.5539
580.043	6.78315
583.107	2.98851
586.169	8.55403
589.228	12.2632
592.287	9.48066
595.345	5.78489
598.402	5.85499
601.458	-0.543304
604.511	8.00352
607.565	14.704
610.617	12.0935
613.667	1.07427
616.716	0.362915
619.764	8.09438
622.811	-0.106384
625.856	2.97581
628.9	3.19038
631.944	9.96375
634.986	3.4975
638.026	11.1389
641.066	8.37451
644.104	13.1033
647.14	1.84814
650.177	7.53658
653.211	6.60604
656.244	3.78802
659.276	6.59916
662.308	10.3371
665.336	3.80133
668.365	5.68378
671.393	2.9483
674.418	6.82233
677.443	10.6903
680.467	10.8188
683.489	16.5821
686.511	26.1064
689.53	5.79002
692.549	6.96523
695.567	15.6375
698.582	6.51817
701.598	11.4491
704.611	7.93064
707.624	10.0316
710.635	2.70607
713.646	14.1028
716.655	6.70155
719.662	2.12228
722.669	5.07333
725.674	4.23898
728.679	-2.24826
731.681	13.7647
734.683	7.27892
737.683	2.67529
740.683	11.1694
743.681	10.3163
746.678	1.07984
749.673	3.05334
752.669	8.78403
755.661	11.7135
758.654	10.9643
761.645	8.39964
764.635	3.99628
767.623	8.02132
770.611	11.1222
773.597	14.2358
776.582	13.5868
779.565	20.4379
782.549	26.338
785.53	34.1107
788.511	37.1697
791.489	34.5588
794.466	43.2416
797.444	48.1306
800.419	34.1238
803.394	21.0478
806.366	29.6373
809.339	17.4994
812.309	17.586
815.278	12.0169
818.247	10.2038
821.214	12.1402
824.18	11.257
827.145	12.2439
830.108	2.97597
833.072	9.65488
836.033	11.6932
838.992	12.8331
841.952	10.2797
844.909	15.1985
847.865	8.88515
850.822	7.26469
853.776	10.3437
856.728	12.4964
859.681	17.4864
862.631	23.4339
865.58	22.7848
868.528	25.9151
871.476	14.8245
874.422	16.948
877.366	15.2557
880.311	12.6037
883.253	10.8848
886.194	15.7894
889.134	14.9837
892.074	22.7021
895.012	12.3869
897.948	12.476
900.883	4.01125
903.818	5.9547
906.751	11.6687
909.683	16.4149
912.614	12.6729
915.543	15.5289
918.473	13.7192
921.4	12.8738
924.326	17.697
927.251	6.57262
930.174	13.3403
933.098	10.7069
936.019	7.1697
938.94	4.60657
941.859	10.5475
944.777	12.7241
947.693	8.28133
950.61	8.57085
953.525	15.5151
956.438	10.0689
959.35	9.36107
962.261	2.89668
965.171	10.759
968.08	12.8797
970.988	11.1446
973.894	7.46296
976.801	6.6277
979.705	-1.92305
982.608	1.98424
985.51	10.6668
988.411	6.88007
991.311	6.92097
994.209	5.04434
997.107	2.22041
1000	9.90615
1002.9	4.23696
1005.79	4.30717
1008.68	4.39455
1011.58	1.65886
1014.47	12.2859
1017.36	7.64435
1020.25	2.04981
1023.13	4.11568
1026.02	6.20383
1028.9	3.51193
1031.79	3.6925
1034.67	8.6855
1037.55	5.04061
1040.43	8.1284
1043.31	0.605011
1046.19	5.62854
1049.07	5.80397
1051.94	11.776
1054.82	20.6589
1057.69	21.7721
1060.56	12.1776
1063.44	19.0702
1066.31	18.1509
1069.17	26.9434
1072.04	18.2557
1074.91	31.8885
1077.77	20.2661
1080.64	11.5555
1083.5	6.7294
1086.37	13.5353
1089.23	10.6624
1092.09	9.72498
1094.95	14.5966
1097.8	6.87647
1100.66	8.83771
1103.52	8.87311
1106.37	7.01434
1109.22	7.0687
1112.08	4.25418
1114.93	5.37525
1117.78	8.45763
1120.63	17.3616
1123.48	10.6772
1126.32	17.6234
1129.17	6.04826
1132.01	2.26241
1134.86	6.29828
1137.7	9.3569
1140.54	12.4289
1143.38	18.4374
1146.22	27.3719
1149.06	31.4077
1151.89	26.5631
1154.73	19.7107
1157.56	16.7678
1160.4	10.8497
1163.23	13.7465
1166.06	14.6692
1168.89	6.75986
1171.72	11.6067
1174.55	8.60348
1177.38	4.62193
1180.2	8.48026
1183.03	1.59922
1185.85	-2.31762
1188.67	17.2218
1191.49	15.2825
1194.31	11.4239
1197.13	7.56696
1199.95	10.5835
1202.77	7.76009
1205.58	13.775
1208.4	7.03686
1211.21	13.0845
1214.02	17.1957
1216.84	14.4078
1219.65	6.65277
1222.46	21.7419
1225.27	9.98233
1228.07	9.15438
1230.88	9.31085
1233.68	7.44367
1236.49	13.5984
1239.29	12.7033
1242.09	1.69296
1244.89	5.77567
1247.69	12.8737
1250.49	10.8614
1253.29	21.9787
1256.08	14.8792
1258.88	14.8274
1261.67	9.70502
1264.47	8.62196
1267.26	14.5981
1270.05	23.5728
1272.84	74.7638
1275.63	47.4557
1278.42	16.1831
1281.2	2.02722
1283.99	7.94421
1286.77	6.85439
1289.56	6.77542
1292.34	10.7065
1295.12	10.6554
1297.9	9.61707
1300.68	3.58854
1303.46	9.57692
1306.23	4.59148
1309.01	-3.38352
1311.78	5.69727
1314.56	10.797
1317.33	3.84519
1320.1	18.0377
1322.87	4.02411
1325.64	1.09261
1328.41	8.28693
1331.18	7.3858
1333.94	9.51757
1336.71	8.59164
1339.47	4.59039
1342.24	8.73066
1345	1.60903
1347.76	12.9026
1350.52	11.9097
1353.28	7.8284
1356.04	20.1569
1358.79	20.1573
1361.55	16.0315
1364.3	19.0799
1367.06	14.9173
1369.81	15.8862
1372.56	36.3699
1375.31	86.6373
1378.06	108.128
1380.81	40.2758
1383.56	8.38046
1386.3	17.5505
1389.05	7.22147
1391.79	17.4312
1394.53	10.2142
1397.28	14.3333
1400.02	6.12221
1402.76	15.3786
1405.5	11.2764
1408.23	8.20388
1410.97	10.2867
1413.71	6.18799
1416.44	9.32139
1419.17	13.4956
1421.91	3.18526
1424.64	10.4845
1427.37	5.34123
1430.1	5.38715
1432.83	15.8402
1435.55	0.260155
1438.28	5.51273
1441.01	9.72543
1443.73	17.101
1446.45	-1.70407
1449.17	12.9813
1451.89	14.0306
1454.62	8.77067
1457.33	8.74012
1460.05	1.34724
1462.77	10.7449
1465.48	3.33356
1468.2	5.3682
1470.91	12.6516
1473.63	10.4913
1476.34	2.04325
1479.05	-1.14616
1481.76	9.31506
1484.47	8.23499
1487.17	19.774
1489.88	5.05066
1492.59	11.3619
1495.29	13.4846
1497.99	10.3436
1500.7	7.20681
1503.4	7.23685
1506.1	13.6189
1508.8	9.44115
1511.5	7.37602
1514.19	2.12912
1516.89	4.31773
1519.59	16.1083
1522.28	4.46053
1524.97	8.81743
1527.67	2.47355
1530.36	3.62359
1533.05	12.3149
1535.74	4.87105
1538.42	7.08262
1541.11	12.5355
1543.8	10.406
1546.48	10.3969
1549.16	3.86828
1551.85	9.21318
1554.53	13.4415
1557.21	12.2467
1559.89	4.59064
1562.57	8.81902
1565.25	8.7258
1567.93	14.0211
1570.6	7.45719
1573.28	4.13315
1575.95	4.05038
1578.62	8.29798
1581.29	3.94131
1583.97	14.6611
1586.64	14.6234
1589.3	12.4387
1591.97	15.6502
1594.64	9.17446
1597.3	7.01845
1599.97	8.10128
1602.63	7.0393
1605.3	22.2057
1607.96	16.8557
1610.62	10.4251
1613.28	11.5965
1615.94	23.6655
1618.59	15.0795
1621.25	16.2907
1623.91	16.4098
1626.56	7.75699
1629.21	4.56252
1631.87	15.6554
1634.52	6.92751
1637.17	10.2945
1639.82	5.87724
1642.47	18.0356
1645.12	15.8491
1647.76	8.11588
1650.41	12.5444
1653.05	-0.753426
1655.7	11.417
1658.34	13.6056
1660.98	10.2444
1663.62	7.98949
1666.26	11.2723
1668.9	14.5531
1671.54	4.52392
1674.18	11.1301
1676.81	13.2885
1679.45	17.6714
1682.08	10.9474
1684.71	9.753
1687.34	9.66627
1689.98	15.1227
1692.61	10.6275
1695.23	10.5805
1697.86	11.6686
1700.49	2.83092
1703.12	4.09255
1705.74	6.46099
1708.36	11.0544
1710.99	13.167
1713.61	16.4275
1716.23	8.64267
1718.85	14.3268
1721.47	3.18931
1724.09	9.90927
1726.7	12.185
1729.32	4.37519
1731.94	5.53291
1734.55	8.93919
1737.16	5.59641
1739.77	9.00523
1742.39	9.03763
1745	16.9703
1747.61	7.96185
1750.21	7.97121
1752.82	10.2356
1755.43	9.10139
1758.03	-1.10567
1760.64	16.973
1763.24	14.6753
1765.84	7.85172
1768.44	-0.103706
1771.05	8.93676
1773.64	-3.55238
1776.24	13.4428
1778.84	5.506
1781.44	7.78933
1784.03	7.80857
1786.63	4.42195
1789.22	-0.0941696
1791.81	2.2216
1794.41	13.6751
1797	16.0186
1799.59	11.5175
1802.18	10.4426
1804.76	-0.959549
1807.35	4.83293
1809.94	4.87321
1812.52	10.6674
1815.11	8.40594
1817.69	8.45075
1820.27	7.3345
1822.85	7.37775
1825.43	14.3693
1828.01	10.9463
1830.59	8.68092
1833.17	12.2176
1835.74	1.81328
1838.32	5.34164
1840.89	14.6945
1843.47	12.3921
1846.04	6.57829
1848.61	3.08702
1851.18	11.2893
1853.75	12.4546
1856.32	10.1254
1858.89	19.5234
1861.45	19.5646
1864.02	7.86026
1866.58	12.6044
1869.15	7.9313
1871.71	7.946
1874.27	12.6637
1876.83	9.13186
1879.39	10.3084
1881.95	6.7648
1884.51	15.0205
1887.07	12.6461
1889.63	-2.76112
1892.18	4.27937
1894.74	7.77113
1897.29	6.54287
1899.84	5.33041
1902.39	1.78239
1904.94	4.17077
1907.49	6.56548
1910.04	1.86557
1912.59	12.6338
1915.14	9.15747
1917.68	16.3911
1920.23	15.1765
1922.77	11.6003
1925.32	8.04179
1927.86	5.67251
1930.4	12.8813
1932.94	10.5083
1935.48	8.12391
1938.02	18.9409
1940.56	14.1397
1943.09	4.5134
1945.63	11.7155
1948.16	14.1047
1950.7	9.25611
1953.23	15.2372
1955.76	21.2155
1958.29	4.29411
1960.82	25.9319
1963.35	7.79263
1965.88	14.959
1968.41	10.0578
1970.93	9.96783
1973.46	8.66936
1975.98	8.57706
1978.51	3.66946
1981.03	9.59324
1983.55	7.0929
1986.07	14.2188
1988.59	10.5217
1991.11	11.6372
1993.63	7.94668
1996.15	11.4738
1998.66	7.79476
2001.18	2.91846
2003.69	5.2615
2006.2	20.8449
2008.72	19.5986
2011.23	21.9732
2013.74	9.89973
2016.25	11.0663
2018.76	14.6294
2021.27	6.1466
2023.77	9.73084
2026.28	13.3289
2028.78	14.5251
2031.29	19.3609
2033.79	13.331
2036.29	16.9741
2038.79	9.71833
2041.3	14.5818
2043.79	8.52879
2046.29	10.9768
2048.79	13.4329
2051.29	17.1093
2053.78	9.77855
2056.28	19.5454
2058.77	15.9098
2061.27	-1.18803
2063.76	8.61332
2066.25	11.0846
2068.74	12.3262
2071.23	6.19731
2073.72	9.89446
2076.21	9.90095
2078.69	17.2964
2081.18	9.90025
2083.66	7.41913
2086.15	20.983
2088.63	6.12434
2091.11	13.5283
2093.59	8.57722
2096.07	19.7462
2098.55	9.8445
2101.03	16.0755
2103.51	13.6193
2105.99	13.6534
2108.46	16.1881
2110.94	11.2405
2113.41	22.5516
2115.89	5.07819
2118.36	5.12061
2120.83	6.41789
2123.3	11.4919
2125.77	14.0556
2128.24	12.8337
2130.71	7.80885
2133.17	15.4215
2135.64	14.1742
2138.11	12.9179
2140.57	11.6539
2143.03	14.2001
2145.49	10.3773
2147.96	10.3583
2150.42	15.4243
2152.88	25.5926
2155.34	17.8933
2157.79	11.4543
2160.25	19.0546
2162.71	12.591
2165.16	11.2259
2167.62	8.57255
2170.07	5.92532
2172.52	14.8046
2174.97	13.4548
2177.43	13.3765
2179.88	14.5568
2182.32	10.6087
2184.77	15.6057
2187.22	7.81177
2189.67	6.43024
2192.11	15.3032
2194.56	21.6227
2197	8.74276
2199.44	11.2493
2201.89	11.2035
2204.33	0.894539
2206.77	7.28391
2209.21	16.2681
2211.64	13.6881
2214.08	18.8405
2216.52	22.7252
2218.95	12.4074
2221.39	11.1237
2223.82	12.428
2226.26	13.7348
2228.69	13.7456
2231.12	15.0567
2233.55	8.55626
2235.98	16.3833
2238.41	8.56078
2240.84	9.86778
2243.26	4.63608
2245.69	8.56724
2248.12	17.7567
2250.54	4.6283
2252.96	15.145
2255.39	16.4667
2257.81	21.7576
2260.23	8.56993
2262.65	13.8513
2265.07	15.1595
2267.49	12.484
2269.9	7.13985
2272.32	8.41259
2274.74	0.381714
2277.15	17.58
2279.57	16.1747
2281.98	10.7629
2284.39	13.3146
2286.8	18.5166
2289.21	11.7501
2291.62	6.30895
2294.03	19.4949
2296.44	22.0459
2298.84	19.2917
2301.25	20.5381
2303.66	15.1383
2306.06	16.4198
2308.46	11.0419
2310.87	8.34064
2313.27	16.3414
2315.67	17.676
2318.07	15.0026
2320.47	19.0335
2322.87	20.3816
2325.26	16.3609
2327.66	13.6795
2330.06	12.3432
2332.45	25.8859
2334.85	12.3943
2337.24	20.5617
2339.63	12.4571
2342.02	15.2209
2344.41	12.5476
2346.8	18.0773
2349.19	14.0348
2351.58	11.346
2353.97	7.26353
2356.35	12.7681
2358.74	8.64628
2361.12	18.2455
2363.51	7.19334
2365.89	14.0702
2368.27	19.578
2370.65	19.5594
2373.03	13.9972
2375.41	26.4421
2377.79	16.7121
2380.17	9.71618
2382.55	5.47938
2384.92	2.60823
2387.3	3.90207
2389.67	19.1004
2392.05	20.3724
2394.42	20.2488
2396.79	21.4989
2399.16	11.6107
2401.53	11.4697
2403.9	5.74708
2406.27	18.1181
2408.64	12.4285
2411.01	19.3253
2413.37	6.76015
2415.74	17.9948
2418.1	20.9927
2420.47	16.8938
2422.83	9.85226
2425.19	9.76865
2427.55	-1.51859
2429.91	2.69183
2432.27	13.9773
2434.63	12.5861
2436.99	14.0327
2439.34	23.9876
2441.7	15.5106
2444.05	18.3842
2446.41	24.1162
2448.76	12.7522
2451.11	22.7808
2453.47	11.3741
2455.82	7.09618
2458.17	-1.49485
2460.51	8.56453
2462.86	4.26638
2465.21	-0.04879
2467.56	11.4904
2469.9	4.27355
2472.25	14.3906
2474.59	17.2939
2476.94	23.1129
2479.28	21.6842
2481.62	15.881
2483.96	10.0565
2486.3	17.3198
2488.64	5.63264
2490.98	-0.240074
2493.32	9.95438
2495.65	26.0327
2497.99	15.7685
2500.32	17.2083
2502.66	12.7764
2504.99	17.1441
2507.32	15.6325
2509.66	19.9958
2511.99	14.0518
2514.32	18.4056
2516.65	27.1849
2518.98	3.53921
2521.3	18.2516
2523.63	10.8236
2525.96	13.727
2528.28	12.1989
2530.61	4.74484
2532.93	13.5947
2535.25	19.5017
2537.57	3.1513
2539.89	19.4749
2542.22	23.9302
2544.53	19.4597
2546.85	10.5184
2549.17	13.496
2551.49	23.9543
2553.8	16.4794
2556.12	22.4507
2558.43	16.4336
2560.75	1.42404
2563.06	19.4337
2565.37	11.9357
2567.68	16.4682
2569.99	13.4824
2572.3	13.5094
2574.61	8.99603
2576.92	19.5983
2579.23	4.45246
2581.53	13.5294
2583.84	16.5217
2586.14	14.9527
2588.45	10.3301
2590.75	1.1089
2593.05	14.7199
2595.35	4.01883
2597.66	17.6925
2599.96	13.0846
2602.26	-2.21619
2604.55	12.982
2606.85	22.0855
2609.15	11.3363
2611.44	15.838
2613.74	11.1712
2616.03	9.56113
2618.33	9.49091
2620.62	14.0077
2622.91	27.7248
2625.2	18.4783
2627.49	0.0268021
2629.78	6.13054
2632.07	6.12778
2634.36	7.67915
2636.64	3.10091
2638.93	13.9618
2641.22	-1.41558
2643.5	11.0203
2645.78	11.1071
2648.07	17.3891
2650.35	9.69371
2652.63	3.53799
2654.91	12.9045
2657.19	6.65823
2659.47	9.7651
2661.75	19.1205
2664.03	11.2704
2666.3	4.96424
2668.58	9.6441
2670.85	14.3412
2673.13	6.53069
2675.4	3.45681
2677.67	6.74316
2679.95	-2.52929
2682.22	3.95365
2684.49	13.6305
2686.76	15.4022
2689.03	6.01716
2691.29	15.7237
2693.56	7.85843
2695.83	15.8426
2698.09	19.0654
2700.36	19.1077
2702.62	19.1397
2704.89	11.1219
2707.15	9.52467
2709.41	12.7491
2711.67	9.52705
2713.93	11.1501
2716.19	11.1996
2718.45	24.1549
2720.7	7.99988
2722.96	17.7278
2725.22	16.0977
2727.47	1.48013
2729.73	9.55952
2731.98	12.7506
2734.23	19.2063
2736.49	20.7791
2738.74	10.9651
2740.99	20.6931
2743.24	2.7737
2745.49	12.5297
2747.73	6.01512
2749.98	17.4587
2752.23	15.9486
2754.47	9.48781
2756.72	19.3535
2758.96	9.53916
2761.21	9.5296
2763.45	7.90122
2765.69	16.1495
2767.93	24.4233
2770.17	7.98644
2772.41	21.2091
2774.65	14.679
2776.89	18.0703
2779.13	13.2048
2781.36	13.3395
2783.6	13.4723
2785.84	15.274
2788.07	17.0775
2790.3	15.5436
2792.54	15.6697
2794.77	15.7899
2797	10.8588
2799.23	17.6594
2801.46	17.7421
2803.69	16.1302
2805.92	17.8721
2808.14	16.2393
2810.37	1.10062
2812.59	16.3255
2814.82	7.89629
2817.04	28.2032
2819.27	14.6975
2821.49	13.0317
2823.71	16.4559
2825.93	-2.16836
2828.15	11.4342
2830.37	8.06037
2832.59	6.37804
2834.81	13.1963
2837.03	13.2154
2839.24	18.3491
2841.46	21.787
2843.67	3.04782
2845.89	1.37673
2848.1	4.83446
2850.31	10.0204
2852.53	13.5234
2854.74	20.482
2856.95	18.8741
2859.16	5.21899
2861.37	12.2089
2863.57	15.7852
2865.78	19.3884
2867.99	14.3543
2870.19	12.7667
2872.4	7.70049
2874.6	23.4791
2876.81	7.97762
2879.01	25.5641
2881.21	17.0201
2883.41	15.4544
2885.61	15.6438
2887.81	12.3122
2890.01	3.6851
2892.21	19.6918
2894.41	23.3959
2896.6	-2.91628
2898.8	7.87988
2901	15.1572
2903.19	6.43281
2905.38	15.4735
2907.58	-5.7719
2909.77	17.552
2911.96	19.449
2914.15	12.3929
2916.34	26.8153
2918.53	3.62073
2920.72	12.7023
2922.91	11.0192
2925.09	14.7493
2927.28	0.46917
2929.47	20.4618
2931.65	13.3909
2933.83	31.628
2936.02	11.8141
2938.2	13.7152
2940.38	10.1559
2942.56	17.5049
2944.74	24.8565
2946.92	23.0852
2949.1	17.6694
2951.28	10.4291
2953.46	14.1265
2955.63	6.86913
2957.81	32.4971
2959.98	16.0994
2962.16	21.6485
2964.33	25.378
2966.5	14.4589
2968.68	27.3813
2970.85	16.4537
2973.02	9.18578
2975.19	14.7862
2977.36	20.3966
2979.52	27.8613
2981.69	13.2096
2983.86	9.6306
2986.03	24.5521
2988.19	9.88477
2990.36	19.2987
2992.52	26.8922
2994.68	21.4796
2996.85	17.9291
2999.01	12.5117
3001.17	22.0347
3003.33	18.4957
3005.49	39.3269
3007.65	24.537
3009.8	19.0989
3011.96	26.8075
3014.12	11.9209
3016.27	32.9183
3018.43	27.4859
3020.58	10.6483
3022.74	16.5439
3024.89	28.1476
3027.04	20.696
3029.19	18.9381
3031.34	15.2548
3033.49	15.3705
3035.64	25.0439
3037.79	21.2947
3039.94	25.2618
3042.09	27.3012
3044.23	21.6362
3046.38	8.25797
3048.52	16.0391
3050.67	21.904
3052.81	18.132
3054.95	10.5022
3057.09	16.3899
3059.24	31.9545
3061.38	35.928
3063.51	26.3436
3065.65	38.079
3067.79	28.4793
3069.93	38.2922
3072.07	24.787
3074.2	20.995
3076.34	17.1989
3078.47	34.8479
3080.61	25.2016
3082.74	25.3054
3084.87	33.2596
3087	25.5765
3089.14	21.819
3091.27	21.9948
3093.39	32.0172
3095.52	16.4848
3097.65	40.3586
3099.78	28.7379
3101.91	23.0272
3104.03	27.2258
3106.16	21.5176
3108.28	51.6189
3110.41	28.0033
3112.53	36.2724
3114.65	16.5316
3116.77	24.8042
3118.89	33.1086
3121.01	31.3948
3123.13	31.699
3125.25	27.9677
3127.37	30.313
3129.49	34.7145
3131.61	26.9314
3133.72	39.5283
3135.84	48.0871
3137.95	29.9987
3140.06	11.8093
3142.18	38.8724
3144.29	32.9859
3146.4	39.479
3148.51	48.066
3150.62	25.4937
3152.73	38.1801
3154.84	36.312
3156.95	44.8636
3159.06	47.1699
3161.16	45.3002
3163.27	41.3303
3165.37	43.6268
3167.48	37.5092
3169.58	35.5721
3171.69	48.425
3173.79	40.1755
3175.89	36.0862
3177.99	42.5382
3180.09	53.2157
3182.19	44.8354
3184.29	27.9577
3186.39	59.8195
3188.49	55.6108
3190.58	49.3272
3192.68	53.6816
3194.77	41.0425
3196.87	43.3168
3198.96	47.7808
3201.06	50.1978
3203.15	67.5845
3205.24	59.3284
3207.33	42.4864
3209.42	60.0011
3211.51	56.0318
3213.6	67.1815
3215.69	56.7463
3217.78	59.2697
3219.86	66.1259
3221.95	79.5461
3224.04	53.7238
3226.12	51.8663
3228.2	60.9509
3230.29	59.0758
3232.37	61.605
3234.45	59.6938
3236.53	64.3946
3238.61	62.5
3240.7	58.4095
3242.77	58.7483
3244.85	68.0397
3246.93	61.6827
3249.01	53.0621
3251.08	62.2396
3253.16	46.7769
3255.23	58.1552
3257.31	44.8419
3259.38	72.0713
3261.46	67.8493
3263.53	56.8647
3265.6	54.9357
3267.67	78.1496
3269.74	51.1603
3271.81	56.117
3273.88	60.9379
3275.95	49.6469
3278.02	54.3584
3280.08	61.3619
3282.15	72.9626
3284.21	68.53
3286.28	73.2701
3288.34	91.8044
3290.41	78.1598
3292.47	101.322
3294.53	73.8149
3296.59	69.3231
3298.65	69.4508
3300.71	55.7541
3302.77	62.8185
3304.83	60.6385
3306.89	74.6809
3308.95	63.2179
3311	70.3019
3313.06	61.1136
3315.11	70.547
3317.17	63.6827
3319.22	47.5074
3321.27	61.6412
3323.33	85.1855
3325.38	76.0352
3327.43	64.5446
3329.48	60.0547
3331.53	79.1167
3333.58	91.215
3335.63	75.0433
3337.67	80.0752
3339.72	73.2112
3341.77	68.6593
3343.81	71.1767
3345.86	83.1881
3347.9	76.1637
3349.95	85.805
3351.99	93.0734
3354.03	83.676
3356.07	81.468
3358.11	93.5794
3360.15	77.0431
3362.19	77.2246
3364.23	74.9928
3366.27	99.1139
3368.31	87.2977
3370.34	85.07
3372.38	94.8332
3374.42	85.3402
3376.45	104.709
3378.48	90.3527
3380.52	90.4423
3382.55	90.5245
3384.58	73.6964
3386.61	88.2552
3388.64	78.6456
3390.68	73.8507
3392.7	81.153
3394.73	105.44
3396.76	91.0054
3398.79	91.1069
3400.82	86.3337
3402.84	81.518
3404.87	93.6944
3406.89	86.4458
3408.92	88.9138
3410.94	93.7894
3412.96	91.3745
3414.98	86.5228
3417	96.2865
3419.03	101.179
3421.05	110.942
3423.06	108.513
3425.08	113.408
3427.1	118.336
3429.12	81.7791
3431.14	94.0567
3433.15	62.3571
3435.17	89.3466
3437.18	82.1143
3439.2	77.3349
3441.21	79.9085
3443.22	75.1374
3445.23	82.6798
3447.25	80.4275
3449.26	85.5563
3451.27	90.6964
3453.28	81.0551
3455.28	86.26
3457.29	93.9957
3459.3	114.186
3461.31	92.1694
3463.31	90.011
3465.32	77.8613
3467.32	103.176
3469.33	75.9603
3471.33	91.2948
3473.33	81.4452
3475.34	56.5406
3477.34	79.4403
3479.34	99.8846
3481.34	92.5879
3483.34	90.3228
3485.34	88.0449
3487.33	67.9884
3489.33	80.9066
3491.33	83.6796
3493.32	78.8042
3495.32	78.9934
3497.32	71.5073
3499.31	66.5474
3501.3	76.917
3503.3	69.3451
3505.29	84.8329
3507.28	87.4806
3509.27	38.7555
3511.26	82.3952
3513.25	64.4215
3515.24	69.5553
3517.23	61.8385
3519.22	51.547
3521.2	72.1028
3523.19	74.6704
3525.18	79.8292
3527.16	69.5558
3529.15	72.1086
3531.13	69.5725
3533.11	56.7833
3535.1	72.3856
3537.08	59.6401
3539.06	54.6508
3541.04	54.795
3543.02	65.2837
3545	60.2111
3546.98	68.098
3548.96	55.1965
3550.93	52.6444
3552.91	60.3939
3554.89	52.5974
3556.86	44.8274
3558.84	39.6685
3560.81	52.7492
3562.78	47.6195
3564.76	42.4976
3566.73	40.0026
3568.7	42.7788
3570.67	66.4611
3572.64	40.4244
3574.61	27.4618
3576.58	38.1162
3578.55	48.8189
3580.52	35.8727
3582.48	43.9951
3584.45	44.2234
3586.41	47.0952
3588.38	31.4329
3590.35	39.5946
3592.31	34.4985
3594.27	34.7077
3596.23	37.5836
3598.2	35.1219
3600.16	37.9741
3602.12	24.7885
3604.08	24.9552
3606.04	27.7893
3608	22.5679
3609.95	25.3828
3611.91	9.37799
3613.87	33.7372
3615.83	31.171
3617.78	23.2132
3619.74	39.5161
3621.69	26.0865
3623.64	36.9291
3625.6	20.7365
3627.55	20.7594
3629.5	12.6608
3631.45	28.8862
3633.4	15.3645
3635.35	23.5075
3637.3	23.5583
3639.25	15.5101
3641.2	23.7574
3643.15	34.7536
3645.09	24.0404
3647.04	21.5042
3648.98	10.6418
3650.93	10.6994
3652.87	24.3931
3654.82	13.5553
3656.76	10.8879
3658.7	27.31
3660.64	2.81119
3662.58	16.5008
3664.53	24.752
3666.47	16.6337
3668.4	24.9163
3670.34	3.11209
3672.28	5.91685
3674.22	16.9712
3676.16	17.0991
3678.09	22.7333
3680.03	11.9215
3681.96	14.8507
3683.9	4.04483
3685.83	1.49974
3687.76	12.7503
3689.69	29.5636
3691.63	7.68135
3693.56	2.35054
3695.49	16.4132
3697.42	16.6474
3699.35	0.185333
3701.28	0.402573
3703.2	-2.19371
3705.13	6.40282
3707.06	6.63789
3708.98	6.87245
3710.91	15.5197
3712.83	12.9561
3714.76	13.1776
3716.68	7.75626
3718.6	2.31427
3720.53	2.49857
3722.45	-2.9705
3724.37	-2.80396
3726.29	17.1594
3728.21	11.6781
3730.13	-5.1461
3732.05	-4.9666
3733.97	12.2497
3735.88	1.07928
3737.8	18.3316
3739.72	4.28963
3741.63	21.5618
3743.55	-9.61925
3745.46	4.81183
3747.38	2.12091
3749.29	-3.43959
3751.2	5.28098
3753.11	5.4193
3755.02	-3.0379
3756.93	5.66896
3758.84	8.64735
3760.75	5.8925
3762.66	0.27272
3764.57	-5.35265
3766.48	6.22385
3768.39	14.9557
3770.29	6.49474
3772.2	12.3853
3774.1	-1.81697
3776.01	9.82138
3777.91	9.98857
3779.81	-7.08258
3781.72	24.7568
3783.62	7.70358
3785.52	2.15515
3787.42	2.36095
3789.32	-14.7581
3791.22	2.76033
3793.12	11.651
3795.02	6.11142
3796.92	20.8456
3798.81	9.52364
3800.71	9.79285
3802.61	-1.55208
3804.5	4.5359
3806.4	1.91135
3808.29	5.11238
3810.18	14.1505
3812.08	11.5138
3813.97	8.86992
3815.86	-8.41591
3817.75	18.2149
3819.64	9.70113
3821.53	4.10182
3823.42	4.36247
3825.31	7.54929
3827.2	-3.9631
3829.09	8.07504
3830.97	11.3061
3832.86	5.69482
3834.75	0.0683899
3836.63	21.0289
3838.52	9.4763
3840.4	9.74524
3842.28	4.15428
3844.17	-4.48763
3846.05	16.5181
3847.93	-1.08586
3849.81	8.03476
3851.69	11.2225
3853.57	23.306
3855.45	20.5451
3857.33	2.89606
3859.21	11.9832
3861.08	15.1477
3862.96	-2.48232
3864.84	-17.0922
3866.71	7.03867
3868.59	10.3889
3870.46	-16.1469
3872.34	1.98985
3874.21	8.18626
3876.08	8.42039
3877.95	11.6433
3879.82	17.8613
3881.69	6.14276
3883.56	9.38431
3885.44	3.65677
3887.3	12.9058
3889.17	4.19119
3891.04	19.4615
3892.91	1.77003
3894.77	17.1222
3896.64	-6.59332
3898.51	29.8053
3900.37	9.06824
3902.23	18.4256
3904.1	0.650269
3905.96	-2.05643
3907.82	16.3557
3909.69	-1.4509
3911.55	4.92471
3913.41	-0.797455
3915.27	8.62573
3917.13	5.95177
3918.99	0.249268
3920.84	9.74664
3922.7	19.2695
3924.56	13.5725
3926.42	7.85491
3928.27	11.2775
3930.13	5.53377
3931.98	12.0006
3933.84	21.518
3935.69	12.6654
3937.54	19.1236
3939.4	7.20097
3941.25	13.6986
3943.1	14.08
3944.95	8.29514
3946.8	17.8964
3948.65	18.2603
3950.5	18.6068
3952.35	37.4714
3954.19	6.91556
3956.04	19.6038
3957.89	26.1065
3959.73	23.3092
3961.58	14.3136
3963.42	5.31081
3965.27	17.9788
3967.11	33.7382
3968.96	21.5929
3970.8	15.6473
3972.64	25.2066
3974.48	16.1663
3976.32	13.3217
3978.16	13.5708
3980	1.40017
3981.84	-1.47592
3983.68	11.1558
3985.52	-1.01806
3987.36	14.7126
3989.19	21.1456
3991.03	8.98644
3992.86	27.8562
3994.7	12.6125
3996.53	12.894
3998.37	28.7128
