#Acq. time (s)=	20
#Accumulations=	3
#Range (cm-¹)=	100...4000
#Windows=	1
#Auto scanning=	Off
#Autofocus=	Off
#Macrospot=	Off
#AutoExposure=	Off
#Spike filter=	Multiple accum.
#Delay time (s)=	0
#Binning=	1
#Readout mode=	Signal
#DeNoise=	Lite
#ICS correction=	Off
#Dark correction=	Off
#Inst. Process=	Off
#Detector temperature (°C)=	-60.09
#Instrument=	LabRAM HR Evol
#Detector=	SIN-EM FIVIS
#Objective=	x50_VIS_LWD
#Grating=	150 (500nm)
#ND Filter=	100%
#Laser=	633nm_Edge
#Hole=	30.0125
#Temperature=	0
#Range=	Visible
#StageXY=	75x50mm Scan+
#StageZ=	Z motor
#X (µm)=	7340
#Y (µm)=	4609.7
#Z (µm)=	-42.4
#Full time(mm:ss)=	1:02
#Project=	Buranga
#Sample=	BU18FA20_C
#Site=	C_Bertoss1
#Title=	20-C_brt1_FI08
#Remark=	
#Date=	30.07.2019 14:43
#Acquired=	30.07.2019 14:43:14
#Data Range:Extract=	16.12.2021 15:36:30
#Base:Fit=	16.12.2021 15:36:40
#Base:Edit=	16.12.2021 15:38:45
#Base:Sub=	16.12.2021 15:38:47
100.38	451.558
103.641	427.954
106.898	361.864
110.156	319.157
113.411	276.373
116.666	243.832
119.918	217.904
123.17	194.833
126.419	172.676
129.669	153.035
132.916	139.391
136.163	127.596
139.407	116.595
142.651	106.402
145.892	97.4612
149.134	89.3272
152.372	80.9756
155.611	70.632
158.847	61.9963
162.083	53.8331
165.316	48.4978
168.548	45.0132
171.781	41.2357
175.01	34.1463
178.239	28.2076
181.466	23.535
184.693	22.0849
187.917	20.9944
191.139	19.7997
194.362	19.3551
197.582	19.6601
200.802	15.0707
204.02	10.3554
207.236	6.69281
210.452	2.74431
213.665	1.48524
216.877	-0.00474548
220.089	2.17882
223.299	1.73497
226.508	5.81514
229.715	9.08627
232.92	13.8967
236.126	31.5139
239.329	59.5352
242.53	76.3109
245.732	85.4299
248.931	72.2291
252.128	43.8582
255.326	32.0663
258.521	23.5058
261.714	20.7186
264.906	20.0924
268.099	24.4462
271.288	31.8868
274.477	37.6466
277.665	44.9819
280.851	59.5844
284.035	74.952
287.218	105.448
290.402	118.445
293.582	98.4423
296.761	74.547
299.939	51.1438
303.117	32.8359
306.293	19.7908
309.466	11.9197
312.639	9.16985
315.811	11.5392
318.982	19.3427
322.151	34.1212
325.318	47.9666
328.484	71.2869
331.651	121.186
334.814	140.024
337.977	123.639
341.138	82.254
344.297	46.8484
347.456	23.6868
350.614	17.4183
353.77	14.4719
356.925	14.5368
360.078	20.2123
363.23	27.7386
366.381	39.3998
369.53	46.9953
372.68	50.1733
375.827	41.395
378.972	33.709
382.116	25.4729
385.259	18.0508
388.401	11.2436
391.541	5.93852
394.681	2.3336
397.818	0.241714
400.956	-0.462723
404.092	0.235931
407.226	1.78519
410.359	3.42732
413.49	5.08438
416.62	7.67166
419.749	10.8422
422.877	15.3887
426.003	21.4926
429.128	27.4861
432.252	36.1317
435.375	48.2676
438.496	59.6081
441.616	71.5596
444.735	78.6393
447.852	79.3995
450.969	77.9946
454.084	75.3999
457.197	73.1167
460.31	71.3163
463.421	66.5566
466.531	60.6558
469.64	52.1939
472.747	42.1328
475.853	31.8046
478.958	23.5369
482.062	18.5262
485.164	15.5232
488.265	15.0031
491.365	15.2606
494.464	15.577
497.561	15.8277
500.657	15.8931
503.752	15.6482
506.844	15.289
509.937	14.7861
513.028	14.2842
516.117	15.185
519.206	16.9978
522.293	20.0896
525.38	23.2328
528.464	24.0292
531.548	21.7668
534.63	18.5513
537.71	16.2382
540.79	14.287
543.869	12.8458
546.946	11.8078
550.022	11.1074
553.097	10.665
556.169	10.8646
559.242	11.1509
562.313	11.4789
565.383	11.3726
568.452	10.0945
571.519	8.92381
574.584	7.9653
577.649	7.46107
580.713	7.78568
583.775	9.40004
586.837	13.0034
589.895	16.54
592.954	22.9454
596.012	34.6029
599.068	49.9844
602.122	69.0978
605.176	90.2244
608.229	100.247
611.28	86.5387
614.329	73.9703
617.378	62.2508
620.426	58.2628
623.473	58.5252
626.517	60.9577
629.561	63.2054
632.604	65.4842
635.644	67.8915
638.684	69.945
641.724	66.5774
644.76	57.8283
647.797	50.9757
650.833	48.0862
653.867	49.1735
656.899	55.4193
659.931	62.1177
662.96	70.7585
665.99	73.2506
669.018	70.0228
672.044	62.1873
675.07	50.9136
678.095	39.8317
681.117	30.5025
684.139	23.5616
687.16	18.9956
690.179	15.7467
693.197	13.2605
696.213	11.1822
699.23	9.02365
702.245	6.9198
705.257	4.80843
708.27	2.67415
711.28	1.76622
714.29	1.73462
717.298	3.31512
720.306	5.67923
723.312	7.6069
726.316	8.76979
729.321	9.12831
732.322	8.12436
735.324	5.99609
738.323	3.68239
741.323	1.61607
744.32	0.102814
747.317	-0.133545
750.311	0.0687561
753.306	0.938034
756.298	2.7005
759.291	4.73636
762.28	6.94028
765.27	9.08978
768.258	10.1085
771.245	9.58621
774.23	8.75586
777.215	7.88181
780.198	6.98199
783.179	6.11494
786.161	5.46332
789.14	5.22234
792.119	5.26501
795.096	5.56076
798.073	6.02016
801.047	6.65199
804.021	7.39853
806.994	8.33012
809.965	9.21561
812.936	9.06125
815.904	8.50101
818.871	7.61137
821.839	6.73444
824.804	5.717
827.769	4.63777
830.732	5.08685
833.693	5.72942
836.655	6.97014
839.614	8.7784
842.572	10.7357
845.53	12.838
848.485	14.3468
851.44	14.8705
854.394	14.0105
857.346	11.47
860.297	7.87794
863.248	6.54814
866.197	6.46455
869.144	6.40317
872.091	9.54839
875.037	11.9875
877.981	12.424
880.924	12.5805
883.867	12.4468
886.807	11.8965
889.746	11.2783
892.685	10.4226
895.623	9.518
898.559	8.7651
901.493	8.95019
904.427	8.07962
907.359	2.88186
910.292	13.544
913.222	15.1075
916.151	14.0303
919.078	12.3444
922.006	11.4101
924.932	11.1251
927.856	11.4307
930.779	12.4505
933.701	13.9883
936.622	15.8524
939.543	17.1222
942.461	20.7129
945.379	26.4864
948.295	34.38
951.21	44.197
954.124	53.6741
957.037	62.1445
959.95	69.73
962.861	72.1187
965.77	73.6512
968.678	77.1657
971.585	82.8451
974.491	91.9181
977.396	105.023
980.3	122.899
983.202	146.53
986.104	175.829
989.005	206.843
991.904	256.562
994.802	295.196
997.699	292.848
1000.6	249.303
1003.49	211.573
1006.38	185.102
1009.28	165.821
1012.17	149.018
1015.06	150.755
1017.95	161.096
1020.83	175.423
1023.72	192.576
1026.61	207.2
1029.49	210.718
1032.37	199.281
1035.26	182.585
1038.14	154.625
1041.02	125.42
1043.9	100.726
1046.77	85.2634
1049.65	76.6771
1052.53	66.2775
1055.4	59.0837
1058.27	53.1865
1061.15	48.4607
1064.02	43.3674
1066.88	39.7626
1069.75	34.7051
1072.62	33.9141
1075.49	36.1234
1078.35	39.787
1081.22	44.3515
1084.08	49.5784
1086.94	55.4321
1089.8	62.0805
1092.66	67.7772
1095.52	72.4863
1098.38	78.1365
1101.23	81.5433
1104.09	86.3449
1106.94	90.6347
1109.8	77.6946
1112.65	57.072
1115.5	43.7245
1118.35	34.9131
1121.2	29.4369
1124.05	27.2045
1126.89	25.3041
1129.74	23.6
1132.58	21.7637
1135.42	20.4701
1138.27	21.981
1141.11	23.6733
1143.95	27.437
1146.78	31.338
1149.62	37.2521
1152.46	44.0808
1155.29	50.9021
1158.13	59.512
1160.96	57.6495
1163.79	49.812
1166.62	39.2274
1169.45	28.9105
1172.28	23.9806
1175.11	19.4671
1177.93	15.7304
1180.76	12.8481
1183.59	10.7706
1186.41	9.35404
1189.23	8.25761
1192.05	7.41653
1194.87	6.3979
1197.69	5.76494
1200.51	8.03122
1203.32	9.2071
1206.14	6.52975
1208.95	0.298538
1211.77	-0.506874
1214.58	0.734459
1217.39	5.08583
1220.2	6.66399
1223.01	5.34936
1225.82	3.08074
1228.62	1.64328
1231.43	2.4586
1234.23	3.28384
1237.04	5.2919
1239.84	7.05636
1242.64	8.59968
1245.44	10.0203
1248.24	11.3682
1251.04	11.2246
1253.83	11.6617
1256.63	13.0976
1259.42	15.3271
1262.22	18.4925
1265.01	23.6376
1267.8	25.7735
1270.59	19.3143
1273.38	18.4473
1276.17	16.5705
1278.96	25.896
1281.74	161.292
1284.53	345.434
1287.31	156.575
1290.1	48.8967
1292.88	34.1756
1295.66	26.0576
1298.44	19.0079
1301.22	15.4369
1303.99	13.3871
1306.77	12.6518
1309.55	12.4084
1312.32	12.6326
1315.09	13.1443
1317.87	14.268
1320.64	13.8532
1323.41	14.2176
1326.18	12.6247
1328.94	8.95547
1331.71	8.85811
1334.48	8.95968
1337.24	8.6626
1340	8.36121
1342.77	7.45023
1345.53	3.97367
1348.29	1.19299
1351.05	0.0140152
1353.81	0.59053
1356.56	3.65018
1359.32	7.43386
1362.08	11.4051
1364.83	15.4309
1367.58	20.0654
1370.33	24.6638
1373.09	24.4266
1375.84	18.7699
1378.58	25.4593
1381.33	36.3152
1384.08	76.9401
1386.82	424.498
1389.57	527.628
1392.31	128.758
1395.06	29.9674
1397.8	28.263
1400.54	25.0324
1403.28	24.6896
1406.02	36.5304
1408.75	38.8589
1411.49	33.7774
1414.22	24.2695
1416.96	15.5496
1419.69	11.4698
1422.42	7.67271
1425.15	4.19737
1427.88	1.17879
1430.61	0.446449
1433.34	0.954498
1436.07	1.97111
1438.79	2.98707
1441.52	2.95979
1444.24	2.77547
1446.96	0.706352
1449.69	-0.805229
1452.41	-1.57006
1455.13	-1.4519
1457.84	0.401054
1460.56	1.9856
1463.28	2.91364
1465.99	3.12858
1468.71	1.07281
1471.42	-0.45874
1474.13	-1.25222
1476.84	-1.25729
1479.55	-0.55394
1482.26	0.262932
1484.97	1.41634
1487.68	2.41998
1490.39	3.18595
1493.09	3.55869
1495.79	2.50476
1498.5	3.24814
1501.2	8.15912
1503.9	5.4649
1506.6	3.75233
1509.3	1.664
1512	1.57276
1514.69	1.99119
1517.39	2.47244
1520.08	2.75539
1522.78	3.16294
1525.47	3.22359
1528.16	2.81068
1530.85	1.77278
1533.54	-0.308693
1536.23	-3.16001
1538.92	-4.72507
1541.61	-3.30354
1544.29	-0.475555
1546.98	1.97127
1549.66	1.93919
1552.34	1.75713
1555.02	2.43967
1557.7	2.8336
1560.38	2.87529
1563.06	2.77923
1565.74	3.08663
1568.42	3.63928
1571.09	4.24058
1573.77	4.0488
1576.44	4.46962
1579.11	5.13351
1581.78	5.50344
1584.45	5.31559
1587.12	3.93819
1589.79	2.42023
1592.46	1.17694
1595.12	0.801537
1597.79	0.93087
1600.45	1.4136
1603.12	2.23859
1605.78	3.21346
1608.44	4.052
1611.1	4.78992
1613.76	4.80353
1616.42	4.60655
1619.08	4.5191
1621.73	4.45203
1624.39	4.32398
1627.04	4.99477
1629.7	4.53697
1632.35	4.20766
1635	3.91553
1637.65	3.45187
1640.3	3.03649
1642.95	2.54084
1645.59	2.05828
1648.24	1.33233
1650.88	0.645012
1653.53	0.27179
1656.17	0.449295
1658.82	1.69711
1661.46	3.2743
1664.1	5.2886
1666.74	7.48197
1669.37	8.71127
1672.01	9.01935
1674.65	7.26347
1677.28	4.73878
1679.92	2.73829
1682.55	1.6293
1685.18	1.82964
1687.82	2.54405
1690.44	2.96279
1693.07	3.30846
1695.7	3.59436
1698.33	4.11792
1700.96	4.81705
1703.58	5.66363
1706.21	6.03625
1708.83	5.80951
1711.45	5.29495
1714.07	4.64267
1716.69	4.16877
1719.31	3.77185
1721.93	3.70189
1724.55	3.81834
1727.17	3.82087
1729.78	3.34338
1732.4	2.17992
1735.01	3.99786
1737.62	5.66524
1740.23	7.58468
1742.85	7.83875
1745.46	8.02045
1748.07	7.93646
1750.67	7.20724
1753.28	6.80399
1755.89	6.72176
1758.49	6.99807
1761.09	7.42786
1763.7	7.84493
1766.3	8.12339
1768.9	8.77025
1771.5	8.48872
1774.1	7.58978
1776.7	6.71684
1779.29	5.91159
1781.89	5.18206
1784.49	4.53909
1787.08	3.86163
1789.67	3.25532
1792.27	2.76536
1794.86	2.41914
1797.45	2.14641
1800.04	2.04791
1802.62	2.60963
1805.21	3.36092
1807.8	4.43835
1810.38	5.35552
1812.97	5.8894
1815.55	5.6972
1818.14	5.08243
1820.72	4.24619
1823.3	4.14821
1825.88	4.43234
1828.46	5.36848
1831.03	6.35008
1833.61	5.08546
1836.19	3.79778
1838.76	2.06236
1841.34	0.935966
1843.91	1.61662
1846.48	2.31115
1849.05	2.97138
1851.62	3.61847
1854.19	4.29048
1856.76	4.89613
1859.33	5.13357
1861.89	4.81831
1864.46	3.59852
1867.02	-0.257851
1869.59	1.51169
1872.15	1.66463
1874.71	2.2506
1877.27	3.24979
1879.83	4.07083
1882.39	4.42636
1884.95	4.02246
1887.51	3.08728
1890.06	1.84145
1892.62	0.250038
1895.17	-0.479111
1897.72	-0.573753
1900.27	-0.233253
1902.83	0.750092
1905.38	2.61188
1907.93	3.504
1910.47	4.28235
1913.02	5.20719
1915.57	6.15298
1918.11	6.66484
1920.66	6.82265
1923.2	6.6255
1925.74	6.32474
1928.29	5.59223
1930.83	4.56611
1933.37	3.11534
1935.91	1.68291
1938.44	0.646523
1940.98	-0.148193
1943.52	0.933853
1946.05	0.348465
1948.59	0.262253
1951.12	0.532028
1953.65	0.432411
1956.18	0.876389
1958.72	1.54512
1961.25	1.87446
1963.77	2.10907
1966.3	2.38554
1968.83	2.73654
1971.35	3.13828
1973.88	3.64972
1976.4	4.25007
1978.93	5.06266
1981.45	6.08235
1983.97	6.88488
1986.49	7.3263
1989.01	5.63837
1991.53	3.03768
1994.05	1.29575
1996.56	0.216553
1999.08	0.795097
2001.59	1.44001
2004.11	2.32018
2006.62	3.37608
2009.13	4.73877
2011.64	6.45714
2014.15	7.06435
2016.66	6.79666
2019.17	6.46696
2021.68	6.27084
2024.18	6.85123
2026.69	7.96961
2029.19	9.5584
2031.7	7.38512
2034.2	5.47271
2036.7	6.27644
2039.2	7.50108
2041.7	5.93186
2044.2	5.16748
2046.7	4.42925
2049.2	5.45751
2051.7	6.6748
2054.19	7.68171
2056.69	8.49834
2059.18	8.97419
2061.67	9.09674
2064.16	8.1744
2066.65	6.20016
2069.15	4.52654
2071.63	1.61502
2074.12	0.524422
2076.61	1.18345
2079.1	2.89309
2081.58	2.74728
2084.07	2.76634
2086.55	3.58617
2089.03	5.0731
2091.51	6.88373
2094	8.35626
2096.47	9.44484
2098.95	9.72581
2101.43	9.66433
2103.91	9.30621
2106.39	8.70068
2108.86	8.03884
2111.34	7.15434
2113.81	6.31634
2116.28	5.32052
2118.76	4.47543
2121.23	3.81506
2123.7	3.59681
2126.17	4.15458
2128.63	5.39056
2131.1	6.29967
2133.57	7.49976
2136.03	7.56347
2138.5	6.56958
2140.96	6.28357
2143.43	4.32259
2145.89	-0.289528
2148.35	3.66732
2150.81	4.9735
2153.27	5.3917
2155.73	4.76939
2158.18	3.75629
2160.64	3.04268
2163.1	3.2143
2165.55	3.60813
2168	3.91502
2170.46	5.26352
2172.91	6.35605
2175.36	6.75189
2177.81	7.13453
2180.26	6.71095
2182.71	7.02086
2185.16	6.81999
2187.6	5.4627
2190.05	4.27822
2192.5	3.3321
2194.94	2.34703
2197.38	2.24085
2199.83	0.906395
2202.27	-0.28035
2204.71	0.307304
2207.15	1.26595
2209.59	1.9968
2212.02	2.71553
2214.46	3.31826
2216.9	4.38046
2219.33	5.08628
2221.77	5.04556
2224.2	5.17503
2226.64	5.36386
2229.07	5.60224
2231.5	6.20821
2233.93	5.97861
2236.36	5.29537
2238.79	3.73682
2241.21	2.22589
2243.64	2.10494
2246.06	2.5086
2248.49	3.52615
2250.91	4.19667
2253.34	4.75007
2255.76	4.99559
2258.18	5.00624
2260.6	5.84393
2263.02	6.60366
2265.44	7.16548
2267.86	7.45213
2270.27	7.17944
2272.69	6.67927
2275.11	6.01234
2277.52	5.14597
2279.93	4.07318
2282.35	3.65737
2284.76	3.38151
2287.17	3.40211
2289.58	2.44773
2291.99	1.27701
2294.4	2.15312
2296.8	3.34245
2299.21	4.43954
2301.62	5.2111
2304.02	5.57346
2306.43	5.45429
2308.83	5.57775
2311.23	6.07652
2313.63	4.18153
2316.03	-0.584358
2318.43	1.89819
2320.83	4.81446
2323.23	9.65604
2325.63	11.1611
2328.02	9.99251
2330.42	8.85002
2332.81	8.23057
2335.21	8.1269
2337.6	8.55038
2339.99	8.19229
2342.38	7.17345
2344.77	5.9491
2347.16	5.22874
2349.55	4.75449
2351.94	4.71459
2354.32	4.58226
2356.71	4.75364
2359.1	6.18829
2361.48	7.23656
2363.86	7.703
2366.25	7.73262
2368.63	6.57108
2371.01	4.86007
2373.39	2.63166
2375.77	3.30668
2378.15	3.81104
2380.52	4.28294
2382.9	5.31848
2385.28	6.33472
2387.65	5.87829
2390.03	5.48164
2392.4	5.02895
2394.77	4.64758
2397.14	4.43714
2399.51	4.44799
2401.88	3.83862
2404.25	2.79744
2406.62	1.68155
2408.99	0.739914
2411.35	0.16494
2413.72	0.98201
2416.08	1.83892
2418.45	2.72846
2420.81	3.6637
2423.17	4.59555
2425.53	4.84786
2427.89	4.45776
2430.25	3.66182
2432.61	2.97489
2434.97	2.59137
2437.33	2.41662
2439.69	2.42258
2442.04	2.64993
2444.4	2.8195
2446.75	3.13715
2449.1	3.48724
2451.45	3.84984
2453.81	5.04401
2456.16	4.98458
2458.51	3.95332
2460.85	2.36855
2463.2	0.409737
2465.55	0.222343
2467.9	0.800362
2470.24	1.96581
2472.59	3.33227
2474.93	4.68813
2477.27	4.13541
2479.62	4.55614
2481.96	6.43298
2484.3	10.0116
2486.64	9.70499
2488.98	7.76562
2491.31	6.69999
2493.65	6.0125
2495.99	5.75863
2498.32	5.68936
2500.66	6.21767
2502.99	7.09738
2505.32	7.25405
2507.66	7.19718
2509.99	6.90048
2512.32	6.57236
2514.65	6.06359
2516.98	4.68874
2519.31	3.99718
2521.63	3.69671
2523.96	3.8571
2526.28	5.0116
2528.61	5.78162
2530.93	6.17571
2533.26	5.75056
2535.58	4.14541
2537.9	3.12517
2540.22	3.4045
2542.54	2.96436
2544.86	4.71258
2547.18	5.41423
2549.5	5.77589
2551.81	6.0546
2554.13	6.31656
2556.44	6.7328
2558.76	7.03872
2561.07	9.12984
2563.38	10.2714
2565.69	9.55575
2568.01	9.70772
2570.32	8.47421
2572.62	3.52447
2574.93	4.56441
2577.24	4.89769
2579.55	4.5016
2581.85	4.13082
2584.16	4.57284
2586.46	5.90595
2588.77	7.03488
2591.07	7.88336
2593.37	8.39686
2595.67	8.63521
2597.97	8.589
2600.27	8.1573
2602.57	7.2855
2604.87	6.21549
2607.17	4.96436
2609.46	4.58706
2611.76	4.57209
2614.05	5.11804
2616.35	5.54803
2618.64	5.93661
2620.93	6.12634
2623.22	6.24981
2625.51	6.01701
2627.8	5.5367
2630.09	5.01721
2632.38	4.40801
2634.67	3.508
2636.96	3.57659
2639.24	3.71429
2641.53	4.29047
2643.81	5.43932
2646.09	6.45077
2648.38	6.70511
2650.66	6.42892
2652.94	6.14384
2655.22	5.8755
2657.5	5.69966
2659.78	5.56384
2662.06	5.43457
2664.33	5.28522
2666.61	5.13466
2668.88	4.9623
2671.16	5.43615
2673.43	6.94524
2675.71	7.9304
2677.98	8.07233
2680.25	6.88705
2682.52	5.06609
2684.79	3.43653
2687.06	2.42877
2689.33	1.36314
2691.6	1.91856
2693.86	3.54192
2696.13	6.2185
2698.39	8.17339
2700.66	8.57254
2702.92	7.8386
2705.18	6.26683
2707.45	3.37763
2709.71	2.34682
2711.97	3.211
2714.23	4.57024
2716.49	5.566
2718.74	6.32053
2721	6.76534
2723.26	6.91038
2725.51	6.67702
2727.77	6.16229
2730.02	5.93647
2732.28	5.98953
2734.53	6.32153
2736.78	6.87785
2739.03	7.22288
2741.28	7.32884
2743.53	7.03311
2745.78	6.65941
2748.03	6.52689
2750.27	5.95698
2752.52	5.02741
2754.77	4.39688
2757.01	1.42073
2759.26	-0.91217
2761.5	4.34097
2763.74	6.00349
2765.98	6.84396
2768.22	6.82726
2770.46	6.97443
2772.7	7.27887
2774.94	7.77637
2777.18	8.4973
2779.42	9.33029
2781.65	11.1712
2783.89	12.4002
2786.12	11.6928
2788.36	10.8327
2790.59	8.49196
2792.82	7.10192
2795.05	6.43901
2797.28	6.02905
2799.51	5.84535
2801.74	6.96278
2803.97	5.65453
2806.2	3.50846
2808.43	2.92145
2810.65	3.1498
2812.88	4.70516
2815.1	5.10699
2817.33	2.75874
2819.55	1.5823
2821.77	1.88548
2823.99	2.27758
2826.21	2.65166
2828.43	3.44756
2830.65	4.49545
2832.87	5.90814
2835.09	7.21017
2837.3	6.71156
2839.52	5.42918
2841.74	4.72954
2843.95	4.33586
2846.17	4.06932
2848.38	4.88238
2850.59	4.24657
2852.8	4.31364
2855.01	6.00346
2857.22	6.45956
2859.43	6.63944
2861.64	6.64279
2863.85	6.49614
2866.06	6.07362
2868.26	6.14538
2870.47	6.4364
2872.67	7.01275
2874.88	7.27842
2877.08	7.19141
2879.28	6.99194
2881.48	6.35196
2883.68	5.45787
2885.89	3.92789
2888.08	2.03483
2890.28	0.660347
2892.48	3.06081
2894.68	4.19559
2896.87	4.53544
2899.07	4.59366
2901.26	4.21754
2903.46	3.91568
2905.65	3.89095
2907.85	3.92947
2910.04	5.36159
2912.23	5.75018
2914.42	5.28941
2916.61	4.91516
2918.8	5.28626
2920.98	5.85041
2923.17	6.84565
2925.36	7.80949
2927.54	7.52957
2929.73	6.66597
2931.91	5.80721
2934.1	5.10538
2936.28	4.75707
2938.46	4.87406
2940.64	5.17966
2942.82	3.42052
2945	5.86983
2947.18	6.02614
2949.36	6.18589
2951.54	6.32587
2953.72	5.60755
2955.89	4.03831
2958.07	2.62339
2960.24	3.19167
2962.42	3.51349
2964.59	3.88241
2966.76	2.99008
2968.93	0.906586
2971.1	1.78196
2973.27	3.1169
2975.44	4.41734
2977.61	5.42988
2979.78	6.25108
2981.95	6.84618
2984.11	6.68444
2986.28	5.26526
2988.45	3.30318
2990.61	0.830681
2992.77	0.0536118
2994.94	0.181877
2997.1	1.95674
2999.26	4.02584
3001.42	3.9939
3003.58	4.2284
3005.74	4.70307
3007.9	4.83148
3010.06	4.95236
3012.21	5.46843
3014.37	6.38822
3016.52	6.149
3018.68	5.50675
3020.83	4.9355
3022.99	4.32584
3025.14	3.88968
3027.29	4.26643
3029.44	5.22529
3031.59	6.24288
3033.74	5.92362
3035.89	6.16681
3038.04	7.16778
3040.19	8.82626
3042.33	7.25332
3044.48	5.50629
3046.62	5.11592
3048.77	5.67597
3050.91	6.39736
3053.05	7.11834
3055.2	7.10435
3057.34	6.41875
3059.48	5.86714
3061.62	5.74042
3063.76	6.85098
3065.9	8.17098
3068.03	9.61142
3070.17	10.8903
3072.31	11.7262
3074.44	12.2234
3076.58	12.294
3078.71	10.8178
3080.85	8.97424
3082.98	7.0118
3085.11	7.05074
3087.24	7.61606
3089.37	8.46315
3091.5	8.52119
3093.63	7.70475
3095.76	7.13695
3097.89	6.89523
3100.02	8.06979
3102.14	10.2544
3104.27	12.886
3106.39	15.5219
3108.52	14.875
3110.64	13.0294
3112.76	11.2493
3114.89	10.2618
3117.01	10.7833
3119.13	9.56294
3121.25	9.6353
3123.37	9.77744
3125.49	10.5113
3127.6	11.4455
3129.72	11.2859
3131.84	10.0878
3133.95	8.95211
3136.07	8.64256
3138.18	9.0845
3140.29	9.81768
3142.41	10.86
3144.52	12.1442
3146.63	13.668
3148.74	13.6949
3150.85	13.2
3152.96	12.5481
3155.07	12.0708
3157.18	12.1654
3159.28	11.4223
3161.39	10.2701
3163.5	11.4028
3165.6	10.2174
3167.71	8.79178
3169.81	9.98785
3171.91	11.672
3174.01	14.6858
3176.12	16.0619
3178.22	16.3149
3180.32	16.5314
3182.42	16.9033
3184.51	15.5234
3186.61	14.5133
3188.71	12.7386
3190.8	12.0082
3192.9	11.8749
3195	11.6484
3197.09	11.7775
3199.18	12.3758
3201.28	13.3102
3203.37	14.3033
3205.46	15.2363
3207.55	15.1179
3209.64	15.1574
3211.73	14.9584
3213.82	14.8194
3215.91	14.8683
3218	15.6667
3220.08	17.2519
3222.17	17.8018
3224.25	18.11
3226.34	17.9749
3228.42	17.6657
3230.5	17.4698
3232.59	16.8847
3234.67	16.2198
3236.75	15.5351
3238.83	15.4645
3240.91	15.7916
3242.99	15.5023
3245.07	14.9108
3247.14	12.7851
3249.22	12.5905
3251.3	12.4163
3253.37	14.3965
3255.45	15.6999
3257.52	16.0744
3259.6	14.7023
3261.67	12.8159
3263.74	13.4278
3265.81	14.1213
3267.88	13.8162
3269.95	12.7922
3272.02	11.6441
3274.09	10.603
3276.16	10.5071
3278.22	12.0414
3280.29	13.24
3282.36	13.5562
3284.42	12.8699
3286.49	13.5328
3288.55	14.262
3290.61	14.2073
3292.68	12.7788
3294.74	10.3362
3296.8	9.26466
3298.86	9.17159
3300.92	10.0968
3302.98	11.9473
3305.04	12.6957
3307.09	11.417
3309.15	11.8068
3311.21	11.9062
3313.26	12.114
3315.32	12.4723
3317.37	12.9271
3319.42	11.6901
3321.48	12.3063
3323.53	9.60698
3325.58	9.12406
3327.63	9.42875
3329.68	10.7529
3331.73	10.8403
3333.78	9.97993
3335.83	8.73319
3337.87	5.61954
3339.92	12.4616
3341.97	15.5396
3344.01	15.4419
3346.06	14.9202
3348.1	16.2669
3350.14	15.4365
3352.19	14.3327
3354.23	12.7043
3356.27	12.011
3358.31	12.2555
3360.35	12.6132
3362.39	13.0134
3364.43	13.5221
3366.47	14.1345
3368.5	14.8153
3370.54	15.5441
3372.58	16.3237
3374.61	17.0783
3376.65	17.8891
3378.68	18.136
3380.71	17.6334
3382.74	17.0517
3384.78	16.6688
3386.81	16.4193
3388.84	16.3484
3390.87	16.4124
3392.9	16.6331
3394.93	17.0184
3396.95	16.9929
3398.98	16.8262
3401.01	16.2763
3403.03	15.9147
3405.06	16.1249
3407.08	14.8133
3409.1	14.04
3411.13	13.1608
3413.15	14.8153
3415.17	17.2882
3417.19	19.5601
3419.21	20.5429
3421.23	20.1301
3423.25	19.8262
3425.27	19.8207
3427.29	19.6699
3429.31	18.8299
3431.32	18.683
3433.34	18.7682
3435.35	18.3378
3437.37	18.0496
3439.38	17.5988
3441.39	17.7676
3443.41	17.5698
3445.42	17.0906
3447.43	15.7164
3449.44	15.8891
3451.45	15.9835
3453.46	14.8217
3455.47	14.1224
3457.47	14.0895
3459.48	14.9435
3461.49	15.6972
3463.49	16.1447
3465.5	16.616
3467.5	17.043
3469.51	17.7579
3471.51	16.6341
3473.51	15.5015
3475.51	14.6303
3477.52	14.0071
3479.52	14.3545
3481.52	15.0994
3483.52	16.2125
3485.51	15.686
3487.51	17.1255
3489.51	17.8644
3491.51	17.7513
3493.5	16.6594
3495.5	15.0493
3497.49	14.7554
3499.49	15.4844
3501.48	15.7428
3503.47	15.6954
3505.46	16.0653
3507.45	16.7024
3509.45	16.498
3511.44	13.7668
3513.43	11.1856
3515.41	9.3623
3517.4	8.60334
3519.39	8.04645
3521.38	8.58926
3523.36	10.5205
3525.35	14.1097
3527.33	12.9666
3529.32	12.4929
3531.3	12.6226
3533.28	12.0732
3535.27	11.7243
3537.25	11.5922
3539.23	11.7326
3541.21	12.219
3543.19	12.459
3545.17	12.8364
3547.15	13.4947
3549.12	12.3635
3551.1	11.8447
3553.08	12.2817
3555.05	13.1775
3557.03	14.2661
3559	14.4784
3560.98	14.625
3562.95	14.6199
3564.92	14.038
3566.89	13.6517
3568.87	12.6915
3570.84	12.8864
3572.81	13.9177
3574.78	15.4865
3576.74	16.1727
3578.71	17.7039
3580.68	19.4295
3582.65	20.8677
3584.61	22.1356
3586.58	23.2131
3588.54	22.9687
3590.51	20.9027
3592.47	17.8668
3594.43	16.2902
3596.4	15.5885
3598.36	15.5102
3600.32	15.2041
3602.28	14.7179
3604.24	13.814
3606.2	12.9966
3608.16	12.085
3610.11	10.629
3612.07	8.9401
3614.03	7.40538
3615.98	5.87513
3617.94	5.72908
3619.89	5.82403
3621.85	7.5713
3623.8	8.30752
3625.75	7.70097
3627.71	6.4628
3629.66	5.81101
3631.61	8.42364
3633.56	8.73915
3635.51	8.00249
3637.46	8.32064
3639.41	7.04677
3641.35	6.71387
3643.3	6.61214
3645.25	6.59348
3647.19	6.69151
3649.14	6.9166
3651.08	7.84699
3653.03	8.348
3654.97	6.96304
3656.91	5.17679
3658.85	2.9057
3660.8	1.38265
3662.74	-0.100842
3664.68	-0.496552
3666.62	0.212952
3668.56	1.3029
3670.49	3.15284
3672.43	5.11488
3674.37	8.15839
3676.3	7.80252
3678.24	6.64327
3680.18	4.73065
3682.11	1.90181
3684.04	0.680382
3685.98	1.89481
3687.91	3.73206
3689.84	5.10066
3691.77	6.10953
3693.7	6.7177
3695.63	5.8651
3697.56	4.6152
3699.49	3.50911
3701.42	3.17073
3703.35	2.59835
3705.28	3.23281
3707.2	3.34814
3709.13	3.49055
3711.05	3.26557
3712.98	3.10866
3714.9	2.99057
3716.82	2.84801
3718.75	2.73726
3720.67	2.53211
3722.59	2.15596
3724.51	1.4518
3726.43	-0.0374031
3728.35	-0.23481
3730.27	0.849159
3732.19	1.7651
3734.11	3.11908
3736.02	4.81641
3737.94	4.99063
3739.86	5.04922
3741.77	4.99813
3743.69	4.53845
3745.6	3.55377
3747.51	2.5452
3749.43	3.62804
3751.34	4.19146
3753.25	3.876
3755.16	2.99136
3757.07	2.54265
3758.98	1.54885
3760.89	2.98152
3762.8	3.30195
3764.71	3.51091
3766.61	3.38724
3768.52	3.40315
3770.43	3.53978
3772.33	3.36304
3774.24	2.91198
3776.14	3.17606
3778.05	3.44757
3779.95	3.71462
3781.85	3.974
3783.75	4.12092
3785.65	4.17345
3787.55	4.12949
3789.45	3.96021
3791.35	3.80347
3793.25	3.55127
3795.15	3.30281
3797.05	3.18723
3798.95	3.24041
3800.84	3.77436
3802.74	3.35004
3804.63	2.41764
3806.53	1.53729
3808.42	0.86396
3810.31	0.404106
3812.21	0.145493
3814.1	0.0717087
3815.99	0.279049
3817.88	0.770958
3819.77	1.32655
3821.66	1.19999
3823.55	1.28591
3825.44	1.34556
3827.33	1.14482
3829.21	0.702126
3831.1	0.437855
3832.99	0.353706
3834.87	0.976345
3836.76	2.33388
3838.64	3.54957
3840.52	3.55415
3842.41	2.81376
3844.29	2.37233
3846.17	2.01875
3848.05	1.82819
3849.93	1.39589
3851.81	0.66853
3853.69	0.337147
3855.57	0.0375061
3857.45	-0.0721779
3859.33	0.0785713
3861.21	0.548748
3863.08	1.27563
3864.96	2.14757
3866.83	2.72488
3868.71	3.13371
3870.58	3.36814
3872.46	3.34844
3874.33	3.12231
3876.2	3.29128
3878.07	3.18374
3879.94	3.04534
3881.81	2.87502
3883.68	2.23316
3885.55	1.13658
3887.42	-0.0188713
3889.29	-0.904198
3891.16	-1.19595
3893.02	-1.06685
3894.89	-0.193615
3896.76	1.52819
3898.62	1.77577
3900.49	0.550316
3902.35	0.365986
3904.21	0.30864
3906.08	0.572758
3907.94	1.23081
3909.8	2.20058
3911.66	2.31651
3913.52	2.36084
3915.38	4.0254
3917.24	4.43103
3919.1	4.60433
3920.96	4.71093
3922.82	4.69799
3924.67	4.52399
3926.53	3.81171
3928.38	2.62872
3930.24	1.31863
3932.09	0.946594
3933.95	1.21154
3935.8	2.4315
3937.65	3.37254
3939.51	3.778
3941.36	4.3909
3943.21	4.90356
3945.06	0.973072
3946.91	0.291431
3948.76	0.676434
3950.61	1.33758
3952.46	1.19
3954.3	0.540836
3956.15	0.394863
3958	0.888462
3959.84	1.97106
3961.69	3.57676
3963.53	4.55724
3965.38	4.4808
3967.22	4.55152
3969.06	4.50277
3970.91	4.80088
3972.75	4.37842
3974.59	3.03409
3976.43	2.62001
3978.27	2.71975
3980.11	3.3321
3981.95	4.40705
3983.78	5.86943
3985.62	5.46214
3987.46	4.55907
3989.3	3.63749
3991.13	3.56445
3992.97	3.07082
3994.8	2.56422
3996.64	-0.00400543
3998.47	6.90556
