#Acq. time (s)=	60
#Accumulations=	2
#Range (cm-¹)=	100...4000
#Windows=	1
#Auto scanning=	Off
#Autofocus=	Off
#Macrospot=	Off
#AutoExposure=	Off
#Spike filter=	Multiple accum.
#Delay time (s)=	2
#Binning=	1
#Readout mode=	Signal
#DeNoise=	Off
#ICS correction=	On
#Dark correction=	Off
#Inst. Process=	Off
#Detector Gain=	Best Dynamic
#Detector ADC=	50 kHz HS
#Detector temperature (°C)=	-60.09
#Instrument=	LabRAM HR Evol
#Detector=	SIN-EM FIVIS
#Objective=	x100_VIS_LWD
#Grating=	150 (500nm)
#ND Filter=	100%
#Laser=	633nm_Edge
#Hole=	30.0125
#Temperature=	39.9
#Range=	Visible
#StageXY=	75x50mm Scan+
#StageZ=	Z motor
#X (µm)=	0
#Y (µm)=	0
#Z (µm)=	469.1
#Full time(mm:ss)=	2:05
#Project=	21_08_11
#Sample=	BU20
#Site=	
#Title=	BU20-B-FF4-FI01-V_150 (500nm)_633nm_Edge_100%_x100_VIS_LWD_H30um_60sX2
#Remark=	
#Date=	13.08.2021 11:43
#Acquired=	13.08.2021 11:43:40
#Data Range:Extract=	16.12.2021 15:36:30
#Base:Fit=	16.12.2021 15:36:40
#Base:Edit=	16.12.2021 15:51:30
#Base:Edit=	16.12.2021 15:51:31
#Base:Sub=	16.12.2021 15:51:38
100.12	590.117
103.379	495.409
106.638	399.8
109.896	372.904
113.152	310.699
116.407	278.094
119.66	254.06
122.912	197.589
126.162	171.698
129.412	154.469
132.659	124.799
135.906	116.21
139.151	98.0628
142.396	96.2383
145.637	85.8637
148.878	78.39
152.118	64.2721
155.356	56.9105
158.594	51.4933
161.829	39.4136
165.064	34.0703
168.297	32.5805
171.529	34.9474
174.759	25.8251
177.989	19.5893
181.216	3.79539
184.441	7.16803
187.667	17.2562
190.89	8.20775
194.114	7.80726
197.334	-4.96876
200.553	3.31909
203.772	1.18253
206.989	2.86837
210.205	5.5249
213.419	-2.28941
216.631	-2.44399
219.844	2.1836
223.054	10.6368
226.262	0.0261841
229.471	13.2095
232.677	26.4189
235.881	52.0049
239.086	66.1845
242.288	97.4716
245.488	85.1461
248.689	53.8053
251.887	31.9775
255.083	26.3065
258.28	20.6697
261.474	23.5912
264.667	32.2195
267.858	26.6387
271.05	40.0475
274.238	38.2978
277.426	56.4797
280.613	65.1691
283.798	91.8642
286.982	120.443
290.164	112.037
293.346	116.881
296.526	93.335
299.704	63.1924
302.881	40.6428
306.058	36.0777
309.233	24.9155
312.406	18.4951
315.577	16.8103
318.749	23.6285
321.918	24.8152
325.086	49.5977
328.253	75.3177
331.418	107.66
334.584	123.012
337.746	107.238
340.908	62.2414
344.068	43.6542
347.227	26.0004
350.384	18.7318
353.542	27.4648
356.697	12.6447
359.851	27.0119
363.003	35.7181
366.154	48.175
369.304	59.6839
372.452	50.5197
375.601	51.68
378.747	41.5923
381.892	31.512
385.035	19.6044
388.177	15.2472
391.318	9.97753
394.457	13.1746
397.596	2.30177
400.733	-0.081955
403.868	13.5088
407.004	-1.1489
410.137	11.5238
413.269	8.14101
416.4	10.3937
419.529	19.2934
422.657	19.6326
425.784	18.0227
428.91	21.0353
432.034	32.5252
435.157	50.5831
438.279	63.8792
441.399	62.0926
444.518	79.0831
447.636	73.4906
450.753	81.0101
453.868	70.757
456.982	70.8266
460.095	63.4658
463.207	70.1474
466.317	58.2266
469.426	47.2387
472.534	44.6753
475.64	33.7587
478.746	21.9254
481.85	24.9791
484.952	24.3027
488.054	14.3058
491.154	14.5591
494.253	24.1368
497.351	13.1971
500.447	11.5837
503.541	21.1686
506.635	23.2882
509.728	17.0154
512.819	8.87929
515.91	10.0725
518.999	17.8257
522.086	17.1915
525.173	14.689
528.258	13.1315
531.342	11.584
534.423	19.4375
537.505	21.663
540.585	19.1516
543.664	19.4443
546.742	14.9922
549.819	17.088
552.894	19.2087
555.966	13.7535
559.039	17.6878
562.111	15.904
565.181	17.8803
568.25	12.2837
571.317	5.73496
574.383	12.3311
577.449	14.1992
580.513	14.193
583.576	20.7572
586.636	19.8375
589.697	32.0032
592.756	22.752
595.814	26.5601
598.871	53.7038
601.925	67.8848
604.979	86.7841
608.032	89.8451
611.084	77.0616
614.133	58.6502
617.183	62.7321
620.231	76.1906
623.277	65.2912
626.322	58.1373
629.367	68.7652
632.41	71.8054
635.451	74.773
638.492	72.0135
641.532	67.3183
644.569	61.6077
647.606	50.3131
650.642	51.2362
653.675	48.3473
656.709	66.0788
659.741	70.6513
662.771	77.0734
665.801	81.632
668.829	66.5854
671.856	59.1159
674.882	41.5157
677.907	36.9246
680.929	31.3997
683.952	24.9864
686.972	19.5139
689.992	10.3343
693.011	10.5037
696.028	11.6098
699.045	8.02567
702.059	9.11884
705.073	10.2055
708.086	8.45578
711.096	8.55807
714.107	9.50451
717.115	3.90148
720.123	3.9208
723.129	4.90047
726.135	11.4679
729.139	8.62536
732.141	8.5954
735.143	5.75595
738.143	7.59545
741.143	6.6323
744.14	8.47488
747.138	5.66328
750.133	3.78957
753.128	6.61288
756.12	11.2855
759.113	8.56402
762.103	4.01255
765.093	-2.38539
768.081	5.24993
771.069	1.66029
774.054	2.75685
777.04	8.53792
780.023	8.66827
783.005	6.895
785.987	6.98732
788.966	8.95729
791.946	5.25793
794.923	3.42537
797.9	5.34888
800.875	2.53221
803.848	0.647545
806.822	0.635582
809.793	6.27249
812.765	2.4689
815.733	7.11971
818.701	-8.90167
821.669	3.23764
824.634	1.296
827.6	6.83915
830.563	0.254913
833.525	4.9445
836.487	4.05175
839.446	3.19582
842.404	7.06179
845.363	9.03465
848.319	11.0303
851.273	10.2259
854.228	11.3064
857.181	6.75264
860.132	4.07717
863.083	11.7734
866.032	8.15415
868.98	10.2
871.927	8.43816
874.874	7.59125
877.818	7.67037
880.761	13.4365
883.704	14.4466
886.645	8.79571
889.585	16.4146
892.523	20.2232
895.462	12.6414
898.398	12.6124
901.333	18.2302
904.267	8.7012
907.2	13.3576
910.133	13.2761
913.063	12.2592
915.992	13.1302
918.92	14.9901
921.849	14.9867
924.774	18.7835
927.699	14.1449
930.622	7.68041
933.545	26.5865
936.466	20.1761
939.387	28.884
942.306	22.5113
945.224	26.5337
948.141	33.4395
951.056	42.2686
953.97	56.8323
956.884	53.2993
959.797	65.0124
962.708	64.3009
965.617	79.8254
968.526	78.1266
971.434	73.4974
974.34	87.0645
977.245	97.6908
980.149	103.432
983.052	128.313
985.955	158.881
988.856	198.004
991.755	225.565
994.654	250.193
997.551	239.482
1000.45	220.24
1003.34	172.447
1006.24	158.122
1009.13	149.583
1012.02	146.897
1014.91	146.125
1017.8	156.791
1020.69	150.312
1023.57	169.716
1026.46	188.265
1029.35	212.627
1032.23	205.401
1035.11	190.514
1037.99	151.548
1040.87	124.024
1043.75	91.5832
1046.63	81.2973
1049.51	74.7961
1052.38	58.5639
1055.26	60.7148
1058.13	55.0742
1061	46.4785
1063.88	43.678
1066.74	43.7317
1069.61	47.688
1072.48	39.9885
1075.35	45.8702
1078.21	41.0575
1081.08	44.9719
1083.94	57.6091
1086.8	66.3599
1089.67	73.2007
1092.53	67.436
1095.38	78.1412
1098.24	63.663
1101.1	80.1648
1103.95	99.5863
1106.81	85.2538
1109.66	72.7707
1112.51	48.7711
1115.36	40.3388
1118.22	42.5801
1121.06	29.2116
1123.91	30.4018
1126.76	25.7374
1129.6	25.9696
1132.45	21.3047
1135.29	33.2796
1138.13	22.7256
1140.98	30.81
1143.81	40.8473
1146.65	48.893
1149.49	42.2145
1152.33	49.2681
1155.16	56.287
1158	67.2044
1160.83	66.2699
1163.66	52.4781
1166.49	21.0478
1169.32	23.0374
1172.15	23.0601
1174.98	18.1822
1177.81	12.331
1180.63	13.3537
1183.46	13.4114
1186.28	11.5578
1189.1	15.5826
1191.93	12.7782
1194.75	10.9946
1197.56	4.31735
1200.38	16.2692
1203.2	1.81278
1206.02	16.7839
1208.83	9.19495
1211.64	7.48529
1214.46	6.77943
1217.27	9.04982
1220.08	5.38319
1222.89	7.67345
1225.69	-0.998238
1228.5	6.28043
1231.31	7.56634
1234.11	6.83326
1236.92	6.08418
1239.72	8.33369
1242.52	5.51752
1245.32	8.73178
1248.12	11.9299
1250.92	23.1858
1253.72	16.2631
1256.51	15.3614
1259.31	22.52
1262.1	31.66
1264.89	51.8861
1267.69	29.7649
1270.48	24.775
1273.27	23.7999
1276.05	27.8492
1278.84	53.9609
1281.63	198.319
1284.41	453.603
1287.2	177.098
1289.98	56.048
1292.76	30.1236
1295.55	30.2285
1298.33	22.352
1301.1	24.4773
1303.88	14.6414
1306.66	17.8234
1309.43	17.0325
1312.21	11.2642
1314.98	10.5036
1317.76	3.70813
1320.53	19.0711
1323.3	12.2828
1326.07	15.5968
1328.84	14.8691
1331.6	9.05914
1334.37	12.3673
1337.13	9.56599
1339.9	10.8285
1342.66	15.1339
1345.42	11.2492
1348.18	13.4954
1350.94	18.8179
1353.7	9.77265
1356.46	23.2931
1359.22	13.1847
1361.97	26.6921
1364.73	25.7955
1367.48	23.8548
1370.23	32.1844
1372.98	20.9869
1375.73	20.0694
1378.48	30.4451
1381.23	33.627
1383.98	104.553
1386.72	576.701
1389.47	584.878
1392.21	133.57
1394.95	41.3703
1397.7	21.0389
1400.44	31.4914
1403.18	24.4752
1405.92	43.1893
1408.65	62.9721
1411.39	57.0192
1414.13	29.3874
1416.86	20.3066
1419.59	17.4095
1422.32	7.26083
1425.06	15.7611
1427.79	10.779
1430.52	12.0282
1433.24	8.0687
1435.97	14.5237
1438.7	2.20397
1441.42	6.567
1444.15	12.0027
1446.87	8.00496
1449.59	6.0775
1452.31	10.4255
1455.03	-3.07596
1457.75	9.64847
1460.47	-1.78358
1463.19	3.57589
1465.9	8.92831
1468.62	-0.421738
1471.33	4.92717
1474.04	3.98046
1476.75	7.24018
1479.46	2.11176
1482.17	8.53063
1484.88	7.60748
1487.59	9.84339
1490.3	9.98692
1493	12.2431
1495.7	8.19519
1498.41	5.19311
1501.11	11.692
1503.81	4.47235
1506.51	5.70346
1509.21	13.3016
1511.91	10.3145
1514.61	0.95504
1517.3	3.27169
1520	6.66586
1522.69	1.52967
1525.39	6.00737
1528.08	7.2771
1530.77	10.7057
1533.46	-0.897251
1536.15	8.98438
1538.83	5.92995
1541.52	9.34708
1544.21	5.17546
1546.89	9.62154
1549.58	9.72132
1552.26	3.31011
1554.94	1.20315
1557.62	3.41103
1560.3	1.31129
1562.98	4.60991
1565.66	3.58809
1568.33	3.64357
1571.01	9.0847
1573.69	11.2912
1576.36	3.81537
1579.03	-1.48437
1581.7	1.82825
1584.38	7.2987
1587.04	13.8513
1589.71	2.10175
1592.38	12.9779
1595.05	9.85718
1597.71	9.97833
1600.38	3.62288
1603.04	5.91235
1605.7	9.29221
1608.37	4.0316
1611.03	3.10371
1613.68	3.27225
1616.34	7.80129
1619	4.72049
1621.66	9.27322
1624.31	9.46225
1626.97	6.35984
1629.62	7.63876
1632.27	8.91613
1634.93	4.66874
1637.58	2.60331
1640.23	6.00806
1642.88	10.5396
1645.52	9.55087
1648.17	7.44496
1650.81	2.00766
1653.46	3.20856
1656.1	8.83372
1658.75	8.91019
1661.39	2.32898
1664.03	11.27
1666.67	2.46143
1669.31	4.7415
1671.94	9.23781
1674.58	4.86099
1677.22	9.34615
1679.85	9.40287
1682.48	6.11486
1685.12	2.82095
1687.75	7.28223
1690.38	-1.54002
1693.01	8.46717
1695.64	6.31025
1698.26	3.06393
1700.89	3.16988
1703.52	4.48959
1706.14	2.43567
1708.77	10.4197
1711.39	5.91954
1714.01	4.85159
1716.63	9.41518
1719.25	8.45762
1721.87	8.55995
1724.49	4.16409
1727.1	10.9935
1729.72	9.98081
1732.34	6.71906
1734.95	12.443
1737.56	3.54315
1740.18	8.14463
1742.79	1.47717
1745.4	8.34139
1748.01	0.521824
1750.61	5.11868
1753.22	2.93011
1755.83	16.5772
1758.43	3.05308
1761.04	7.62912
1763.64	4.28046
1766.24	-1.33182
1768.84	8.91528
1771.44	2.17134
1774.04	4.49274
1776.64	3.42043
1779.24	9.16439
1781.84	10.3801
1784.43	1.37028
1787.02	1.45049
1789.62	3.81951
1792.21	8.47227
1794.8	8.57137
1797.39	2.95865
1799.98	8.78543
1802.57	8.89569
1805.16	-1.3204
1807.75	9.11272
1810.33	3.4539
1812.92	3.54004
1815.5	9.38995
1818.08	1.40578
1820.67	6.10736
1823.25	10.8245
1825.83	10.92
1828.41	7.53864
1830.98	8.79531
1833.56	4.24193
1836.14	7.83039
1838.71	5.58486
1841.29	3.33002
1843.86	6.90267
1846.43	4.63918
1849	5.87468
1851.58	9.45424
1854.14	2.48293
1856.71	4.8902
1859.28	-0.903473
1861.85	3.86132
1864.41	-6.63789
1866.98	2.84015
1869.54	6.44136
1872.1	4.1502
1874.67	10.0997
1877.23	5.44274
1879.79	11.3953
1882.35	10.2726
1884.9	4.41218
1887.46	4.45877
1890.02	-1.42583
1892.57	13.9651
1895.13	4.52727
1897.68	4.55463
1900.23	6.95824
1902.79	3.4695
1905.34	2.35363
1907.89	-1.13696
1910.43	-4.61892
1912.98	1.41512
1915.53	7.47763
1918.07	0.41692
1920.62	0.443661
1923.16	5.28193
1925.71	5.35138
1928.25	5.4208
1930.79	9.0839
1933.33	9.15433
1935.87	6.81921
1938.41	5.67745
1940.94	4.52882
1943.48	2.1717
1946.02	-0.192532
1948.55	-0.153019
1951.08	7.10509
1953.62	9.54367
1956.15	2.34085
1958.68	5.97919
1961.21	10.8217
1963.74	2.40326
1966.27	4.82986
1968.79	8.45148
1971.32	0.0189514
1973.85	0.0203476
1976.37	6.04364
1978.89	4.84089
1981.42	3.63742
1983.94	-2.37624
1986.46	3.64241
1988.98	1.24282
1991.5	6.05914
1994.01	-2.34763
1996.53	2.47275
1999.05	0.0844116
2001.56	8.51824
2004.08	3.73279
2006.59	6.16825
2009.1	6.2001
2011.61	3.8323
2014.12	3.86798
2016.63	-2.11765
2019.14	7.54757
2021.65	1.55557
2024.16	1.59749
2026.66	1.64412
2029.17	6.52543
2031.67	2.96227
2034.17	6.65676
2036.68	0.669518
2039.18	1.94462
2041.68	4.43711
2044.18	0.863724
2046.68	2.14889
2049.17	7.08995
2051.67	5.94686
2054.17	-3.75867
2056.66	2.40652
2059.15	2.47895
2061.65	1.32851
2064.14	-3.49831
2066.63	1.47424
2069.12	3.99802
2071.61	0.383949
2074.1	1.68282
2076.59	7.9061
2079.07	5.51302
2081.56	3.11277
2084.04	10.5794
2086.53	8.16854
2089.01	4.51232
2091.49	0.864361
2093.97	0.930527
2096.46	-3.95352
2098.94	2.32207
2101.41	6.12954
2103.89	1.23969
2106.37	5.06174
2108.84	2.65901
2111.32	1.50216
2113.79	11.6098
2116.26	4.20156
2118.74	6.81315
2121.21	3.14513
2123.68	5.75985
2126.15	5.85866
2128.62	3.42933
2131.09	2.25451
2133.55	2.33908
2136.02	-2.64959
2138.48	5.03784
2140.95	-2.50424
2143.41	5.19825
2145.87	6.54565
2148.33	5.34198
2150.79	-0.971329
2153.25	13.118
2155.71	4.24109
2158.17	4.29176
2160.63	1.78282
2163.08	5.65788
2165.54	3.1378
2167.99	4.44834
2170.45	9.60147
2172.9	5.81331
2175.35	5.86083
2177.8	7.18478
2180.25	2.09587
2182.7	8.52754
2185.15	3.42798
2187.59	0.898125
2190.04	6.05491
2192.49	-0.30468
2194.93	1.01912
2197.38	4.91664
2199.82	6.2603
2202.26	6.32851
2204.7	3.83381
2207.14	3.91003
2209.58	5.27876
2212.02	9.23086
2214.46	6.7447
2216.89	6.84193
2219.33	5.64858
2221.76	9.63078
2224.2	7.14263
2226.63	4.64814
2229.06	8.64441
2231.49	10.0488
2233.92	4.94357
2236.35	6.34678
2238.78	9.05956
2241.21	7.85522
2243.64	4.03188
2246.06	5.44314
2248.49	9.48277
2250.91	13.5315
2253.34	7.06101
2255.76	16.3856
2258.18	12.5475
2260.6	8.69682
2263.02	8.79884
2265.44	10.2178
2267.86	5.00869
2270.27	2.43744
2272.69	6.49398
2275.11	11.8793
2277.52	10.6243
2279.94	9.36208
2282.35	16.0703
2284.76	4.15273
2287.17	13.5114
2289.58	8.24157
2291.99	8.29023
2294.4	13.6619
2296.81	9.72422
2299.21	13.7836
2301.62	9.85581
2304.03	8.59945
2306.43	3.34924
2308.83	8.77673
2311.24	4.86689
2313.64	12.9924
2316.04	5.06939
2318.44	6.52048
2320.84	6.63018
2323.24	8.08342
2325.63	6.85465
2328.03	16.4086
2330.43	15.1897
2332.82	3.15696
2335.21	3.27667
2337.61	15.6065
2340	7.59694
2342.39	2.28912
2344.78	14.686
2347.17	9.38491
2349.56	6.78838
2351.95	4.18464
2354.33	5.68325
2356.72	15.4241
2359.11	7.29446
2361.49	6.01004
2363.87	0.598549
2366.26	2.07891
2368.64	3.56196
2371.02	2.27893
2373.4	5.1468
2375.78	6.63347
2378.16	6.73611
2380.54	6.82549
2382.91	4.13344
2385.29	1.42794
2387.66	4.28387
2390.04	7.13623
2392.41	7.1993
2394.78	4.47834
2397.16	1.74854
2399.53	8.76262
2401.9	3.2518
2404.27	3.30112
2406.64	4.74492
2409	10.3796
2411.37	0.725136
2413.73	0.829208
2416.1	5.16575
2418.46	2.56108
2420.83	4.10698
2423.19	4.20869
2425.55	2.8818
2427.91	2.9932
2430.27	7.33658
2432.63	3.22523
2434.99	1.93494
2437.35	-0.771553
2439.7	7.85645
2442.06	0.886887
2444.41	5.2751
2446.77	3.9791
2449.12	5.53296
2451.47	4.23385
2453.83	4.35836
2456.18	-4.11402
2458.53	3.17484
2460.88	6.17208
2463.22	3.42235
2465.57	3.54431
2467.92	3.6645
2470.26	6.6726
2472.61	8.23877
2474.95	4.01569
2477.3	1.23488
2479.64	4.25518
2481.98	7.27975
2484.32	1.57244
2486.66	7.50665
2489	4.6996
2491.34	6.26649
2493.67	7.83652
2496.01	15.2685
2498.35	8.05951
2500.68	6.70068
2503.02	3.86952
2505.35	3.96922
2507.68	4.06651
2510.01	-1.72434
2512.34	4.2528
2514.67	1.39574
2517	4.43135
2519.33	6.00182
2521.66	6.10171
2523.99	1.76707
2526.31	4.81672
2528.64	0.47327
2530.96	2.0465
2533.28	8.07477
2535.61	0.762527
2537.93	-0.621391
2540.25	8.39992
2542.57	5.53418
2544.89	-1.80637
2547.21	5.75596
2549.53	5.86626
2551.84	13.4518
2554.16	1.59884
2556.47	10.6847
2558.79	3.29441
2561.1	3.40198
2563.42	5.0119
2565.73	6.63254
2568.04	6.74996
2570.35	3.85524
2572.66	2.46207
2574.97	1.06295
2577.27	2.68459
2579.58	7.33584
2581.89	7.44052
2584.19	6.01536
2586.5	4.58662
2588.8	9.22984
2591.1	3.221
2593.41	6.34747
2595.71	9.48217
2598.01	9.58457
2600.31	5.10593
2602.61	6.71999
2604.91	-2.35033
2607.2	5.36602
2609.5	2.39465
2611.8	3.99681
2614.09	5.60287
2616.38	2.62009
2618.68	8.8217
2620.97	4.30682
2623.26	7.45005
2625.55	1.40319
2627.84	3.01863
2630.13	6.18133
2632.42	6.28566
2634.71	4.8564
2637	8.05454
2639.28	6.64225
2641.57	6.76567
2643.85	2.24925
2646.14	5.47288
2648.42	4.04101
2650.7	-0.505932
2652.98	1.16515
2655.26	5.93872
2657.54	6.03344
2659.82	7.68763
2662.1	6.21417
2664.38	3.16943
2666.65	3.24754
2668.93	8.03732
2671.2	3.42804
2673.48	6.672
2675.75	8.36589
2678.02	2.21391
2680.29	5.52888
2682.57	4.09169
2684.84	4.23458
2687.1	7.55972
2689.37	-1.85951
2691.64	9.43871
2693.91	4.77346
2696.17	6.44749
2698.44	4.9424
2700.7	9.85387
2702.97	9.95215
2705.23	5.22246
2707.49	6.92146
2709.76	5.39802
2712.02	0.646004
2714.28	5.57122
2716.53	7.28838
2718.79	5.75894
2721.05	2.61075
2723.31	4.31293
2725.56	4.38848
2727.82	9.33041
2730.07	9.40272
2732.33	2.96998
2734.58	7.91041
2736.83	7.97227
2739.08	9.65803
2741.33	1.59734
2743.58	4.92075
2745.83	8.2524
2748.08	5.07224
2750.33	8.42044
2752.57	2.00064
2754.82	3.72697
2757.06	2.17093
2759.31	10.4436
2761.55	10.5158
2763.79	10.5985
2766.04	5.75402
2768.28	7.48345
2770.52	7.55959
2772.76	9.29316
2775	9.38491
2777.23	9.48369
2779.47	4.61802
2781.71	9.69848
2783.94	4.82675
2786.18	11.5857
2788.41	-1.63179
2790.65	3.46478
2792.88	6.90355
2795.11	1.97938
2797.34	10.4449
2799.57	3.8252
2801.8	7.26717
2804.03	0.618439
2806.26	7.42575
2808.48	7.50094
2810.71	12.6362
2812.94	4.26728
2815.16	2.6386
2817.38	9.4645
2819.61	12.9164
2821.83	4.51646
2824.05	1.19043
2826.27	1.25212
2828.49	8.10462
2830.71	3.06919
2832.93	15.0324
2835.15	8.28812
2837.37	6.64482
2839.58	8.40768
2841.8	5.05622
2844.01	11.9422
2846.23	5.17765
2848.44	6.95001
2850.65	-4.9648
2852.87	7.08985
2855.08	8.88213
2857.29	5.52486
2859.5	3.87711
2861.71	9.11952
2863.91	10.9306
2866.12	7.56821
2868.33	11.1159
2870.53	7.74044
2872.74	7.82462
2874.94	4.43288
2877.15	4.51339
2879.35	8.08423
2881.55	8.1748
2883.75	6.51732
2885.95	10.1155
2888.15	4.93957
2890.35	6.78155
2892.55	5.10296
2894.75	1.65253
2896.94	7.04005
2899.14	10.6757
2901.33	7.21976
2903.53	17.9664
2905.72	5.59474
2907.91	3.88408
2910.11	14.6672
2912.3	9.37247
2914.49	11.2242
2916.68	5.91023
2918.87	9.55922
2921.05	11.4212
2923.24	9.69075
2925.43	9.76159
2927.61	6.2276
2929.8	6.29575
2931.99	9.98323
2934.17	11.8596
2936.35	8.2949
2938.53	1.08516
2940.72	4.75953
2942.9	4.80507
2945.08	10.3069
2947.26	6.70146
2949.44	8.56086
2951.61	8.60009
2953.79	8.63777
2955.97	8.67462
2958.14	5.05447
2960.32	10.576
2962.49	10.6155
2964.66	6.99132
2966.84	10.6985
2969.01	7.07194
2971.18	8.94998
2973.35	5.31581
2975.52	7.19569
2977.69	5.39413
2979.86	7.2765
2982.03	12.8582
2984.19	9.21784
2986.36	9.27101
2988.52	16.7379
2990.69	5.67371
2992.85	9.44452
2995.01	7.64124
2997.18	5.83738
2999.34	0.296988
3001.5	9.69403
3003.66	6.01779
3005.82	9.83222
3007.98	6.14252
3010.14	11.848
3012.29	8.13938
3014.45	10.0918
3016.6	12.0532
3018.76	6.44627
3020.91	14.1035
3023.07	10.3743
3025.22	10.4343
3027.37	10.487
3029.52	6.71843
3031.67	10.5833
3033.82	8.71014
3035.97	2.99737
3038.12	8.77008
3040.27	10.7321
3042.41	6.92615
3044.56	5.03206
3046.71	5.05762
3048.85	10.8608
3051	7.03399
3053.14	10.9179
3055.28	9.01839
3057.42	14.8472
3059.56	11.0104
3061.7	11.0392
3063.84	20.7583
3065.98	18.856
3068.12	13.0661
3070.26	5.32281
3072.39	13.125
3074.53	1.47582
3076.67	11.2388
3078.8	11.2686
3080.93	11.2974
3083.07	7.41822
3085.2	5.4949
3087.33	9.44317
3089.46	19.2914
3091.59	13.4606
3093.72	9.58326
3095.85	9.63852
3097.98	11.6661
3100.11	13.6994
3102.23	7.82319
3104.36	9.86382
3106.48	13.9017
3108.61	17.9554
3110.73	6.06964
3112.85	14.1261
3114.98	20.207
3117.1	12.2682
3119.22	10.3288
3121.34	14.4318
3123.46	8.45734
3125.58	20.6719
3127.7	10.6341
3129.81	20.8834
3131.93	14.8836
3134.05	8.85145
3136.16	13.029
3138.27	15.1705
3140.39	11.1441
3142.5	11.2201
3144.61	15.4239
3146.73	15.5005
3148.84	19.7249
3150.95	11.4869
3153.06	15.6983
3155.16	9.50091
3157.27	11.6316
3159.38	7.49769
3161.49	18.0066
3163.59	13.871
3165.7	11.8168
3167.8	13.9589
3169.91	11.8931
3172.01	14.0517
3174.11	14.0919
3176.21	20.4591
3178.31	14.1441
3180.41	12.0467
3182.51	22.6498
3184.61	16.3107
3186.71	24.8053
3188.81	12.0807
3190.9	22.7105
3193	7.86627
3195.1	16.39
3197.19	12.1698
3199.28	14.3482
3201.38	22.9622
3203.47	14.4802
3205.56	23.1224
3207.65	8.18054
3209.74	21.1565
3211.83	14.7771
3213.92	21.3417
3216.01	12.7783
3218.1	17.1963
3220.18	15.1009
3222.27	19.5367
3224.36	17.4381
3226.44	17.522
3228.52	15.4105
3230.61	22.0733
3232.69	17.7622
3234.77	13.4215
3236.85	17.9014
3238.93	17.979
3241.01	13.6298
3243.09	7.04108
3245.17	16.024
3247.25	9.40287
3249.33	7.23088
3251.4	11.7472
3253.48	14.0357
3255.55	16.316
3257.63	23.0959
3259.7	11.92
3261.77	23.2481
3263.85	16.5579
3265.92	21.1701
3267.99	9.97663
3270.06	10.0159
3272.13	19.2333
3274.2	14.7267
3276.26	7.8993
3278.33	14.7904
3280.4	7.95499
3282.47	17.1495
3284.53	8.00956
3286.59	5.74004
3288.66	12.6601
3290.72	8.08778
3292.79	15.02
3294.85	8.13357
3296.91	10.4626
3298.97	8.18056
3301.03	12.8392
3303.09	8.24083
3305.15	3.6373
3307.2	10.6166
3309.26	10.6457
3311.32	12.9952
3313.37	10.6966
3315.43	10.7283
3317.48	6.09738
3319.54	6.12761
3321.59	6.1587
3323.64	15.545
3325.69	-0.78396
3327.74	10.9643
3329.79	6.32038
3331.84	11.0801
3333.89	8.79758
3335.94	11.2196
3337.99	6.56371
3340.04	13.704
3342.08	-0.460648
3344.13	9.04826
3346.17	9.08379
3348.22	13.8563
3350.26	13.8954
3352.3	35.3446
3354.34	9.19958
3356.39	9.242
3358.43	9.2836
3360.47	4.54565
3362.51	18.9387
3364.54	7.01421
3366.58	16.6403
3368.62	9.48895
3370.66	14.3361
3372.69	11.9721
3374.73	16.821
3376.76	12.038
3378.8	14.4775
3380.83	16.9202
3382.86	14.5373
3384.89	14.5658
3386.93	9.75999
3388.96	17.0377
3390.99	12.224
3393.02	12.2473
3395.04	14.6988
3397.07	19.5823
3399.1	14.7707
3401.13	17.2297
3403.15	14.826
3405.18	17.2787
3407.2	14.8748
3409.23	5.17136
3411.25	10.0523
3413.27	14.9398
3415.29	17.3961
3417.31	14.9847
3419.34	17.4434
3421.36	12.5899
3423.37	7.73222
3425.39	24.8268
3427.41	34.6222
3429.43	10.2464
3431.44	7.83545
3433.46	7.86877
3435.48	20.1403
3437.49	15.2929
3439.5	12.8916
3441.52	10.4864
3443.53	10.5366
3445.54	13.053
3447.55	3.27327
3449.56	13.1856
3451.57	8.31552
3453.58	10.8533
3455.59	15.8789
3457.6	11.0116
3459.61	8.61321
3461.61	8.69564
3463.62	8.77893
3465.63	3.86926
3467.63	3.94472
3469.63	9.02828
3471.64	14.1274
3473.64	11.678
3475.64	11.7585
3477.64	1.75857
3479.64	9.39479
3481.64	1.88771
3483.64	7.01358
3485.64	14.6883
3487.64	2.07627
3489.64	9.7632
3491.63	7.29004
3493.63	12.4539
3495.63	15.0734
3497.62	17.6967
3499.62	7.53662
3501.61	5.03194
3503.6	10.2025
3505.59	10.2553
3507.59	17.9965
3509.58	7.76946
3511.57	15.503
3513.56	2.69452
3515.55	13.0003
3517.53	7.89179
3519.52	7.92207
3521.51	15.6661
3523.49	7.983
3525.48	8.01767
3527.47	10.6278
3529.45	8.08041
3531.43	8.12267
3533.42	8.17605
3535.4	3.07342
3537.38	5.71705
3539.36	8.37181
3541.34	3.25509
3543.32	13.6767
3545.3	13.7367
3547.28	6.00576
3549.26	6.05379
3551.24	11.2943
3553.21	3.51745
3555.19	0.952789
3557.16	8.79641
3559.14	8.84238
3561.11	1.07692
3563.09	6.33739
3565.06	19.4358
3567.03	9.06209
3569	9.13569
3570.97	11.8154
3572.94	22.3629
3574.91	25.0701
3576.88	12.0326
3578.85	17.3738
3580.82	17.467
3582.78	22.8381
3584.75	22.9431
3586.72	28.3377
3588.68	23.1507
3590.65	20.6008
3592.61	31.3269
3594.57	26.1201
3596.54	23.563
3598.5	18.3263
3600.46	23.755
3602.42	23.849
3604.38	10.55
3606.34	10.6217
3608.3	5.32233
3610.26	5.38264
3612.21	13.512
3614.17	13.5854
3616.13	8.25907
3618.08	5.6237
3620.04	2.97702
3621.99	0.318136
3623.94	3.05509
3625.9	8.49568
3627.85	11.2359
3629.8	5.86023
3631.75	3.18222
3633.7	8.62386
3635.65	5.95256
3637.6	11.4084
3639.55	0.618778
3641.5	3.38048
3643.44	3.4352
3645.39	6.20792
3647.34	3.5544
3649.28	6.29856
3651.23	-1.82795
3653.17	11.8305
3655.12	6.41848
3657.06	3.72882
3659	9.21911
3660.94	6.52592
3662.88	3.82709
3664.82	12.0539
3666.76	3.89669
3668.7	12.1354
3670.64	6.70222
3672.58	6.7375
3674.52	9.51964
3676.45	9.56828
3678.39	1.39121
3680.32	1.43928
3682.26	9.73899
3684.19	4.29852
3686.13	4.36108
3688.06	4.42284
3689.99	4.48482
3691.92	10.0845
3693.85	1.83257
3695.78	-0.893566
3697.71	10.2752
3699.64	13.1221
3701.57	7.61859
3703.5	10.4619
3705.43	2.14611
3707.35	13.3911
3709.28	13.4591
3711.2	5.1084
3713.13	2.35312
3715.05	5.21023
3716.98	-0.377203
3718.9	5.29609
3720.82	10.9789
3722.74	5.37229
3724.66	5.40613
3726.59	8.2666
3728.5	-0.195118
3730.42	5.49944
3732.34	11.2076
3734.26	5.56516
3736.18	2.75393
3738.09	5.62539
3740.01	2.80427
3741.93	8.52518
3743.84	-0.00655937
3745.75	5.71792
3747.67	2.87849
3749.58	17.1816
3751.49	2.89828
3753.41	8.62549
3755.32	2.90446
3757.23	11.4923
3759.14	5.76183
3761.05	5.75517
3762.96	2.88223
3764.86	0.00559044
3766.77	5.72772
3768.68	14.3237
3770.58	5.71462
3772.49	5.70913
3774.4	5.7018
3776.3	5.69322
3778.2	11.435
3780.11	5.68213
3782.01	20.069
3783.91	5.67921
3785.81	-0.0874672
3787.71	5.6722
3789.61	2.77671
3791.51	2.76536
3793.41	11.4292
3795.31	2.75085
3797.21	20.124
3799.1	5.63899
3801	11.4404
3802.9	-0.178717
3804.79	5.62888
3806.69	2.71386
3808.58	5.62134
3810.48	8.53156
3812.37	-0.242786
3814.26	-0.263206
3816.15	5.56904
3818.04	8.48132
3819.93	5.52974
3821.82	-0.36636
3823.71	5.47725
3825.6	8.38366
3827.49	-0.475655
3829.38	5.37745
3831.26	11.2431
3833.15	2.36285
3835.04	2.32402
3836.92	11.1503
3838.8	2.23536
3840.69	5.15095
3842.57	2.15147
3844.46	8.02965
3846.34	10.9371
3848.22	4.92823
3850.1	1.88744
3851.98	4.78399
3853.86	7.67358
3855.74	4.62229
3857.62	10.477
3859.49	1.46385
3861.37	7.31825
3863.25	1.2822
3865.12	10.1353
3867	7.10036
3868.87	4.06707
3870.75	-1.97553
3872.62	0.906403
3874.5	6.78032
3876.37	-2.28506
3878.24	0.598099
3880.11	3.48148
3881.98	9.35682
3883.85	0.274689
3885.72	0.16547
3887.59	3.05062
3889.46	-0.055851
3891.33	2.83111
3893.19	-0.276001
3895.06	-0.376648
3896.93	2.51797
3898.79	2.40538
3900.66	2.29173
3902.52	-0.838459
3904.38	2.05132
3906.25	4.94658
3908.11	10.857
3909.97	-4.37215
3911.83	4.57002
3913.69	-7.66487
3915.55	-4.77246
3917.41	-1.87411
3919.27	-2.00473
3921.13	-5.17313
3922.99	3.82206
3924.84	-5.44914
3926.7	6.60769
3928.56	3.41753
3930.41	-2.83965
3932.27	-2.99695
3934.12	-6.22427
3935.97	-0.266579
3937.83	-0.437534
3939.68	-9.81048
3941.53	-13.0576
3943.38	-7.08458
3945.23	1.9708
3947.08	-4.36228
3948.93	-4.54523
3950.78	-4.73559
3952.63	-4.93068
3954.48	-8.22112
3956.33	-2.24207
3958.17	-5.54499
3960.02	3.52145
3961.86	-5.98546
3963.71	-12.4057
3965.55	-0.245968
3967.4	-6.68107
3969.24	-3.82733
3971.08	-0.973831
3972.92	-13.6224
3974.77	-7.67362
3976.6	-4.82823
3978.45	-8.19058
3980.29	-5.35726
3982.12	-8.73277
3983.96	-9.00889
3985.8	-6.18588
3987.64	-12.6716
3989.47	-3.65237
3991.31	-10.138
3993.15	-10.4212
3994.98	-7.60217
3996.82	-10.9882
3998.65	-11.2729
