#Acq. time (s)=	60
#Accumulations=	4
#Range (cm-¹)=	100...4000
#Windows=	1
#Auto scanning=	Off
#Autofocus=	Off
#Macrospot=	Off
#AutoExposure=	Off
#Spike filter=	Multiple accum.
#Delay time (s)=	2
#Binning=	1
#Readout mode=	Signal
#DeNoise=	Off
#ICS correction=	On
#Dark correction=	Off
#Inst. Process=	Off
#Detector Gain=	Best Dynamic
#Detector ADC=	50 kHz HS
#Detector temperature (°C)=	-60.09
#Instrument=	LabRAM HR Evol
#Detector=	SIN-EM FIVIS
#Objective=	x100_VIS_LWD
#Grating=	150 (500nm)
#ND Filter=	100%
#Laser=	633nm_Edge
#Hole=	30.0125
#Temperature=	39.9
#Range=	Visible
#StageXY=	75x50mm Scan+
#StageZ=	Z motor
#X (µm)=	0
#Y (µm)=	0
#Z (µm)=	470.9
#Full time(mm:ss)=	4:05
#Project=	21_08_11
#Sample=	BU20
#Site=	
#Title=	BU20-B-FF4-FI02-L_150 (500nm)_633nm_Edge_100%_x100_VIS_LWD_H30um_60sX4
#Remark=	
#Date=	13.08.2021 11:55
#Acquired=	13.08.2021 11:55:24
#Data Range:Extract=	16.12.2021 15:36:30
#Base:Fit=	16.12.2021 15:36:40
#Base:Edit=	16.12.2021 15:52:24
#Base:Edit=	16.12.2021 15:52:25
#Base:Edit=	16.12.2021 15:52:26
#Base:Edit=	16.12.2021 15:52:27
#Base:Sub=	16.12.2021 15:52:30
100.12	264.718
103.379	235.711
106.638	220.762
109.896	196.957
113.152	197.026
116.407	192.346
119.66	161.518
122.912	161.961
126.162	143.91
129.412	149.816
132.659	116.472
135.906	125.559
139.151	114.849
142.396	118.22
145.637	105.058
148.878	113.279
152.118	94.4338
155.356	76.2733
158.594	63.8632
161.829	53.7173
165.064	58.2793
168.297	71.1467
171.529	62.9249
174.759	48.9361
177.989	38.7634
181.216	37.8571
184.441	38.8262
187.667	31.1817
190.89	31.81
194.114	30.5543
197.334	22.9664
200.553	14.4973
203.772	12.4937
206.989	12.3781
210.205	17.3525
213.419	1.03212
216.631	-0.00482178
219.844	2.77243
223.054	5.54869
226.262	11.4768
229.471	17.3453
232.677	41.9628
235.881	86.8639
239.086	129.205
242.288	168.667
245.488	131.619
248.689	83.1316
251.887	56.8099
255.083	42.5212
258.28	47.2488
261.474	44.0769
264.667	57.0407
267.858	61.4788
271.05	79.2101
274.238	93.788
277.426	110.904
280.613	154.543
283.798	219.633
286.982	248.975
290.164	259.941
293.346	210.239
296.526	154.279
299.704	95.5268
302.881	55.7329
306.058	38.3423
309.233	23.8104
312.406	31.3337
315.577	19.3401
318.749	26.5475
321.918	33.7842
325.086	76.2447
328.253	135.351
331.418	201.389
334.584	199.171
337.746	129.042
340.908	85.6451
344.068	54.5065
347.227	28.3796
350.384	23.9454
353.542	26.394
356.697	38.2447
359.851	46.6215
363.003	52.4714
366.154	74.2915
369.304	90.1367
372.452	95.0052
375.601	75.1253
378.747	59.6555
381.892	41.691
385.035	27.5329
388.177	13.1132
391.318	14.3463
394.457	5.90017
397.596	3.09269
400.733	8.7907
403.868	0.0181427
407.004	4.11215
410.137	6.62623
413.269	8.80078
416.4	13.7742
419.529	13.4144
422.657	24.6614
425.784	29.85
428.91	36.7953
432.034	55.6644
435.157	81.0795
438.279	110.499
441.399	124.479
444.518	140.591
447.636	144.429
450.753	139.174
453.868	134.894
456.982	125.357
460.095	118.376
463.207	108.663
466.317	95.2893
469.426	67.0056
472.534	53.9906
475.64	39.1432
478.746	30.2067
481.85	29.32
484.952	21.9034
488.054	25.6602
491.154	18.2327
494.253	23.8516
497.351	18.8903
500.447	15.4842
503.541	23.2715
506.635	18.3034
509.728	16.4412
512.819	21.4251
515.91	18.3157
518.999	25.1841
522.086	17.7379
525.173	19.9501
528.258	19.9892
531.342	15.0343
534.423	21.6584
537.505	12.9258
540.585	19.8341
543.664	20.45
546.742	16.0047
549.819	18.1068
552.894	16.452
555.966	19.1786
559.039	24.0551
562.111	21.9529
565.181	22.9802
568.25	23.028
571.317	17.7177
574.383	23.9809
577.449	17.7011
580.513	22.9889
583.576	17.6892
586.636	25.1632
589.697	31.7083
592.756	39.8323
595.814	60.3722
598.871	77.8486
601.925	129.276
604.979	165.578
608.032	148.727
611.084	112.889
614.133	99.1244
617.183	90.6971
620.231	98.7977
623.277	94.4256
626.322	94.7616
629.367	110.369
632.41	113.982
635.451	117.194
638.492	110.892
641.532	100.134
644.569	85.534
647.606	86.3806
650.642	83.7523
653.675	89.8309
656.709	99.9358
659.741	115.005
662.771	117.554
665.801	129.77
668.829	114.275
671.856	94.8753
674.882	74.6886
677.907	56.934
680.929	42.285
683.952	35.7566
686.972	28.2982
689.992	19.926
693.011	19.0294
696.028	20.0004
699.045	13.4666
702.059	12.2275
705.073	12.8549
708.086	8.76563
711.096	8.40987
714.107	7.97858
717.115	7.56763
720.123	6.51456
723.129	6.1023
726.135	8.15835
729.139	3.62857
732.141	8.47238
735.143	4.25521
738.143	7.83593
741.143	3.93549
744.14	7.8228
747.138	5.49208
750.133	3.78527
753.128	9.25056
756.12	5.06925
759.113	4.65942
762.103	2.7188
765.093	2.35135
768.081	7.29391
771.069	7.87362
774.054	3.13845
777.04	-0.0579453
780.023	4.24783
783.005	5.7212
785.987	4.04356
788.966	4.55589
791.946	5.05777
794.923	4.2884
797.9	5.70638
800.875	3.01846
803.848	8.80514
806.822	1.38587
809.793	5.89896
812.765	1.92024
815.733	8.27753
818.701	6.16363
821.669	7.48843
824.634	5.05891
827.6	5.75035
830.563	8.32906
833.525	5.96433
836.487	8.5978
839.446	11.882
842.404	9.90121
845.363	11.3296
848.319	9.64775
851.273	10.784
854.228	10.0472
857.181	8.37167
860.132	10.1489
863.083	8.78523
866.032	8.04626
868.98	13.9253
871.927	10.3285
874.874	17.7605
877.818	19.4939
880.761	20.9072
883.704	20.7267
886.645	16.7347
889.585	20.6378
892.523	21.3665
895.462	18.2942
898.398	18.0399
901.333	16.4992
904.267	14.01
907.2	15.9318
910.133	10.6109
913.063	16.6071
915.992	10.0506
918.92	15.1301
921.849	15.2047
924.774	20.3176
927.699	16.9886
930.622	25.9185
933.545	23.2429
936.466	30.6608
939.387	39.0778
942.306	47.8473
945.224	50.6532
948.141	63.2935
951.056	76.6114
953.97	87.7416
956.884	110.658
959.797	115.134
962.708	116.729
965.617	121.467
968.526	127.496
971.434	129.321
974.34	136.543
977.245	171.211
980.149	183.051
983.052	219.767
985.955	255.438
988.856	321.67
991.755	363.853
994.654	406.573
997.551	375.101
1000.45	332.916
1003.34	277.159
1006.24	247.586
1009.13	234.622
1012.02	229.767
1014.91	225.869
1017.8	234.993
1020.69	262.949
1023.57	292.654
1026.46	336.221
1029.35	364.588
1032.23	374.814
1035.11	313.068
1037.99	242.827
1040.87	187.143
1043.75	135.786
1046.63	122.318
1049.51	106.812
1052.38	94.4752
1055.26	78.2149
1058.13	81.6415
1061	69.821
1063.88	61.5274
1066.74	64.5119
1069.61	61.6839
1072.48	58.5303
1075.35	55.3661
1078.21	73.8609
1081.08	77.784
1083.94	104.001
1086.8	113.399
1089.67	109.264
1092.53	100.599
1095.38	102.919
1098.24	121.999
1101.1	139.142
1103.95	157.918
1106.81	142.958
1109.66	106.926
1112.51	80.0252
1115.36	60.2753
1118.22	48.2433
1121.06	46.8439
1123.91	39.8992
1126.76	35.2107
1129.6	29.2274
1132.45	27.1338
1135.29	36.4622
1138.13	42.2098
1140.98	51.5835
1143.81	59.6406
1146.65	66.3623
1149.49	63.6027
1152.33	74.2552
1155.16	90.1282
1158	110.554
1160.83	110.918
1163.66	78.0984
1166.49	51.5746
1169.32	34.2574
1172.15	29.0607
1174.98	26.156
1177.81	23.2531
1180.63	24.6067
1183.46	21.0844
1186.28	18.2461
1189.1	20.304
1191.93	13.9021
1194.75	10.1305
1197.56	10.9168
1200.38	7.81331
1203.2	13.2198
1206.02	5.55091
1208.83	6.06679
1211.64	8.22295
1214.46	4.47261
1217.27	9.29272
1220.08	5.20609
1222.89	6.07718
1225.69	4.29149
1228.5	4.49356
1231.31	2.6843
1234.11	3.20089
1236.92	5.72335
1239.72	0.183758
1242.52	6.71526
1245.32	7.86508
1248.12	6.98431
1250.92	5.41478
1253.72	1.15096
1256.51	6.97078
1259.31	9.07436
1262.1	5.77923
1264.89	5.18061
1267.69	7.94313
1270.48	12.0355
1273.27	11.0813
1276.05	4.76948
1278.84	8.50413
1281.63	7.88866
1284.41	9.28455
1287.2	7.34835
1289.98	7.08758
1292.76	10.4995
1295.55	6.59218
1298.33	8.02148
1301.1	9.12124
1303.88	5.23965
1306.66	8.03483
1309.43	9.84726
1312.21	3.66185
1314.98	3.82055
1317.76	4.65252
1320.53	2.13152
1323.3	7.34645
1326.07	5.16706
1328.84	0.275146
1331.6	4.84488
1334.37	5.68994
1337.13	3.47694
1339.9	0.56979
1342.66	3.77547
1345.42	1.86502
1348.18	6.0934
1350.94	2.12412
1353.7	7.03757
1356.46	3.05091
1359.22	0.0810204
1361.97	6.00945
1364.73	3.70876
1367.48	4.14161
1370.23	6.62677
1372.98	9.45121
1375.73	7.14077
1378.48	14.0718
1381.23	13.8114
1383.98	21.4197
1386.72	16.0251
1389.47	9.26485
1392.21	7.64669
1394.95	9.45534
1397.7	3.41921
1400.44	5.24515
1403.18	4.67425
1405.92	6.16392
1408.65	1.82046
1411.39	2.62706
1414.13	4.47022
1416.86	2.53133
1419.59	1.96578
1422.32	5.19942
1425.06	3.25741
1427.79	-0.0761051
1430.52	-0.296814
1433.24	3.9909
1435.97	2.38118
1438.7	1.46208
1441.42	2.62632
1444.15	6.2426
1446.87	2.52477
1449.59	2.2851
1452.31	3.43533
1455.03	3.18233
1457.75	1.87117
1460.47	3.35515
1463.19	3.7841
1465.9	4.2093
1468.62	0.0830765
1471.33	2.95609
1474.04	4.08052
1476.75	1.01046
1479.46	3.54324
1482.17	5.37601
1484.88	-0.489685
1487.59	3.80166
1490.3	2.49316
1493	1.8879
1495.7	4.44621
1498.41	4.19717
1501.11	1.13824
1503.81	2.29866
1506.51	2.75919
1509.21	2.87217
1511.91	3.69209
1514.61	2.04023
1517.3	3.22131
1520	5.82918
1522.69	4.17458
1525.39	1.80505
1528.08	2.99274
1530.77	6.69229
1533.46	2.88355
1536.15	3.36057
1538.83	5.62504
1541.52	3.57484
1544.21	4.38855
1546.89	3.0243
1549.58	4.89393
1552.26	6.03142
1554.94	5.7125
1557.62	4.30863
1560.3	7.23214
1562.98	7.99497
1565.66	6.95753
1568.33	6.2793
1571.01	5.95998
1573.69	4.56479
1576.36	7.12137
1579.03	7.17701
1581.7	3.64479
1584.38	11.2389
1587.04	10.941
1589.71	7.77343
1592.38	8.91758
1595.05	8.26983
1597.71	11.222
1600.38	10.9398
1603.04	4.9019
1605.7	10.3912
1608.37	12.6528
1611.03	12.3962
1613.68	11.4236
1616.34	9.00093
1619	10.5704
1621.66	12.5087
1624.31	8.97967
1626.97	8.72566
1629.62	13.2305
1632.27	12.9781
1634.93	11.6115
1637.58	15.3829
1640.23	12.8677
1642.88	15.8866
1645.52	14.4878
1648.17	12.7121
1650.81	14.9902
1653.46	10.2509
1656.1	15.1065
1658.75	14.4157
1661.39	10.395
1664.03	14.5045
1666.67	11.9561
1669.31	10.8854
1671.94	14.2494
1674.58	10.9586
1677.22	6.92256
1679.85	6.58742
1682.48	9.19822
1685.12	9.95507
1687.75	7.38844
1690.38	6.30282
1693.01	8.91204
1695.64	6.73179
1698.26	8.62131
1700.89	7.94632
1703.52	5.84814
1706.14	7.80334
1708.77	4.55439
1711.39	6.02649
1714.01	7.91166
1716.63	4.24955
1719.25	5.82179
1721.87	3.6387
1724.49	2.5626
1727.1	7.84808
1729.72	4.16664
1732.34	3.09817
1734.95	4.27469
1737.56	6.95234
1740.18	5.87944
1742.79	4.42777
1745.4	7.48792
1748.01	4.89928
1750.61	4.94062
1753.22	3.47115
1755.83	6.52394
1758.43	0.516218
1761.04	-0.214788
1763.64	4.33792
1766.24	2.85336
1768.84	3.25707
1771.44	1.77281
1774.04	2.17717
1776.64	0.316725
1779.24	2.61903
1781.84	5.30596
1784.43	1.55716
1787.02	1.97528
1789.62	2.39959
1792.21	6.62445
1794.8	8.95718
1797.39	2.53441
1799.98	4.49244
1802.57	4.16246
1805.16	7.27553
1807.75	6.94459
1810.33	2.00525
1812.92	7.03516
1815.5	4.38996
1818.08	4.43295
1820.67	5.24307
1823.25	5.2866
1825.83	3.39989
1828.41	4.98679
1830.98	4.64461
1833.56	3.13801
1836.14	2.40731
1838.71	4.38407
1841.29	5.19615
1843.86	2.507
1846.43	4.09425
1849	6.85082
1851.58	2.59395
1854.14	4.95368
1856.71	5.37347
1859.28	4.62225
1861.85	2.30947
1864.41	1.94803
1866.98	3.15862
1869.54	3.58099
1872.1	2.82166
1874.67	4.02205
1877.23	2.8655
1879.79	1.70416
1882.35	1.72364
1884.9	0.950808
1887.46	2.14824
1890.02	5.30679
1892.57	7.67493
1895.13	3.73676
1897.68	2.56056
1900.23	4.9375
1902.79	2.19967
1905.34	3.80632
1907.89	4.62511
1910.43	5.4558
1912.98	3.91616
1915.53	0.38998
1918.07	4.40392
1920.62	3.61363
1923.16	4.83204
1925.71	5.65699
1928.25	3.29136
1930.79	2.51811
1933.33	4.5408
1935.87	0.162863
1938.41	6.98758
1940.94	4.60333
1943.48	0.20895
1946.02	3.83034
1948.55	2.23672
1951.08	2.64474
1953.62	6.66476
1956.15	5.06178
1958.68	5.4653
1961.21	7.47476
1963.74	4.25961
1966.27	5.46241
1968.79	2.6426
1971.32	5.0423
1973.85	5.4322
1976.37	1.80906
1978.89	5.00895
1981.42	2.59029
1983.94	7.39209
1986.46	2.16906
1988.98	3.36295
1991.5	3.75528
1994.01	4.95011
1996.53	4.14261
1999.05	4.13885
2001.56	1.33151
2004.08	4.93826
2006.59	4.54128
2009.1	2.54048
2011.61	2.54781
2014.12	1.34961
2016.63	0.954168
2019.14	2.96354
2021.65	3.36971
2024.16	4.18348
2026.66	4.59855
2029.17	5.01675
2031.67	5.03684
2034.17	4.25371
2036.68	3.06448
2039.18	5.50993
2041.68	1.89465
2044.18	6.77464
2046.68	3.15555
2049.17	3.99233
2051.67	0.767879
2054.17	5.65468
2056.66	8.12155
2059.15	7.74481
2061.65	8.99837
2064.14	3.7233
2066.63	4.97634
2069.12	5.00172
2071.61	3.38895
2074.1	2.59311
2076.59	3.02508
2079.07	6.33255
2081.56	6.35526
2084.04	2.25969
2086.53	4.74415
2089.01	8.46478
2091.49	3.12647
2093.97	3.14795
2096.46	-0.9583
2098.94	4.44207
2101.41	4.88556
2103.89	4.08776
2106.37	2.87407
2108.84	6.64972
2111.32	4.60688
2113.79	8.81805
2116.26	8.02885
2118.74	5.14489
2121.21	2.25131
2123.68	4.38457
2126.15	6.52321
2128.62	2.77332
2131.09	4.49068
2133.55	2.83422
2136.02	3.707
2138.48	2.88831
2140.95	3.3371
2143.41	2.93884
2145.87	7.20429
2148.33	4.25446
2150.79	5.12071
2153.25	8.53832
2155.71	2.59569
2158.17	1.7537
2160.63	0.90872
2163.08	3.89492
2165.54	4.74906
2167.99	1.76563
2170.45	3.89916
2172.9	2.20137
2175.35	3.91452
2177.8	2.63984
2180.25	7.33269
2182.7	4.77044
2185.15	4.33652
2187.59	4.33437
2190.04	1.34826
2192.49	2.20597
2194.93	4.34569
2197.38	5.63842
2199.82	4.3717
2202.26	5.24527
2204.7	0.129913
2207.14	1.43505
2209.58	1.88773
2212.02	5.77849
2214.46	8.38865
2216.89	1.97117
2219.33	4.58802
2221.76	1.6028
2224.2	6.38632
2226.63	2.53051
2229.06	3.42934
2231.49	6.49882
2233.92	2.19432
2236.35	2.66128
2238.78	3.12942
2241.21	0.982952
2243.64	1.45081
2246.06	1.48318
2248.49	1.07779
2250.91	3.7375
2253.34	4.64823
2255.76	5.12244
2258.18	2.08273
2260.6	3.43702
2263.02	0.38356
2265.44	2.61551
2267.86	0.873968
2270.27	2.2211
2272.69	1.35596
2275.11	4.91402
2277.52	-0.383907
2279.94	3.61616
2282.35	3.18241
2284.76	1.41491
2287.17	0.531359
2289.58	0.536314
2291.99	4.97544
2294.4	0.543657
2296.81	2.76828
2299.21	4.55535
2301.62	3.68068
2304.03	1.92139
2306.43	4.16629
2308.83	1.96763
2311.24	7.78764
2313.64	1.13373
2316.04	1.61234
2318.44	2.09466
2320.84	3.47242
2323.24	3.05998
2325.63	3.99665
2328.03	4.93571
2330.43	2.27793
2332.82	5.4754
2335.21	0.557222
2337.61	3.7633
2340	2.90385
2342.39	5.67385
2344.78	3.91005
2347.17	1.69061
2349.56	-0.999086
2351.95	4.98307
2354.33	2.28658
2356.72	5.99165
2359.11	2.82297
2361.49	6.06289
2363.87	2.42111
2366.26	-0.308048
2368.64	0.642303
2371.02	2.05479
2373.4	2.08424
2375.78	2.57553
2378.16	0.292654
2380.54	2.1655
2382.91	1.72361
2385.29	2.20233
2387.66	4.53602
2390.04	5.01264
2392.41	1.31002
2394.78	7.34939
2397.16	5.96043
2399.53	2.25211
2401.9	2.25649
2404.27	6.43162
2406.64	0.402685
2409	0.876143
2411.37	4.61359
2413.73	-0.463923
2416.1	2.38307
2418.46	2.46657
2420.83	-1.22387
2423.19	0.207769
2425.55	3.03595
2427.91	0.256453
2430.27	3.11056
2432.63	1.26873
2434.99	-0.10417
2437.35	1.35275
2439.7	2.81285
2442.06	0.962896
2444.41	5.27078
2446.77	0.0955124
2449.12	0.611351
2451.47	1.12868
2453.83	3.07648
2456.18	2.16415
2458.53	2.20657
2460.88	3.68514
2463.22	2.77001
2465.57	3.77211
2467.92	3.81356
2470.26	2.89025
2472.61	4.37434
2474.95	2.48281
2477.3	3.00563
2479.64	5.46552
2481.98	0.173023
2484.32	2.63171
2486.66	3.14854
2489	3.18048
2491.34	2.23767
2493.67	2.26761
2496.01	16.448
2498.35	3.79441
2500.68	2.35801
2503.02	1.40703
2505.35	1.92209
2507.68	-0.0139446
2510.01	2.45945
2512.34	4.44374
2514.67	3.48253
2517	3.50252
2519.33	2.051
2521.66	-0.877403
2523.99	2.59192
2526.31	6.55753
2528.64	5.59734
2530.96	4.14142
2533.28	3.18089
2535.61	0.241491
2537.93	2.74314
2540.25	2.77269
2542.57	1.31428
2544.89	5.31567
2547.21	-1.11151
2549.53	2.89705
2551.84	7.9116
2554.16	3.95758
2556.47	2.98677
2558.79	3.01224
2561.1	2.54321
2563.42	4.57695
2565.73	-0.901196
2568.04	1.13701
2570.35	0.166355
2572.66	6.74324
2574.97	2.75119
2577.27	5.81155
2579.58	2.30831
2581.89	2.3343
2584.19	1.84735
2586.5	6.92814
2588.8	2.89271
2591.1	3.40572
2593.41	0.380043
2595.71	0.396893
2598.01	4.48075
2600.31	3.99311
2602.61	5.53689
2604.91	5.55479
2607.2	5.57144
2609.5	5.07864
2611.8	0.502344
2614.09	2.55066
2616.38	1.03062
2618.68	1.55247
2620.97	2.58278
2623.26	4.12647
2625.55	0.564598
2627.84	3.64505
2630.13	3.66718
2632.42	0.109791
2634.71	5.77705
2637	2.2229
2639.28	4.83544
2641.57	4.87716
2643.85	1.82568
2646.14	2.90056
2648.42	3.97435
2650.7	2.45934
2652.98	1.97921
2655.26	-0.0758801
2657.54	4.62504
2659.82	-1.08146
2662.1	2.5805
2664.38	4.68028
2666.65	6.25817
2668.93	5.23687
2671.2	3.69124
2673.48	0.582233
2675.75	1.66521
2678.02	2.76838
2680.29	3.3623
2682.57	5.53133
2684.84	1.36072
2687.1	4.59547
2689.37	3.05914
2691.64	3.10519
2693.91	3.15073
2696.17	2.62519
2698.44	-0.0227852
2700.7	5.34794
2702.97	2.6951
2705.23	0.570589
2707.49	3.27047
2709.76	2.21411
2712.02	3.84232
2714.28	1.71029
2716.53	-0.418077
2718.79	6.60497
2721.05	3.93029
2723.31	3.40756
2725.56	3.41902
2727.82	3.97056
2730.07	3.43713
2732.33	1.81475
2734.58	1.27805
2736.83	0.195086
2739.08	0.194229
2741.33	2.91145
2743.58	4.5469
2745.83	1.84402
2748.08	5.11663
2750.33	1.32963
2752.57	1.36509
2754.82	0.296785
2757.06	6.31939
2759.31	2.50931
2761.55	4.15753
2763.79	0.34107
2766.04	-0.192427
2768.28	6.95345
2770.52	1.47906
2772.76	2.59465
2775	6.467
2777.23	0.437357
2779.47	4.32234
2781.71	4.91396
2783.94	3.84359
2786.18	0.553322
2788.41	3.91567
2790.65	3.94952
2792.88	5.09633
2795.11	1.7805
2797.34	5.15543
2799.57	1.26549
2801.8	2.40404
2804.03	4.10361
2806.26	2.43597
2808.48	6.94488
2810.71	1.89897
2812.94	2.47227
2815.16	1.91499
2817.38	-0.897787
2819.61	4.7491
2821.83	3.62949
2824.05	2.5094
2826.27	1.38735
2828.49	4.22448
2830.71	0.833294
2832.93	6.50687
2835.15	7.08084
2837.37	1.97936
2839.58	-0.288763
2841.8	4.83102
2844.01	5.97657
2846.23	4.85037
2848.44	4.29164
2850.65	6.01679
2852.87	3.75153
2855.08	7.77514
2857.29	6.65513
2859.5	3.81069
2861.71	-0.759521
2863.91	2.1346
2866.12	1.58506
2868.33	2.18693
2870.53	2.78986
2872.74	5.70818
2874.94	-0.635397
2877.15	6.35105
2879.35	2.3161
2881.55	6.42232
2883.75	2.96043
2885.95	2.99418
2888.15	4.1963
2890.35	5.98765
2892.55	5.4339
2894.75	3.11258
2896.94	3.1476
2899.14	7.31747
2901.33	1.44049
2903.53	14.5023
2905.72	6.23463
2907.91	1.5076
2910.11	6.2899
2912.3	3.92327
2914.49	9.90368
2916.68	3.35258
2918.87	2.1727
2921.05	4.58291
2923.24	3.40232
2925.43	6.42469
2927.61	6.45167
2929.8	3.46853
2931.99	2.88971
2934.17	10.1517
2936.35	4.12877
2938.53	6.55907
2940.72	2.32912
2942.9	4.76105
2945.08	5.37395
2947.26	1.73159
2949.44	8.41417
2951.61	2.94778
2953.79	4.16528
2955.97	4.1664
2958.14	2.33894
2960.32	5.99745
2962.49	4.78121
2964.66	5.39563
2966.84	7.23621
2969.01	6.63387
2971.18	5.41876
2973.35	9.10514
2975.52	9.11766
2977.69	3.60347
2979.86	9.75678
2982.03	7.31262
2984.19	3.63538
2986.36	0.567608
2988.52	6.75767
2990.69	1.8341
2992.85	8.0466
2995.01	8.07259
2997.18	5.61868
2999.34	3.15884
3001.5	5.05423
3003.66	7.58215
3005.82	8.24418
3007.98	4.52328
3010.14	12.0799
3012.29	5.20406
3014.45	7.12399
3016.6	9.05275
3018.76	4.67587
3020.91	9.13962
3023.07	9.81209
3025.22	9.84632
3027.37	8.60331
3029.52	7.99106
3031.67	13.7465
3033.82	11.8552
3035.97	8.04018
3038.12	11.8805
3040.27	7.42795
3042.41	13.8447
3044.56	8.09218
3046.71	8.10182
3048.85	8.75298
3051	8.11959
3053.14	9.41443
3055.28	12.0022
3057.42	13.3062
3059.56	12.031
3061.7	12.0445
3063.84	15.9342
3065.98	19.1847
3068.12	13.3798
3070.26	12.7469
3072.39	12.1129
3074.53	8.88393
3076.67	14.093
3078.8	12.1611
3080.93	13.4785
3083.07	18.055
3085.2	13.5216
3087.33	9.63172
3089.46	11.6218
3091.59	15.5851
3093.72	16.9416
3095.85	13.7109
3097.98	19.0199
3100.11	16.4393
3102.23	19.7934
3104.36	19.8581
3106.48	16.6143
3108.61	23.9776
3110.73	19.4044
3112.85	16.8133
3114.98	20.8835
3117.1	27.6485
3119.22	20.3649
3121.34	20.4464
3123.46	23.8947
3125.58	28.7104
3127.7	22.0584
3129.81	19.4458
3131.93	24.299
3134.05	27.1302
3136.16	25.1954
3138.27	28.7221
3140.39	27.458
3142.5	28.933
3144.61	22.1439
3146.73	27.7447
3148.84	28.5266
3150.95	29.3001
3153.06	29.3694
3155.16	28.0491
3157.27	29.5047
3159.38	31.6618
3161.49	33.8267
3163.59	33.2031
3165.7	41.6674
3167.8	34.0332
3169.91	36.899
3172.01	29.2533
3174.11	35.6405
3176.21	35.6878
3178.31	39.9575
3180.41	39.995
3182.51	46.3808
3184.61	45.0012
3186.71	40.0829
3188.81	39.3849
3190.9	46.4962
3193	41.5858
3195.1	45.8851
3197.19	47.3738
3199.28	44.6256
3201.38	53.2922
3203.47	50.5645
3205.56	51.4087
3207.65	54.42
3209.74	53.1345
3211.83	46.0968
3213.92	53.4431
3216.01	48.556
3218.1	50.8741
3220.18	45.9413
3222.27	53.3406
3224.36	56.4004
3226.44	50.7252
3228.52	50.8681
3230.61	58.3273
3232.69	57.0193
3234.77	58.623
3236.85	49.1917
3238.93	55.9637
3241.01	57.6012
3243.09	55.5422
3245.17	54.2411
3247.25	63.3054
3249.33	55.2729
3251.4	53.1404
3253.48	56.2345
3255.55	58.5625
3257.63	54.9059
3259.7	59.5353
3261.77	57.4144
3263.85	48.5251
3265.92	59.2352
3267.99	64.05
3270.06	55.823
3272.13	56.0408
3274.2	53.8685
3276.26	53.1693
3278.33	57.823
3280.4	58.6631
3282.47	61.0348
3284.53	57.2933
3286.59	64.2599
3288.66	56.6794
3290.72	56.7516
3292.79	57.5873
3294.85	51.5074
3296.91	56.9507
3298.97	56.2515
3301.03	57.113
3303.09	55.641
3305.15	58.8058
3307.2	53.4744
3309.26	58.9588
3311.32	59.803
3313.37	57.543
3315.43	61.4988
3317.48	61.5699
3319.54	63.9891
3321.59	67.1928
3323.64	71.2021
3325.69	65.0772
3327.74	63.6371
3329.79	64.5336
3331.84	74.0918
3333.89	69.5663
3335.94	60.2968
3337.99	67.5368
3340.04	73.176
3342.08	71.7109
3344.13	63.9034
3346.17	77.4419
3348.22	65.6358
3350.26	75.2328
3352.3	102.285
3354.34	66.6678
3356.39	72.3357
3358.43	75.6268
3360.47	86.8883
3362.51	79.0453
3364.54	80.7511
3366.58	86.4535
3368.62	76.9717
3370.66	84.2899
3372.69	79.5822
3374.73	85.2869
3376.76	86.1713
3378.8	95.0868
3380.83	88.7368
3382.86	86.3966
3384.89	94.5169
3386.93	100.227
3388.96	89.8197
3390.99	85.8448
3393.02	89.9361
3395.04	89.2026
3397.07	95.7509
3399.1	98.2673
3401.13	86.209
3403.15	103.26
3405.18	95.2175
3407.2	102.569
3409.23	99.3854
3411.25	96.9926
3413.27	101.907
3415.29	99.5197
3417.31	108.502
3419.34	102.865
3421.36	98.0329
3423.37	113.514
3425.39	116.002
3427.41	109.563
3429.43	103.939
3431.44	88.5434
3433.46	94.3244
3435.48	93.599
3437.49	101.86
3439.5	99.5229
3441.52	94.7281
3443.53	103.033
3445.54	101.543
3447.55	96.7847
3449.56	97.7582
3451.57	103.671
3453.58	103.029
3455.59	101.575
3457.6	93.5261
3459.61	102.012
3461.61	86.4801
3463.62	98.3102
3465.63	102.692
3467.63	100.419
3469.63	99.7963
3471.64	92.4746
3473.64	94.277
3475.64	91.9459
3477.64	97.1646
3479.64	89.7793
3481.64	91.6359
3483.64	85.0559
3485.64	91.9729
3487.64	90.4439
3489.64	94.8375
3491.63	86.5161
3493.63	89.2092
3495.63	84.2388
3497.62	85.2116
3499.62	85.3257
3501.61	88.8437
3503.6	83.8105
3505.59	77.0628
3507.59	84.8216
3509.58	77.166
3511.57	82.3298
3513.56	78.9352
3515.55	84.1003
3517.53	68.7061
3519.52	78.1534
3521.51	76.4612
3523.49	67.054
3525.48	66.2255
3527.47	74.8374
3529.45	76.564
3531.43	65.4514
3533.42	67.24
3535.4	69.044
3537.38	67.4232
3539.36	65.8104
3541.34	58.13
3543.32	59.0657
3545.3	66.9133
3547.28	53.9985
3549.26	60.1083
3551.24	63.6107
3553.21	51.4682
3555.19	48.8879
3557.16	54.1194
3559.14	57.6274
3561.11	54.1994
3563.09	52.5115
3565.06	55.1752
3567.03	51.762
3569	57.0794
3570.97	62.3844
3572.94	61.5925
3574.91	59.0591
3576.88	57.4031
3578.85	61.0119
3580.82	60.2486
3582.78	63.0048
3584.75	64.0088
3586.72	69.4225
3588.68	66.0195
3590.65	74.1014
3592.61	68.0362
3594.57	63.7265
3596.54	51.4114
3598.5	55.9533
3600.46	43.5757
3602.42	53.4597
3604.38	40.154
3606.34	42.8972
3608.3	43.8525
3610.26	36.7425
3612.21	35.894
3614.17	29.6651
3616.13	35.0894
3618.08	27.9398
3620.04	29.7668
3621.99	27.9793
3623.94	23.4755
3625.9	31.5817
3627.85	24.3696
3629.8	24.3629
3631.75	18.0356
3633.7	23.4357
3635.65	24.3332
3637.6	18.9204
3639.55	21.6391
3641.5	16.2367
3643.44	18.9726
3645.39	21.7144
3647.34	19.9408
3649.28	14.477
3651.23	9.93932
3653.17	18.11
3655.12	18.1058
3657.06	14.4666
3659	17.1876
3660.94	15.3615
3662.88	16.2596
3664.82	17.1628
3666.76	8.96228
3668.7	14.4238
3670.64	1.65173
3672.58	9.84874
3674.52	11.6745
3676.45	8.02483
3678.39	11.6889
3680.32	6.2097
3682.26	6.22148
3684.19	14.4959
3686.13	9.01441
3688.06	8.11785
3689.99	6.2977
3691.92	5.39612
3693.85	1.7144
3695.78	6.34542
3697.71	13.7755
3699.64	9.16323
3701.57	6.39843
3703.5	8.2681
3705.43	0.838783
3707.35	9.24275
3709.28	5.52829
3711.2	0.8671
3713.13	7.43066
3715.05	3.69105
3716.98	11.2036
3718.9	-1.0026
3720.82	2.7544
3722.74	3.69251
3724.66	-2.90882
3726.59	6.50986
3728.5	5.56218
3730.42	4.61276
3732.34	3.66525
3734.26	5.55445
3736.18	-0.132814
3738.09	5.54839
3740.01	-1.10179
3741.93	6.48452
3743.84	0.772728
3745.75	-0.19248
3747.67	4.55193
3749.58	1.67813
3751.49	3.56431
3753.41	0.681391
3755.32	1.60989
3757.23	-0.32666
3759.14	0.598063
3761.05	-0.388182
3762.96	2.44592
3764.86	3.36911
3766.77	-1.43961
3768.68	-3.38009
3770.58	2.33004
3772.49	3.26305
3774.4	3.2391
3776.3	-3.4877
3778.2	0.320189
3780.11	-1.6165
3782.01	12.7551
3783.91	0.270945
3785.81	-1.66406
3787.71	2.16538
3789.61	-2.66147
3791.51	2.13426
3793.41	7.9052
3795.31	1.15274
3797.21	12.7334
3799.1	-5.62136
3801	2.10821
3802.9	1.13893
3804.79	1.13923
3806.69	2.11196
3808.58	2.11533
3810.48	-2.74759
3812.37	-2.75327
3814.26	1.14041
3816.15	2.11403
3818.04	-2.77046
3819.93	-0.821257
3821.82	6.02372
3823.71	3.0845
3825.6	4.05752
3827.49	4.05431
3829.38	-9.69181
3831.26	3.07417
3833.15	-0.85774
3835.04	1.10958
3836.92	4.0644
3838.8	2.09174
3840.69	2.09289
3842.57	-5.80141
3844.46	-0.865978
3846.34	6.04847
3848.22	4.05323
3850.1	3.05116
3851.98	1.05811
3853.86	-4.90325
3855.74	2.01705
3857.62	0.0147247
3859.49	4.94602
3861.37	4.93088
3863.25	0.955425
3865.12	-0.0293312
3867	2.96796
3868.87	2.0059
3870.75	0.033783
3872.62	3.01037
3874.5	-1.97103
3876.37	1.0148
3878.24	3.00686
3880.11	1.01514
3881.98	-0.975719
3883.85	-5.95753
3885.72	2.03185
3887.59	-3.94585
3889.46	2.05956
3891.33	-1.91967
3893.19	-1.89695
3895.06	-4.86709
3896.93	-0.833801
3898.79	1.20075
3900.66	-3.78385
3902.52	1.26841
3904.38	1.30078
3906.25	2.34407
3908.11	2.37897
3909.97	2.42036
3911.83	0.45219
3913.69	1.50728
3915.55	0.55003
3917.41	-3.43702
3919.27	2.69244
3921.13	4.79001
3922.99	-1.22206
3924.84	-1.15454
3926.7	1.96405
3928.56	-5.08921
3930.41	4.14702
3932.27	3.19999
3934.12	3.26861
3935.97	4.36156
3937.83	2.39009
3939.68	-0.598442
3941.53	2.55563
3943.38	-0.425293
3945.23	3.76679
3947.08	-0.245182
3948.93	1.90284
3950.78	0.96693
3952.63	3.11898
3954.48	-2.96573
3956.33	-1.84032
3958.17	-1.74559
3960.02	10.7284
3961.86	-0.522833
3963.71	4.73997
3965.55	1.74382
3967.4	1.84543
3969.24	-2.18549
3971.08	9.28629
3972.92	1.13185
3974.77	6.41524
3976.6	-2.76967
3978.45	5.62107
3980.29	4.7079
3982.12	2.76256
3983.96	8.05873
3985.8	5.09027
3987.64	6.25874
3989.47	3.29988
3991.31	2.41612
3993.15	5.67604
3994.98	2.73804
3996.82	8.08558
3998.65	-0.015295
