#Acq. time (s)=	15
#Accumulations=	2
#Range (cm-¹)=	50...5000
#Windows=	2
#Auto scanning=	Off
#Autofocus=	Off
#Macrospot=	Off
#AutoExposure=	Off
#Spike filter=	Multiple accum.
#Delay time (s)=	0
#Binning=	1
#Readout mode=	Signal
#DeNoise=	Lite
#ICS correction=	Off
#Dark correction=	Off
#Inst. Process=	Off
#Detector temperature (°C)=	-60.09
#Instrument=	LabRAM HR Evol
#Detector=	SIN-EM FIVIS
#Objective=	x50_VIS_LWD
#Grating=	150 (500nm)
#ND Filter=	100%
#Laser=	633nm_Edge
#Hole=	30.0125
#Temperature=	0
#Range=	Visible
#StageXY=	75x50mm Scan+
#StageZ=	Z motor
#X (µm)=	7344.5
#Y (µm)=	4274.6
#Z (µm)=	-23.7
#Full time(mm:ss)=	1:37
#Project=	Buranga
#Sample=	BU18FA20_C
#Site=	C_Bertoss1
#Title=	20-C_brt1_FI01_150
#Remark=	
#Date=	30.07.2019 14:13
#Acquired=	30.07.2019 14:13:00
#Data Range:Extract=	16.12.2021 15:36:30
#Base:Fit=	16.12.2021 15:36:40
#Base:Sub=	16.12.2021 15:37:11
99.0332	533.046
102.293	466.144
105.552	412.9
108.809	367.187
112.066	316.076
115.32	272.276
118.574	229.642
121.825	194.182
125.077	162.833
128.325	144.435
131.574	128.801
134.82	114.725
138.066	102.201
141.309	89.7843
144.551	78.9572
147.793	68.943
151.033	60.3699
154.272	51.5633
157.509	42.0944
160.745	55.3262
163.979	51.6474
167.212	47.0539
170.444	38.054
173.674	24.842
176.904	17.2829
180.131	10.4192
183.357	6.22276
186.583	4.96252
189.806	6.29321
193.03	8.33977
196.25	10.1096
199.469	11.8074
202.689	13.6283
205.905	8.31383
209.121	4.09904
212.336	1.32935
215.549	-0.0865479
218.76	-0.230865
221.971	0.898087
225.18	4.00215
228.387	8.32991
231.595	14.092
234.799	20.8328
238.002	30.4917
241.206	32.4895
244.407	29.895
247.606	22.5515
250.806	8.82944
254.002	3.42175
257.198	0.470947
260.392	4.13934
263.586	8.7637
266.778	13.2906
269.968	17.3553
273.157	21.8875
276.346	23.5283
279.532	21.8331
282.717	25.1296
285.9	28.1734
289.084	30.4634
292.265	29.1197
295.445	28.6897
298.623	24.269
301.802	19.1358
304.978	14.5323
308.152	9.3472
311.325	7.13913
314.497	7.35849
317.669	8.746
320.839	9.16827
324.007	18.1302
327.173	36.3904
330.339	43.1845
333.503	46.5485
336.667	41.6319
339.829	33.3304
342.989	22.9196
346.148	17.5982
349.306	15.0895
352.462	12.0205
355.617	12.3313
358.772	15.3786
361.925	15.2754
365.076	13.7084
368.226	11.7952
371.375	8.99243
374.522	5.2471
377.668	0.4729
380.813	2.30991
383.956	4.53168
387.099	4.7117
390.24	1.95685
393.381	-0.505676
396.519	-0.197968
399.656	5.97723
402.792	11.6158
405.927	16.9438
409.06	20.8903
412.192	20.5792
415.323	16.7129
418.452	11.0864
421.58	7.02148
424.707	4.69348
427.833	4.94183
430.957	8.3978
434.08	16.2748
437.202	23.1352
440.323	27.502
443.442	29.1506
446.56	27.5145
449.677	26.8746
452.792	31.651
455.907	37.6256
459.02	40.9534
462.131	41.0735
465.242	38.3935
468.351	32.6961
471.459	24.1285
474.566	17.4559
477.671	12.6527
480.774	9.04935
483.877	8.15259
486.978	9.07364
490.079	9.89011
493.178	11.1809
496.276	12.5132
499.372	14.0557
502.468	16.1611
505.562	19.2779
508.655	22.1609
511.745	22.3404
514.835	22.7106
517.924	20.2238
521.012	15.6918
524.099	11.9522
527.184	8.37024
530.268	7.85864
533.35	7.30435
536.431	6.95447
539.512	6.52933
542.591	6.11935
545.669	5.78342
548.746	5.55646
551.82	5.41922
554.894	5.56558
557.967	5.57834
561.038	6.48529
564.109	8.74591
567.177	10.7509
570.245	9.80933
573.312	9.68744
576.377	8.10651
579.44	7.31796
582.503	7.50125
585.565	8.54605
588.625	10.4957
591.685	13.2724
594.742	19.9468
597.799	27.0002
600.854	34.9064
603.907	41.4557
606.96	44.3005
610.012	45.4036
613.063	45.0651
616.111	43.4935
619.16	40.9124
622.207	38.2173
625.251	35.8062
628.296	33.1762
631.339	31.5502
634.38	30.6995
637.421	30.3297
640.461	30.4369
643.498	30.7495
646.536	31.1236
649.572	31.3484
652.605	31.6512
655.639	32.2549
658.671	32.8483
661.701	33.1534
664.731	33.1048
667.759	32.4976
670.786	31.245
673.813	29.5456
676.837	27.6664
679.861	24.9734
682.882	25.455
685.904	26.0416
688.924	24.8665
691.942	23.371
694.96	21.7106
697.975	19.5589
700.991	17.4244
704.004	15.3863
707.017	13.6467
710.029	12.2047
713.038	11.2711
716.048	10.5428
719.055	9.9191
722.062	9.36594
725.066	8.68915
728.071	7.8894
731.073	7.07584
734.076	6.22256
737.075	5.31418
740.075	4.60272
743.073	4.63278
746.07	5.81149
749.065	5.03061
752.06	0.108307
755.053	3.36362
758.046	17.8133
761.036	18.9355
764.025	16.2776
767.014	12.6478
770.001	9.67465
772.988	7.76895
775.972	6.4335
778.957	5.91971
781.939	6.39331
784.919	8.51532
787.9	11.9642
790.879	17.7454
793.857	18.3454
796.833	17.3669
799.808	16.6608
802.783	16.8542
805.756	17.7245
808.727	18.5119
811.699	21.648
814.668	25.2501
817.637	27.7324
820.603	29.1151
823.569	29.1816
826.534	28.2865
829.497	26.2806
832.459	23.434
835.422	19.7834
838.381	14.4402
841.339	11.1532
844.298	11.6461
847.254	13.2959
850.209	15.0878
853.163	16.6908
856.117	18.5529
859.068	20.0019
862.018	20.7797
864.967	20.7942
867.917	20.4863
870.863	19.9223
873.809	19.4846
876.755	19.1452
879.698	18.8393
882.64	19.1017
885.581	19.6593
888.521	20.394
891.461	20.6408
894.398	20.7446
897.334	20.9839
900.269	21.3128
903.203	22.3709
906.138	22.9946
909.069	22.6087
912	21.9369
914.929	20.4095
917.857	16.9869
920.786	12.9199
923.712	10.4059
926.636	10.7766
929.56	15.4349
932.482	20.7951
935.404	25.0511
938.324	28.8432
941.244	32.7355
944.162	33.9215
947.079	34.4289
949.995	34.9655
952.909	35.608
955.822	36.5726
958.734	38.3561
961.645	40.3458
964.555	42.8083
967.464	45.7659
970.372	49.1151
973.279	51.9702
976.185	57.0845
979.089	63.9733
981.992	72.2627
984.894	82.6671
987.794	109.233
990.694	116.872
993.593	115.785
996.49	110.515
999.386	99.7763
1002.28	87.4097
1005.18	79.8475
1008.07	75.3466
1010.96	73.9553
1013.85	74.9929
1016.74	78.4091
1019.63	83.7808
1022.52	86.8101
1025.4	88.7249
1028.29	88.8415
1031.17	87.1584
1034.05	83.3932
1036.93	75.1688
1039.81	67.7811
1042.69	60.5653
1045.57	51.2628
1048.45	41.8626
1051.32	33.3794
1054.2	29.5936
1057.07	25.5613
1059.94	26.2948
1062.82	27.7247
1065.69	31.952
1068.56	34.2681
1071.42	33.9036
1074.29	31.9057
1077.16	29.5874
1080.02	27.8977
1082.88	27.5638
1085.75	28.5369
1088.61	31.0725
1091.47	35.3755
1094.33	40.4882
1097.18	46.0609
1100.04	50.7052
1102.9	54.5729
1105.75	57.3737
1108.6	56.9162
1111.46	47.72
1114.31	40.481
1117.16	34.4613
1120.01	29.8409
1122.85	27.4124
1125.7	26.8963
1128.55	27.5925
1131.39	29.0736
1134.23	30.164
1137.08	31.9545
1139.92	33.7151
1142.76	35.4822
1145.6	36.9943
1148.43	38.2923
1151.27	38.7608
1154.11	38.7524
1156.94	38.013
1159.78	36.8535
1162.61	35.2878
1165.44	33.2352
1168.27	31.1232
1171.1	29.1312
1173.92	27.5919
1176.75	25.9397
1179.58	25.4704
1182.4	25.0983
1185.23	24.988
1188.05	25.0355
1190.87	25.0811
1193.69	25.0807
1196.51	25.0902
1199.33	25.6178
1202.14	26.4186
1204.96	25.8208
1207.77	25.5176
1210.59	22.2532
1213.4	20.631
1216.21	19.5955
1219.02	18.9542
1221.83	18.7571
1224.64	19.5467
1227.45	20.1991
1230.25	20.3996
1233.06	18.9608
1235.86	16.7588
1238.66	13.1116
1241.47	10.0359
1244.27	10.222
1247.07	13.7142
1249.87	18.2426
1252.66	23.2653
1255.46	28.0292
1258.25	32.8096
1261.05	37.137
1263.84	41.728
1266.63	42.1902
1269.42	47.6195
1272.21	47.1427
1275	55.3007
1277.79	84.0476
1280.58	256.457
1283.36	520.882
1286.15	241.305
1288.93	67.7271
1291.71	36.1477
1294.49	36.5666
1297.27	22.9841
1300.05	37.3999
1302.83	51.8142
1305.61	6.73384
1308.38	10.9345
1311.16	15.5649
1313.93	20.7622
1316.7	26.0621
1319.47	31.4578
1322.24	31.5062
1325.01	26.6518
1327.78	24.0814
1330.55	20.0005
1333.32	22.3502
1336.08	24.4224
1338.84	27.4739
1341.61	27.197
1344.37	25.4792
1347.13	23.8686
1349.89	22.6026
1352.65	22.323
1355.41	22.776
1358.16	24.0143
1360.92	26.1983
1363.67	30.3264
1366.43	34.6647
1369.18	47.6017
1371.93	35.9894
1374.68	35.9596
1377.43	31.9606
1380.18	50.8521
1382.93	143.16
1385.67	641.528
1388.42	671.895
1391.16	178.26
1393.9	62.624
1396.65	27.2556
1399.39	32.4817
1402.13	47.0769
1404.87	62.0344
1407.6	66.5075
1410.34	57.3988
1413.07	47.5547
1415.81	34.2238
1418.54	23.4211
1421.28	16.6861
1424.01	12.5668
1426.74	10.4858
1429.47	10.4422
1432.19	12.5836
1434.92	15.1537
1437.65	17.3856
1440.37	17.9265
1443.1	17.3299
1445.82	15.5267
1448.54	12.7769
1451.26	9.66963
1453.98	7.93211
1456.7	5.94429
1459.42	5.96614
1462.14	9.26291
1464.85	11.731
1467.57	11.2004
1470.28	10.3305
1472.99	9.72356
1475.7	9.41336
1478.42	9.33626
1481.12	10.1452
1483.83	12.8143
1486.54	15.4773
1489.25	17.7421
1491.95	19.4524
1494.66	20.3951
1497.36	20.8643
1500.06	20.6562
1502.76	20.0031
1505.46	18.7595
1508.16	16.7552
1510.86	14.2214
1513.56	11.3472
1516.26	9.19572
1518.95	6.90404
1521.64	5.77524
1524.34	5.17772
1527.03	7.2991
1529.72	9.09775
1532.41	8.3447
1535.1	6.20901
1537.79	5.30199
1540.47	5.28151
1543.16	6.32394
1545.85	6.01242
1548.53	10.1746
1551.21	15.5035
1553.89	19.5499
1556.57	20.6789
1559.25	16.7093
1561.93	11.5576
1564.61	7.64009
1567.29	5.1886
1569.96	4.13274
1572.64	4.27052
1575.31	7.17924
1577.99	10.1852
1580.66	11.7224
1583.33	10.7487
1586	10.3271
1588.67	9.71422
1591.33	9.16901
1594	7.4565
1596.67	7.04396
1599.33	7.79202
1601.99	9.09473
1604.66	10.2995
1607.32	12.0699
1609.98	12.0678
1612.64	11.2832
1615.3	10.1098
1617.96	8.64194
1620.61	7.23956
1623.27	5.84193
1625.92	4.83942
1628.58	3.98662
1631.23	2.72275
1633.88	1.81294
1636.53	1.65123
1639.18	1.83525
1641.83	4.09729
1644.48	8.40749
1647.12	10.5815
1649.77	10.8631
1652.41	7.23705
1655.06	3.85808
1657.7	1.40811
1660.34	-0.387466
1662.98	0.21524
1665.62	2.96951
1668.26	7.06473
1670.9	11.3286
1673.53	16.9048
1676.17	21.0315
1678.81	23.1055
1681.44	23.9836
1684.07	24.5676
1686.7	21.8551
1689.33	17.584
1691.96	13.9149
1694.59	10.9378
1697.22	8.68245
1699.85	6.90033
1702.47	5.86559
1705.1	5.80894
1707.72	6.58076
1710.35	7.83881
1712.97	10.3376
1715.59	11.4833
1718.21	10.9655
1720.83	9.73492
1723.45	9.19263
1726.06	6.70213
1728.68	7.68274
1731.29	9.99654
1733.91	12.7732
1736.52	16.565
1739.13	18.5928
1741.74	19.1423
1744.35	18.1321
1746.96	14.8283
1749.57	10.2426
1752.18	5.9713
1754.78	6.85715
1757.39	7.97247
1759.99	8.97215
1762.6	9.69612
1765.2	9.94038
1767.8	9.91228
1770.4	9.31207
1773	8.64362
1775.6	8.33392
1778.2	8.00748
1780.79	7.62459
1783.39	9.8204
1785.98	9.74231
1788.58	8.43828
1791.17	7.08646
1793.76	5.90552
1796.35	5.00798
1798.94	4.55972
1801.53	4.40565
1804.12	4.64328
1806.71	5.31122
1809.29	6.59239
1811.88	6.918
1814.46	7.00258
1817.04	7.4216
1819.62	5.60234
1822.21	4.79541
1824.79	6.45164
1827.37	8.51637
1829.94	10.1111
1832.52	11.2733
1835.1	11.9995
1837.67	12.3533
1840.25	12.2058
1842.82	11.7392
1845.39	10.9585
1847.96	9.9976
1850.53	8.94908
1853.1	7.74713
1855.67	6.29199
1858.24	4.53362
1860.81	2.24225
1863.37	1.67097
1865.94	1.94559
1868.5	3.02794
1871.06	4.34804
1873.63	5.48143
1876.19	6.67851
1878.75	7.85692
1881.31	9.16115
1883.86	10.5022
1886.42	9.34645
1888.98	7.3847
1891.53	5.42244
1894.09	4.10046
1896.64	3.10112
1899.19	0.760727
1901.75	1.79518
1904.3	3.51878
1906.85	4.80859
1909.39	5.74524
1911.94	6.18309
1914.49	6.46896
1917.04	5.69145
1919.58	4.93564
1922.12	4.30389
1924.67	3.73703
1927.21	3.42415
1929.75	3.17598
1932.29	2.92038
1934.83	2.53244
1937.37	2.31584
1939.91	2.42812
1942.44	2.92352
1944.98	3.49194
1947.51	4.68739
1950.05	5.19484
1952.58	5.85771
1955.11	7.39677
1957.64	7.1196
1960.17	5.63852
1962.7	3.67613
1965.23	-0.334244
1967.76	0.203064
1970.28	2.32549
1972.81	4.56737
1975.33	6.90697
1977.86	9.47807
1980.38	11.5267
1982.9	11.5604
1985.42	9.5069
1987.94	7.32933
1990.46	5.58554
1992.98	4.97592
1995.49	4.76155
1998.01	5.72736
2000.53	7.54518
2003.04	10.3262
2005.55	12.64
2008.06	14.2566
2010.58	15.2065
2013.09	15.4573
2015.6	15.0748
2018.1	13.9766
2020.61	11.8494
2023.12	9.61093
2025.63	6.15091
2028.13	4.74477
2030.63	5.37816
2033.14	5.81932
2035.64	6.48477
2038.14	7.20575
2040.64	7.59045
2043.14	7.87344
2045.64	8.7337
2048.14	9.09029
2050.63	10.9414
2053.13	13.4066
2055.63	15.7998
2058.12	15.2769
2060.61	13.4503
2063.1	10.485
2065.6	7.3936
2068.09	3.17853
2070.57	0.432068
2073.06	0.210663
2075.55	2.14072
2078.04	5.65962
2080.52	8.93033
2083.01	10.659
2085.49	11.8143
2087.98	12.0186
2090.46	11.7401
2092.94	10.9915
2095.42	9.75818
2097.9	8.37453
2100.38	6.85316
2102.86	5.57843
2105.33	4.46358
2107.81	3.72009
2110.28	3.38042
2112.76	3.45485
2115.23	3.6758
2117.7	3.85588
2120.17	4.04216
2122.64	4.18262
2125.11	4.28992
2127.58	4.35307
2130.05	4.34541
2132.52	4.28459
2134.98	4.16898
2137.45	3.96945
2139.91	3.67935
2142.38	3.1181
2144.84	2.93919
2147.3	3.97418
2149.76	5.71251
2152.22	6.31352
2154.68	5.78674
2157.14	4.83771
2159.59	3.79974
2162.05	3.02888
2164.5	2.86533
2166.96	3.51996
2169.41	4.53535
2171.86	5.46526
2174.32	6.26367
2176.77	6.89572
2179.22	7.31406
2181.67	7.56805
2184.11	7.67688
2186.56	7.43271
2189.01	7.00894
2191.45	6.42776
2193.9	5.81583
2196.34	5.16861
2198.78	4.58643
2201.23	4.19351
2203.67	4.08632
2206.11	4.25903
2208.55	4.5589
2210.99	5.4073
2213.42	6.74991
2215.86	9.23875
2218.29	10.632
2220.73	10.4153
2223.16	9.25356
2225.6	7.75642
2228.03	6.0294
2230.46	5.16173
2232.89	4.73888
2235.32	4.70033
2237.75	4.89883
2240.18	5.111
2242.6	5.5037
2245.03	6.2243
2247.45	6.992
2249.88	7.65647
2252.3	8.2706
2254.73	9.10769
2257.15	8.49628
2259.57	7.25276
2261.99	5.97379
2264.41	4.77264
2266.82	4.53777
2269.24	5.60763
2271.66	6.72913
2274.07	7.66321
2276.49	8.26376
2278.9	8.61632
2281.32	8.0507
2283.73	6.89542
2286.14	5.65127
2288.55	3.67474
2290.96	1.77649
2293.37	3.43034
2295.78	6.60419
2298.18	11.1547
2300.59	14.5654
2302.99	11.4967
2305.4	10.1574
2307.8	8.51061
2310.2	7.61314
2312.61	7.30238
2315.01	7.765
2317.41	6.45752
2319.81	11.1887
2322.2	15.1923
2324.6	18.5526
2327	21.0132
2329.39	22.4424
2331.79	-0.460243
2334.18	9.46436
2336.58	2.93426
2338.97	0.549789
2341.36	3.25166
2343.75	6.7916
2346.14	9.57352
2348.53	11.4554
2350.92	12.5665
2353.3	13.075
2355.69	12.8409
2358.07	12.0619
2360.46	10.6892
2362.84	9.10864
2365.23	9.31985
2367.61	11.6569
2369.99	12.4025
2372.37	12.2941
2374.75	11.3721
2377.13	9.65403
2379.51	7.81713
2381.88	6.37479
2384.26	6.3448
2386.63	6.9607
2389.01	7.47544
2391.38	6.4287
2393.75	5.26512
2396.13	4.394
2398.5	4.07162
2400.87	4.11137
2403.24	4.98429
2405.61	6.12118
2407.97	7.22021
2410.34	8.3288
2412.71	8.83975
2415.07	9.11559
2417.43	9.24696
2419.8	9.7425
2422.16	10.2177
2424.52	10.539
2426.88	10.9477
2429.24	10.8691
2431.6	10.0446
2433.96	9.21378
2436.32	7.86327
2438.68	6.51687
2441.03	5.31435
2443.39	5.56792
2445.74	6.50943
2448.09	7.9491
2450.44	10.1489
2452.8	12.4887
2455.15	14.4383
2457.5	15.7643
2459.85	16.2978
2462.19	15.9034
2464.54	14.6474
2466.89	12.4992
2469.24	9.45845
2471.58	5.35882
2473.92	3.78104
2476.27	7.71583
2478.61	8.11784
2480.95	7.48426
2483.29	6.09544
2485.63	5.63791
2487.97	4.7675
2490.31	6.54478
2492.65	9.11169
2494.98	8.14827
2497.32	9.14644
2499.65	10.6728
2501.99	12.4376
2504.32	13.7823
2506.65	14.9535
2508.99	16.1595
2511.32	17.5934
2513.65	1.49396
2515.98	1.64256
2518.3	2.95244
2520.63	4.61201
2522.96	6.51719
2525.29	7.72335
2527.61	9.04929
2529.93	9.795
2532.26	13.8432
2534.58	18.3774
2536.9	18.384
2539.22	11.4452
2541.54	5.85464
2543.86	3.86517
2546.18	5.13764
2548.5	5.02468
2550.82	5.08208
2553.13	5.199
2555.45	5.42193
2557.76	5.65219
2560.08	6.4007
2562.39	7.16384
2564.7	7.9899
2567.01	8.81804
2569.32	9.47082
2571.63	9.51423
2573.94	9.73569
2576.25	11.4135
2578.55	12.9614
2580.86	12.291
2583.17	10.4425
2585.47	7.24327
2587.78	5.3024
2590.08	4.98303
2592.38	6.51087
2594.68	10.27
2596.98	12.3453
2599.28	15.4249
2601.58	17.2479
2603.88	16.7483
2606.18	14.2243
2608.47	9.16424
2610.77	5.87378
2613.06	6.85433
2615.36	9.19477
2617.65	10.8451
2619.94	12.9707
2622.24	14.3044
2624.53	13.5124
2626.82	11.2537
2629.11	9.69109
2631.39	8.54949
2633.68	9.02425
2635.97	10.1918
2638.26	11.796
2640.54	13.1731
2642.83	14.0821
2645.11	14.6623
2647.39	14.0609
2649.67	14.7598
2651.96	14.2222
2654.24	13.4017
2656.52	12.2388
2658.8	10.784
2661.07	9.49744
2663.35	8.39011
2665.63	8.79602
2667.9	10.0002
2670.18	11.2416
2672.45	12.34
2674.73	13.27
2677	13.9821
2679.27	14.4568
2681.54	14.8127
2683.81	15.0401
2686.08	14.9846
2688.35	14.2869
2690.62	12.5418
2692.88	10.1158
2695.15	6.99905
2697.41	4.16622
2699.68	3.43983
2701.94	4.18198
2704.21	4.82251
2706.47	5.7425
2708.73	6.60296
2710.99	8.04726
2713.25	9.75468
2715.51	11.2924
2717.77	12.4363
2720.03	13.1177
2722.28	12.9334
2724.54	12.0721
2726.79	9.87901
2729.05	7.77734
2731.3	6.4384
2733.55	6.70723
2735.81	8.75516
2738.06	11.7407
2740.31	15.1686
2742.56	16.9086
2744.81	13.693
2747.06	11.6898
2749.3	9.71499
2751.55	8.36618
2753.8	7.14312
2756.04	6.57689
2758.28	7.6803
2760.53	10.009
2762.77	10.0517
2765.01	9.37276
2767.25	8.02563
2769.49	7.44031
2771.73	7.73169
2773.97	8.26199
2776.21	9.09522
2778.45	9.80299
2780.68	10.3605
2782.92	10.7917
2785.15	9.79507
2787.39	8.58731
2789.62	7.6618
2791.85	8.78056
2794.09	10.569
2796.32	13.2101
2798.55	16.4872
2800.78	17.7808
2803.01	17.9356
2805.23	16.4994
2807.46	14.49
2809.69	11.5332
2811.91	9.75116
2814.14	10.0535
2816.36	11.4568
2818.59	13.8542
2820.81	16.2024
2823.03	15.3456
2825.25	14.6048
2827.47	13.881
2829.69	12.1224
2831.91	11.9046
2834.13	12.8281
2836.34	14.0115
2838.56	15.0977
2840.78	15.8346
2842.99	16.2699
2845.21	16.2754
2847.42	16.0336
2849.63	15.5873
2851.84	14.6051
2854.05	12.4982
2856.27	10.3982
2858.47	8.52261
2860.68	7.37959
2862.89	7.178
2865.1	7.08465
2867.3	8.13892
2869.51	9.97118
2871.72	11.4653
2873.92	13.1403
2876.12	13.8912
2878.33	14.3916
2880.53	14.6322
2882.73	14.6907
2884.93	14.6114
2887.13	14.379
2889.33	14.287
2891.53	14.0069
2893.72	13.0396
2895.92	12.865
2898.12	13.4156
2900.31	14.4677
2902.51	15.2346
2904.7	14.3629
2906.89	14.1188
2909.08	14.4458
2911.28	13.7588
2913.47	11.862
2915.66	9.82395
2917.84	9.28152
2920.03	10.4945
2922.22	13.1385
2924.41	14.2373
2926.59	13.7675
2928.78	12.8337
2930.96	11.1999
2933.15	9.49387
2935.33	8.81435
2937.51	9.03419
2939.7	9.7742
2941.88	10.719
2944.06	11.7646
2946.24	12.3506
2948.41	12.7864
2950.59	13.213
2952.77	13.5732
2954.95	13.9053
2957.12	14.1664
2959.3	14.4233
2961.47	14.5932
2963.64	14.7125
2965.82	14.8901
2967.99	14.5264
2970.16	13.8932
2972.33	13.4732
2974.5	14.3843
2976.67	15.8213
2978.84	17.1401
2981	17.8828
2983.17	18.1906
2985.34	17.6704
2987.5	16.8966
2989.67	15.6398
2991.83	13.1743
2993.99	11.2651
2996.16	11.53
2998.32	12.1627
3000.48	13.4201
3002.64	14.3959
3004.8	15.6699
3006.96	16.436
3009.12	15.476
3011.27	13.5825
3013.43	10.558
3015.58	7.39027
3017.74	6.14759
3019.89	5.56718
3022.05	6.23526
3024.2	9.47296
3026.35	14.0944
3028.5	16.9571
3030.65	19.0895
3032.8	20.1645
3034.95	18.6429
3037.1	17.098
3039.25	14.0876
3041.4	11.8453
3043.54	10.3751
3045.69	9.51982
3047.83	9.22321
3049.98	9.59096
3052.12	10.3813
3054.26	11.2065
3056.4	11.5885
3058.54	11.6652
3060.69	11.3267
3062.82	10.8586
3064.96	10.722
3067.1	11.415
3069.24	12.6249
3071.38	13.7927
3073.51	14.7726
3075.65	15.5587
3077.78	16.0508
3079.91	16.256
3082.05	16.1833
3084.18	15.8942
3086.31	15.3292
3088.44	14.5239
3090.57	13.6389
3092.7	12.7322
3094.83	11.3331
3096.96	10.1883
3099.09	10.7403
3101.21	11.6102
3103.34	12.7435
3105.47	13.7951
3107.59	14.331
3109.71	14.8044
3111.84	15.1288
3113.96	15.3336
3116.08	15.1702
3118.2	15.2501
3120.32	15.8735
3122.44	16.1769
3124.56	16.4465
3126.68	18.6762
3128.79	0.244278
3130.91	2.89739
3133.03	4.18179
3135.14	7.34106
3137.26	11.293
3139.37	13.2176
3141.48	14.693
3143.6	15.6181
3145.71	16.096
3147.82	15.6969
3149.93	16.6924
3152.04	17.8324
3154.15	18.9558
3156.25	19.883
3158.36	18.2287
3160.47	12.5559
3162.57	10.5404
3164.68	10.8205
3166.78	11.3392
3168.89	12.072
3170.99	12.9074
3173.09	12.9737
3175.19	12.4636
3177.3	12.5858
3179.4	13.1491
3181.49	14.0235
3183.59	15.4492
3185.69	16.319
3187.79	16.8465
3189.89	17.4004
3191.98	17.8867
3194.08	17.925
3196.17	16.5292
3198.27	14.7913
3200.36	13.2945
3202.45	12.2301
3204.54	11.7297
3206.63	11.7034
3208.72	12.1926
3210.81	13.0199
3212.9	13.9379
3214.99	14.783
3217.08	17.818
3219.17	18.2571
3221.25	15.8505
3223.34	13.2722
3225.42	9.91407
3227.51	7.84626
3229.59	6.72827
3231.67	6.53703
3233.75	7.10869
3235.84	8.57751
3237.92	10.5698
3240	12.2484
3242.08	13.5054
3244.15	14.1732
3246.23	14.168
3248.31	13.4824
3250.39	12.1735
3252.46	9.86544
3254.54	8.19927
3256.61	8.08717
3258.68	9.45587
3260.76	9.86787
3262.83	8.47559
3264.9	7.86971
3266.97	6.23504
3269.04	6.69209
3271.11	7.09025
3273.18	7.44931
3275.25	7.82272
3277.32	8.33733
3279.38	8.77943
3281.45	9.01863
3283.51	8.34306
3285.58	7.86469
3287.64	7.27818
3289.71	8.61037
3291.77	10.2367
3293.83	10.94
3295.89	11.6885
3297.95	12.875
3300.01	13.9822
3302.07	14.7297
3304.13	14.8607
3306.19	11.7774
3308.25	9.1872
3310.3	7.32887
3312.36	6.19859
3314.41	5.91604
3316.47	6.44751
3318.52	7.72437
3320.57	9.62045
3322.63	12.1106
3324.68	12.479
3326.73	11.4531
3328.78	10.2595
3330.83	8.62407
3332.88	7.82407
3334.92	8.34759
3336.97	8.79801
3339.02	7.76942
3341.07	7.97968
3343.11	9.09809
3345.16	10.0314
3347.2	10.5665
3349.24	9.70234
3351.29	8.61697
3353.33	7.46001
3355.37	6.48822
3357.41	6.2431
3359.45	6.36909
3361.49	6.9395
3363.53	7.58383
3365.57	8.24998
3367.6	9.10258
3369.64	9.14434
3371.68	9.23176
3373.71	9.23604
3375.75	9.2239
3377.78	9.35005
3379.81	9.80804
3381.85	10.5281
3383.88	11.2246
3385.91	11.655
3387.94	11.8915
3389.97	11.9591
3392	11.8661
3394.03	11.7036
3396.06	11.4504
3398.08	11.1159
3400.11	10.1943
3402.14	10.0168
3404.16	10.2852
3406.19	8.77861
3408.21	6.73963
3410.23	4.80056
3412.26	3.98111
3414.28	8.30783
3416.3	8.94173
3418.32	8.49116
3420.34	8.26971
3422.36	8.22876
3424.38	8.4003
3426.4	8.69774
3428.41	9.42102
3430.43	10.1367
3432.45	10.731
3434.46	10.9272
3436.48	10.9921
3438.49	10.9192
3440.5	10.697
3442.52	10.6462
3444.53	10.848
3446.54	11.2573
3448.55	10.1692
3450.56	8.79452
3452.57	7.73842
3454.58	7.23388
3456.59	7.9498
3458.59	8.30363
3460.6	7.19028
3462.61	6.78914
3464.61	12.5562
3466.62	10.5872
3468.62	8.31872
3470.62	6.65306
3472.63	5.37133
3474.63	4.64589
3476.63	4.15062
3478.63	3.77879
3480.63	3.60635
3482.63	3.38667
3484.63	3.29544
3486.63	3.31997
3488.62	3.47667
3490.62	3.79359
3492.62	4.2377
3494.61	4.90889
3496.61	5.69462
3498.6	6.50236
3500.6	7.34367
3502.59	8.00257
3504.58	9.29845
3506.57	8.8371
3508.56	8.01622
3510.55	6.20586
3512.54	4.77765
3514.53	4.09132
3516.52	4.04221
3518.51	4.63535
3520.49	6.13803
3522.48	8.18964
3524.47	9.75944
3526.45	9.75264
3528.44	9.54183
3530.42	9.14472
3532.4	8.67933
3534.39	7.81869
3536.37	6.65221
3538.35	5.62784
3540.33	5.17184
3542.31	4.13619
3544.29	3.30818
3546.27	2.66508
3548.25	2.13633
3550.22	2.22861
3552.2	3.30946
3554.18	4.40859
3556.15	5.76141
3558.13	7.57249
3560.1	8.74738
3562.07	9.34637
3564.05	8.83386
3566.02	7.67744
3567.99	6.50847
3569.96	5.82169
3571.93	5.33656
3573.9	4.90385
3575.87	6.05753
3577.84	6.89615
3579.8	7.44793
3581.77	7.87004
3583.74	8.20721
3585.7	8.45066
3587.67	8.61377
3589.63	8.62325
3591.6	8.43583
3593.56	7.70459
3595.52	6.97131
3597.48	6.30412
3599.45	5.88781
3601.41	5.89999
3603.37	5.03604
3605.33	4.18664
3607.28	3.37311
3609.24	3.31896
3611.2	3.85856
3613.16	4.51063
3615.11	5.15322
3617.07	5.69401
3619.02	6.08588
3620.98	6.41102
3622.93	6.65896
3624.88	6.67749
3626.84	6.3221
3628.79	5.8644
3630.74	5.57656
3632.69	5.2566
3634.64	6.09818
3636.59	6.26971
3638.54	6.55354
3640.49	5.58224
3642.43	4.20818
3644.38	3.6825
3646.33	3.95299
3648.27	4.91719
3650.22	6.21944
3652.16	5.43456
3654.1	4.49442
3656.05	3.66506
3657.99	3.46222
3659.93	3.52841
3661.87	3.91325
3663.81	3.42193
3665.75	3.45413
3667.69	4.199
3669.63	0.871197
3671.57	5.00777
3673.5	8.03011
3675.44	9.11027
3677.38	8.3266
3679.31	5.45134
3681.25	1.17307
3683.18	-0.868961
3685.11	-0.871349
3687.05	-0.6828
3688.98	0.522476
3690.91	0.901077
3692.84	1.11589
3694.77	1.88028
3696.7	2.4564
3698.63	1.00358
3700.56	0.179302
3702.49	-0.0881958
3704.41	-0.317127
3706.34	0.514641
3708.27	1.36976
3710.19	2.5484
3712.12	3.64898
3714.04	4.54432
3715.96	4.96905
3717.89	4.21534
3719.81	4.31097
3721.73	4.69275
3723.65	5.26257
3725.57	5.69071
3727.49	5.45156
3729.41	4.19431
3731.33	3.3021
3733.25	2.61657
3735.17	2.1658
3737.08	1.94222
3739	1.88837
3740.91	1.5614
3742.83	1.41505
3744.74	2.11124
3746.66	2.06077
3748.57	1.97354
3750.48	1.75095
3752.39	1.40737
3754.31	0.998165
3756.22	0.552944
3758.13	0.29303
3760.04	0.413742
3761.94	0.875957
3763.85	1.4441
3765.76	2.48948
3767.67	3.38404
3769.57	3.53032
3771.48	4.1549
3773.38	4.36913
3775.29	4.41331
3777.19	4.42627
3779.1	4.39511
3781	4.41616
3782.9	4.58611
3784.8	4.63052
3786.7	4.51478
3788.6	4.24812
3790.5	3.86689
3792.4	3.42859
3794.3	3.01158
3796.2	2.72433
3798.09	2.58706
3799.99	2.5561
3801.89	2.64122
3803.78	2.80215
3805.68	3.02731
3807.57	3.35959
3809.46	4.34961
3811.36	4.40874
3813.25	3.96632
3815.14	3.51448
3817.03	3.16428
3818.92	3.0402
3820.81	2.93462
3822.7	2.75225
3824.59	2.63374
3826.48	2.59685
3828.37	2.8036
3830.25	3.92847
3832.14	4.192
3834.03	2.99918
3835.91	1.48288
3837.79	0.390251
3839.68	0.0977364
3841.56	0.286842
3843.45	1.06219
3845.33	2.5121
3847.21	3.05374
3849.09	3.42074
3850.97	2.69646
3852.85	1.78316
3854.73	0.846081
3856.61	0.342999
3858.48	0.106808
3860.36	0.0726967
3862.24	0.249073
3864.11	0.689404
3865.99	0.847866
3867.86	0.741627
3869.74	0.925217
3871.61	1.25723
3873.49	1.63951
3875.36	2.12444
3877.23	2.63929
3879.1	2.31325
3880.97	2.02477
3882.84	2.04408
3884.71	2.2505
3886.58	2.56847
3888.45	2.42386
3890.32	1.29285
3892.18	0.647457
3894.05	0.708374
3895.92	1.86128
3897.78	2.55495
3899.65	3.00846
3901.51	3.29156
3903.38	3.27926
3905.24	2.83612
3907.1	2.01979
3908.96	1.27782
3910.82	0.680576
3912.68	0.187836
3914.54	-0.0213089
3916.4	0.239639
3918.26	0.17078
3920.12	0.845333
3921.98	1.74973
3923.83	2.12577
3925.69	1.62042
3927.55	0.827225
3929.4	0.651112
3931.26	1.51424
3933.11	2.42096
3934.97	2.97622
3936.82	3.16271
3938.67	3.00534
3940.52	2.26706
3942.37	1.39906
3944.22	0.524166
3946.07	-0.350964
3947.92	-1.17774
3949.77	-1.4563
3951.62	-1.12826
3953.47	-0.538513
3955.32	0.347961
3957.16	1.0005
3959.01	0.684624
3960.85	0.212234
3962.7	0.419228
3964.54	0.865776
3966.39	1.60727
3968.23	1.64452
3970.07	1.40203
3971.91	-0.541618
3973.76	1.08015
3975.6	1.22109
3977.44	1.40377
3979.28	1.69057
3979.39	1.6868
3981.24	1.9626
3983.08	2.17597
3984.92	2.27995
3986.76	2.35822
3988.6	2.0792
3990.45	1.54062
3992.29	0.862736
3994.13	0.703854
3995.96	0.876606
3997.8	0.492817
3999.64	0.567612
