#Acq. time (s)=	20
#Accumulations=	3
#Range (cm-¹)=	100...4000
#Windows=	1
#Auto scanning=	Off
#Autofocus=	Off
#Macrospot=	Off
#AutoExposure=	Off
#Spike filter=	Multiple accum.
#Delay time (s)=	0
#Binning=	1
#Readout mode=	Signal
#DeNoise=	Lite
#ICS correction=	Off
#Dark correction=	Off
#Inst. Process=	Off
#Detector temperature (°C)=	-60.09
#Instrument=	LabRAM HR Evol
#Detector=	SIN-EM FIVIS
#Objective=	x50_VIS_LWD
#Grating=	150 (500nm)
#ND Filter=	100%
#Laser=	633nm_Edge
#Hole=	30.0125
#Temperature=	0
#Range=	Visible
#StageXY=	75x50mm Scan+
#StageZ=	Z motor
#X (µm)=	7435.8
#Y (µm)=	4166.6
#Z (µm)=	-29.5
#Full time(mm:ss)=	1:02
#Project=	Buranga
#Sample=	BU18FA20_C
#Site=	C_Bertoss1
#Title=	20-C_brt1_FI07
#Remark=	
#Date=	30.07.2019 14:30
#Acquired=	30.07.2019 14:30:37
100.38	743.343
103.641	637.183
106.898	570.558
110.156	509.394
113.411	459.879
116.666	420.692
119.918	383.057
123.17	357.659
126.419	331.735
129.669	305.459
132.916	278.942
136.163	253.09
139.407	248.528
142.651	239.175
145.892	234.399
149.134	221.578
152.372	208.982
155.611	196.949
158.847	183.045
162.083	176.29
165.316	173.199
168.548	175.523
171.781	173.605
175.01	169.503
178.239	155.893
181.466	152.131
184.693	147.679
187.917	144.243
191.139	141.103
194.362	140.144
197.582	139.576
200.802	136.008
204.02	134.702
207.236	136.585
210.452	139.326
213.665	137.835
216.877	135.917
220.089	133.813
223.299	133.518
226.508	137.698
229.715	150.364
232.92	162.807
236.126	181.16
239.329	224.452
242.53	279.859
245.732	264.476
248.931	229.28
252.128	200.376
255.326	182.253
258.521	172.489
261.714	168.005
264.906	168.728
268.099	173.417
271.288	182.317
274.477	193.688
277.665	204.583
280.851	227.651
284.035	249.203
287.218	281.453
290.402	300.307
293.582	294.313
296.761	263.158
299.939	228.749
303.117	199.121
306.293	173.845
309.466	160.408
312.639	151.876
315.811	151.606
318.982	157.596
322.151	174.182
325.318	200.025
328.484	263.369
331.651	311.598
334.814	344.551
337.977	307.022
341.138	253.426
344.297	205.409
347.456	179.463
350.614	164.146
353.77	155.927
356.925	157.33
360.078	170.536
363.23	182.248
366.381	192.463
369.53	198.033
372.68	196.028
375.827	189.23
378.972	177.551
382.116	163.56
385.259	150.464
388.401	135.262
391.541	127.106
394.681	123.025
397.818	122.583
400.956	125.88
404.092	127.258
407.226	130.237
410.359	130.691
413.49	132.331
416.62	135.51
419.749	138.69
422.877	142.841
426.003	148.765
429.128	161.532
432.252	178.26
435.375	195.123
438.496	217.609
441.616	232.94
444.735	241.784
447.852	240.648
450.969	235.59
454.084	228.89
457.197	222.112
460.31	215.016
463.421	207.39
466.531	198.424
469.64	187.403
472.747	174.834
475.853	161.183
478.958	148.975
482.062	143.077
485.164	138.927
488.265	136.069
491.365	133.911
494.464	132.477
497.561	131.51
500.657	131.154
503.752	131.392
506.844	132.773
509.937	134.695
513.028	137.523
516.117	138.787
519.206	139.819
522.293	140.748
525.38	139.613
528.464	139.115
531.548	138.546
534.63	138.792
537.71	139.277
540.79	138.181
543.869	135.86
546.946	132.565
550.022	129.6
553.097	126.856
556.169	125.504
559.242	125.551
562.313	125.972
565.383	128.171
568.452	130.671
571.519	130.886
574.584	129.673
577.649	127.318
580.713	125.735
583.775	124.906
586.837	127.265
589.895	132.326
592.954	136.767
596.012	151.931
599.068	174.527
602.122	207.721
605.176	244.851
608.229	253.717
611.28	243.372
614.329	220.242
617.378	202.51
620.426	196.355
623.473	193.73
626.517	197.591
629.561	204.573
632.604	207.103
635.644	208.318
638.684	210.457
641.724	205.946
644.76	199.482
647.797	192.308
650.833	187.022
653.867	188.031
656.899	192.343
659.931	198.776
662.96	217.417
665.99	216.038
669.018	208.586
672.044	200.758
675.07	175.178
678.095	141.003
681.117	129.59
684.139	124.373
687.16	118.774
690.179	114.508
693.197	112.125
696.213	110.206
699.23	109.757
702.245	108.21
705.257	106.54
708.27	104.968
711.28	103.263
714.29	102.426
717.298	102.096
720.306	102.039
723.312	102.574
726.316	103.076
729.321	103.424
732.322	102.844
735.324	101.853
738.323	101.285
741.323	100.869
744.32	100.598
747.317	100.585
750.311	100.726
753.306	101.107
756.298	101.888
759.291	101.844
762.28	100.758
765.27	98.7972
768.258	98.2102
771.245	98.4785
774.23	98.277
777.215	98.776
780.198	98.8571
783.179	98.3584
786.161	96.7731
789.14	96.2669
792.119	96.9242
795.096	98.9732
798.073	98.802
801.047	99.5994
804.021	99.3522
806.994	99.2794
809.965	99.2355
812.936	98.679
815.904	98.2945
818.871	98.0249
821.839	97.909
824.804	98.5781
827.769	99.6829
830.732	100.917
833.693	102.133
836.655	103.226
839.614	104.05
842.572	104.621
845.53	105.17
848.485	105.687
851.44	105.978
854.394	105.815
857.346	105.101
860.297	103.85
863.248	102.982
866.197	102.466
869.144	102.092
872.091	102.561
875.037	103.748
877.981	106.181
880.924	107.263
883.867	108.418
886.807	108.8
889.746	108.363
892.685	107.699
895.623	106.986
898.559	106.091
901.493	105.398
904.427	105.412
907.359	106.077
910.292	107.326
913.222	109.58
916.151	112.513
919.078	114.871
922.006	116.153
924.932	116.467
927.856	115.712
930.779	114.467
933.701	116.494
936.622	118.184
939.543	121.397
942.461	128.841
945.379	138.115
948.295	148.462
951.21	158.911
954.124	167.228
957.037	174.837
959.95	182.65
962.861	190.565
965.77	197.919
968.678	205.612
971.585	215.845
974.491	228.929
977.396	250.41
980.3	279.167
983.202	314.122
986.104	362.738
989.005	419.842
991.904	479.213
994.802	534.636
997.699	531.65
1000.6	471.938
1003.49	413.253
1006.38	367.073
1009.28	333.235
1012.17	311.897
1015.06	303.164
1017.95	306.177
1020.83	320.547
1023.72	352.378
1026.61	385.856
1029.49	413.095
1032.37	404.907
1035.26	351.509
1038.14	306.47
1041.02	269.042
1043.9	239.082
1046.77	215.854
1049.65	199.644
1052.53	187.677
1055.4	179.033
1058.27	172.005
1061.15	164.472
1064.02	158.364
1066.88	153.848
1069.75	150.458
1072.62	147.597
1075.49	147.848
1078.35	152.634
1081.22	160.795
1084.08	171.681
1086.94	184.148
1089.8	195.462
1092.66	201.02
1095.52	205.379
1098.38	206.294
1101.23	211.522
1104.09	216.42
1106.94	219.681
1109.8	200.755
1112.65	181.765
1115.5	162.454
1118.35	147.856
1121.2	134.383
1124.05	126.796
1126.89	122.546
1129.74	120.635
1132.58	120.954
1135.42	122.407
1138.27	125.208
1141.11	128.905
1143.95	133.768
1146.78	139.832
1149.62	145.665
1152.46	149.162
1155.29	157.124
1158.13	165.597
1160.96	173.193
1163.79	159.739
1166.62	145.36
1169.45	129.544
1172.28	117.904
1175.11	109.983
1177.93	105.083
1180.76	102.744
1183.59	101.839
1186.41	100.944
1189.23	100.05
1192.05	99.0624
1194.87	98.2657
1197.69	96.6126
1200.51	94.7071
1203.32	92.8871
1206.14	90.6981
1208.95	88.68
1211.77	86.927
1214.58	85.8129
1217.39	85.7439
1220.2	86.8067
1223.01	88.7532
1225.82	90.6017
1228.62	91.4786
1231.43	91.5531
1234.23	91.2088
1237.04	89.6503
1239.84	87.4925
1242.64	85.5016
1245.44	84.2631
1248.24	84.4334
1251.04	84.8634
1253.83	91.2036
1256.63	97.7377
1259.42	103.906
1262.22	110.466
1265.01	118.541
1267.8	117.737
1270.59	112.588
1273.38	104.929
1276.17	111.164
1278.96	115.495
1281.74	273
1284.53	611
1287.31	369
1290.1	148.428
1292.88	116.228
1295.66	106.853
1298.44	99.9654
1301.22	96.9226
1303.99	94.2418
1306.77	94.2344
1309.55	94.9017
1312.32	95.4895
1315.09	94.0237
1317.87	92.6072
1320.64	91.2437
1323.41	90.2444
1326.18	89.0621
1328.94	87.785
1331.71	87.4936
1334.48	87.467
1337.24	87.4182
1340	87.2493
1342.77	86.709
1345.53	86.5394
1348.29	87.3415
1351.05	88.7514
1353.81	90.3894
1356.56	91.985
1359.32	93.5609
1362.08	95.3295
1364.83	97.6575
1367.58	100.999
1370.33	104.25
1373.09	104.357
1375.84	104.648
1378.58	113.465
1381.33	116.004
1384.08	185
1386.82	633
1389.57	919
1392.31	265
1395.06	127
1397.8	91.3857
1400.54	90.1429
1403.28	94.4857
1406.02	104.543
1408.75	126.761
1411.49	123.587
1414.22	104.311
1416.96	94.2675
1419.69	85.857
1422.42	84.1474
1425.15	83.6935
1427.88	83.9622
1430.61	82.6173
1433.34	81.3299
1436.07	79.8457
1438.79	78.4692
1441.52	77.325
1444.24	76.5225
1446.96	76.2884
1449.69	76.6518
1452.41	77.667
1455.13	79.1549
1457.84	79.7887
1460.56	80.4349
1463.28	80.863
1465.99	80.2044
1468.71	79.8236
1471.42	79.6949
1474.13	79.538
1476.84	79.1869
1479.55	78.0309
1482.26	75.4081
1484.97	72.6874
1487.68	71.6051
1490.39	71.7321
1493.09	71.8231
1495.79	72.4313
1498.5	73.1622
1501.2	73.9395
1503.9	74.692
1506.6	75.2733
1509.3	75.173
1512	74.5876
1514.69	73.7386
1517.39	72.7937
1520.08	71.8356
1522.78	71.5899
1525.47	71.91
1528.16	72.7801
1530.85	74.0825
1533.54	74.8986
1536.23	75.4997
1538.92	75.0588
1541.61	72.8545
1544.29	70.7402
1546.98	69.7049
1549.66	68.8144
1552.34	67.6376
1555.02	65.1975
1557.7	68.7672
1560.38	74.4967
1563.06	75.1903
1565.74	74.9851
1568.42	74.4739
1571.09	73.5031
1573.77	72.0745
1576.44	71.8992
1579.11	74.7129
1581.78	74.2758
1584.45	73.1929
1587.12	71.1586
1589.79	70.4526
1592.46	71.4161
1595.12	71.5618
1597.79	71.768
1600.45	71.1939
1603.12	70.7599
1605.78	70.655
1608.44	70.8459
1611.1	71.4274
1613.76	72.4342
1616.42	73.9752
1619.08	74.0834
1621.73	73.7796
1624.39	72.9819
1627.04	72.3525
1629.7	72.1673
1632.35	73.0097
1635	73.3628
1637.65	73.8997
1640.3	74.1596
1642.95	73.6608
1645.59	72.9251
1648.24	72.0915
1650.88	71.1643
1653.53	70.1836
1656.17	68.7913
1658.82	68.9318
1661.46	68.6978
1664.1	68.3372
1666.74	69.5629
1669.37	71.2923
1672.01	72.627
1674.65	73.6243
1677.28	74.1749
1679.92	74.1626
1682.55	73.6917
1685.18	72.6622
1687.82	71.1044
1690.44	69.7923
1693.07	69.0592
1695.7	69.0894
1698.33	68.7887
1700.96	68.6856
1703.58	68.555
1706.21	69.9081
1708.83	69.6199
1711.45	69.3949
1714.07	69.3287
1716.69	69.456
1719.31	69.3549
1721.93	70.3484
1724.55	71.7112
1727.17	76.4132
1729.78	75.2037
1732.4	74.0503
1735.01	72.8914
1737.62	72.1791
1740.23	71.8315
1742.85	72.1022
1745.46	72.5801
1748.07	73.3808
1750.67	74.0181
1753.28	74.3638
1755.89	74.0114
1758.49	73.1341
1761.09	71.9181
1763.7	66.8613
1766.3	69.25
1768.9	70.1603
1771.5	69.8283
1774.1	70.0933
1776.7	70.2213
1779.29	70.6693
1781.89	71.6735
1784.49	72.5914
1787.08	73.1189
1789.67	73.4748
1792.27	73.6624
1794.86	73.5486
1797.45	72.95
1800.04	71.7149
1802.62	70.5445
1805.21	69.4887
1807.8	68.8234
1810.38	68.5323
1812.97	68.7683
1815.55	69.6153
1818.14	71.0715
1820.72	72.6621
1823.3	73.7269
1825.88	74.1583
1828.46	74.0086
1831.03	73.2057
1833.61	70.7885
1836.19	69.0697
1838.76	68.1895
1841.34	68.1717
1843.91	68.146
1846.48	68.4296
1849.05	68.4068
1851.62	68.7693
1854.19	70.7869
1856.76	73.9126
1859.33	72.6898
1861.89	69.2995
1864.46	66.933
1867.02	66.5833
1869.59	68.5974
1872.15	70.0838
1874.71	70.108
1877.27	69.6964
1879.83	69.9608
1882.39	70.5269
1884.95	70.8338
1887.51	70.1887
1890.06	69.5496
1892.62	68.7692
1895.17	68.1334
1897.72	68.314
1900.27	68.5058
1902.83	68.8489
1905.38	69.1975
1907.93	69.0783
1910.47	68.5101
1913.02	68.0955
1915.57	67.8298
1918.11	67.8329
1920.66	67.9177
1923.2	68.1328
1925.74	68.3005
1928.29	68.3642
1930.83	67.3181
1933.37	65.0571
1935.91	63.5123
1938.44	64.6282
1940.98	65.9414
1943.52	66.8546
1946.05	67.6197
1948.59	68.2999
1951.12	68.8405
1953.65	68.9256
1956.18	68.332
1958.72	67.5039
1961.25	66.8211
1963.77	66.2025
1966.3	66.3976
1968.83	66.8321
1971.35	67.036
1973.88	67.1226
1976.4	66.9148
1978.93	66.8218
1981.45	66.7405
1983.97	66.8313
1986.49	67.0203
1989.01	67.1316
1991.53	66.9508
1994.05	66.5041
1996.56	66.077
1999.08	66.3541
2001.59	66.7776
2004.11	67.2768
2006.62	67.8684
2009.13	68.4134
2011.64	68.522
2014.15	67.8027
2016.66	66.9042
2019.17	66.1912
2021.68	65.8469
2024.18	65.5042
2026.69	65.4044
2029.19	64.8951
2031.7	64.5019
2034.2	64.0106
2036.7	64.0253
2039.2	65.2668
2041.7	67.0671
2044.2	69.6061
2046.7	71.5101
2049.2	72.1362
2051.7	71.8503
2054.19	70.8662
2056.69	68.8153
2059.18	66.7104
2061.67	64.7492
2064.16	63.8053
2066.65	63.9944
2069.15	64.8201
2071.63	65.8657
2074.12	67.6263
2076.61	69.1393
2079.1	70.1715
2081.58	70.8626
2084.07	70.7426
2086.55	70.2794
2089.03	70.4872
2091.51	70.8334
2094	70.5767
2096.47	69.6747
2098.95	68.0257
2101.43	66.7841
2103.91	65.9551
2106.39	66.1967
2108.86	66.6605
2111.34	67.4065
2113.81	68.0746
2116.28	68.602
2118.76	68.8201
2121.23	69.0655
2123.7	67.6846
2126.17	67.1393
2128.63	66.8386
2131.1	65.9365
2133.57	65.3866
2136.03	65.2502
2138.5	65.5513
2140.96	65.94
2143.43	66.6018
2145.89	67.0496
2148.35	67.6326
2150.81	68.3763
2153.27	69.0364
2155.73	69.4202
2158.18	69.015
2160.64	67.7712
2163.1	65.9982
2165.55	64.8196
2168	64.9173
2170.46	65.192
2172.91	65.0444
2175.36	64.8449
2177.81	64.577
2180.26	64.2825
2182.71	63.9377
2185.16	63.1128
2187.6	63.077
2190.05	63.3414
2192.5	63.6229
2194.94	63.8933
2197.38	64.3113
2199.83	64.8628
2202.27	65.4218
2204.71	66.2732
2207.15	66.584
2209.59	66.805
2212.02	66.9997
2214.46	65.7568
2216.9	65.1404
2219.33	64.9804
2221.77	65.0844
2224.2	65.3517
2226.64	64.3909
2229.07	65.5044
2231.5	66.6715
2233.93	69.0523
2236.36	70.1303
2238.79	70.0891
2241.21	69.158
2243.64	67.9635
2246.06	66.6696
2248.49	65.8495
2250.91	65.2818
2253.34	64.7825
2255.76	64.3547
2258.18	64.1735
2260.6	64.3583
2263.02	64.1543
2265.44	64.1882
2267.86	64.189
2270.27	64.4728
2272.69	64.8849
2275.11	65.2923
2277.52	65.7866
2279.93	66.5188
2282.35	67.2926
2284.76	67.408
2287.17	67.6359
2289.58	68.4096
2291.99	69.2445
2294.4	69.2417
2296.8	69.6983
2299.21	66.9369
2301.62	67.1884
2304.02	67.9163
2306.43	68.294
2308.83	68.1427
2311.23	67.5957
2313.63	66.9409
2316.03	66.2812
2318.43	67.2683
2320.83	68.8359
2323.23	70.2263
2325.63	72.8474
2328.02	74.9243
2330.42	74.4852
2332.81	72.8069
2335.21	71.6037
2337.6	70.2874
2339.99	68.9344
2342.38	67.6287
2344.77	66.689
2347.16	65.8597
2349.55	65.3105
2351.94	64.9927
2354.32	64.0638
2356.71	63.1528
2359.1	63.1995
2361.48	64.0346
2363.86	65.6457
2366.25	66.1953
2368.63	65.3012
2371.01	64.1508
2373.39	63.0562
2375.77	62.1823
2378.15	61.6726
2380.52	61.5485
2382.9	61.7837
2385.28	62.3249
2387.65	63.094
2390.03	64.0343
2392.4	64.762
2394.77	67.7643
2397.14	63.9642
2399.51	63.4468
2401.88	62.9058
2404.25	62.5763
2406.62	61
2408.99	64.7206
2411.35	63.8764
2413.72	63.0351
2416.08	61.3864
2418.45	62.4941
2420.81	63.651
2423.17	65.0409
2425.53	67.2242
2427.89	68.564
2430.25	68.6992
2432.61	67.9666
2434.97	66.5657
2437.33	65.8047
2439.69	64.9053
2442.04	64.7071
2444.4	64.939
2446.75	65.2161
2449.1	65.6405
2451.45	64.3437
2453.81	64.3168
2456.16	61.6169
2458.51	60.418
2460.85	61.5316
2463.2	61.5691
2465.55	62.0814
2467.9	63.0046
2470.24	63.3867
2472.59	63.0238
2474.93	61.4399
2477.27	60.5239
2479.62	60.2411
2481.96	60.8734
2484.3	62.0297
2486.64	63.3215
2488.98	62.3338
2491.31	61.7486
2493.65	64.9276
2495.99	64.4982
2498.32	63.584
2500.66	62.8132
2502.99	62.4091
2505.32	62.3838
2507.66	62.5865
2509.99	63.0938
2512.32	63.4629
2514.65	63.9725
2516.98	64.4468
2519.31	64.8627
2521.63	65.2282
2523.96	65.2293
2526.28	64.8507
2528.61	63.4718
2530.93	62.7462
2533.26	62.6265
2535.58	62.5292
2537.9	61.5869
2540.22	61.4865
2542.54	61.3349
2544.86	61.1247
2547.18	61.0326
2549.5	65.4133
2551.81	66.2463
2554.13	66.3732
2556.44	65.9554
2558.76	65.805
2561.07	65.6949
2563.38	64.2864
2565.69	63.356
2568.01	62.8536
2570.32	63.5373
2572.62	64.5042
2574.93	64.5337
2577.24	63.5517
2579.55	60.1994
2581.85	57.7719
2584.16	56.8371
2586.46	57.2429
2588.77	59.1883
2591.07	60.6033
2593.37	61.9449
2595.67	63.3421
2597.97	64.4598
2600.27	64.8862
2602.57	64.2548
2604.87	62.8005
2607.17	60.8719
2609.46	61.3265
2611.76	61.8361
2614.05	62.3755
2616.35	63.0044
2618.64	63.5647
2620.93	63.81
2623.22	63.7309
2625.51	63.3217
2627.8	63.1226
2630.09	63.1218
2632.38	63.0586
2634.67	62.9763
2636.96	62.9085
2639.24	62.362
2641.53	62.4528
2643.81	62.3076
2646.09	61.846
2648.38	61.4165
2650.66	61.0246
2652.94	60.4925
2655.22	59.6096
2657.5	58.3034
2659.78	58.4533
2662.06	61.008
2664.33	62.5011
2666.61	63.8959
2668.88	63.5916
2671.16	63.1851
2673.43	62.6424
2675.71	62.6074
2677.98	62.3033
2680.25	62.4669
2682.52	62.6418
2684.79	62.5897
2687.06	62.8314
2689.33	63.7029
2691.6	64.7649
2693.86	64.6871
2696.13	63.567
2698.39	62.4191
2700.66	61.3114
2702.92	59.6514
2705.18	57.9579
2707.45	56.2656
2709.71	56.53
2711.97	58.0968
2714.23	60.0639
2716.49	62.0466
2718.74	63.4759
2721	63.4943
2723.26	63.2521
2725.51	63.1087
2727.77	63.001
2730.02	62.8571
2732.28	60.7511
2734.53	60.7246
2736.78	60.8721
2739.03	60.6068
2741.28	62.68
2743.53	63.5947
2745.78	60.8522
2748.03	60.6948
2750.27	61.1349
2752.52	60.4993
2754.77	60.7107
2757.01	59.8987
2759.26	60.0299
2761.5	60.8509
2763.74	61.8633
2765.98	62.9871
2768.22	63.0261
2770.46	63.2262
2772.7	63.3935
2774.94	62.7112
2777.18	61.3745
2779.42	60.2276
2781.65	59.242
2783.89	58.6495
2786.12	58.2565
2788.36	57.9756
2790.59	58.0114
2792.82	58.628
2795.05	59.6916
2797.28	60.0162
2799.51	60.0759
2801.74	60.2926
2803.97	60.5208
2806.2	60.958
2808.43	61.7193
2810.65	60.0035
2812.88	58.9775
2815.1	59.0854
2817.33	60.7251
2819.55	62.1378
2821.77	63.0257
2823.99	63.105
2826.21	62.576
2828.43	61.4777
2830.65	60.4194
2832.87	59.2512
2835.09	59.0157
2837.3	58.6156
2839.52	57.7379
2841.74	58.14
2843.95	58.6924
2846.17	59.2634
2848.38	59.4389
2850.59	59.9464
2852.8	59.6258
2855.01	59.1689
2857.22	58.9322
2859.43	58.15
2861.64	56.6869
2863.85	58.2941
2866.06	59.1988
2868.26	59.3014
2870.47	59.4872
2872.67	59.6591
2874.88	59.8028
2877.08	59.8872
2879.28	59.9313
2881.48	59.8442
2883.68	59.6015
2885.89	59.4069
2888.08	59.3091
2890.28	59.6312
2892.48	60.0998
2894.68	60.8097
2896.87	61.6008
2899.07	63.25
2901.26	63.13
2903.46	62.7478
2905.65	61.7411
2907.85	60.5423
2910.04	59.5607
2912.23	58.7979
2914.42	56.7779
2916.61	55.693
2918.8	55.1336
2920.98	55.0745
2923.17	55.3928
2925.36	55.9416
2927.54	56.6655
2929.73	57.4847
2931.91	58.5823
2934.1	59.708
2936.28	60.8351
2938.46	61.1089
2940.64	60.2833
2942.82	59.4967
2945	59.0161
2947.18	58.2707
2949.36	57.8086
2951.54	57.6611
2953.72	57.7033
2955.89	58.3012
2958.07	58.8656
2960.24	59.0846
2962.42	59.4941
2964.59	60.1038
2966.76	60.1008
2968.93	59.3383
2971.1	58.3524
2973.27	57.607
2975.44	57.4743
2977.61	58.0588
2979.78	58.1973
2981.95	57.3247
2984.11	56.6651
2986.28	56.198
2988.45	56.1997
2990.61	56.8585
2992.77	57.0867
2994.94	57.4342
2997.1	57.403
2999.26	57.2368
3001.42	57.5037
3003.58	57.4506
3005.74	57.1018
3007.9	57.0209
3010.06	57.2132
3012.21	57.5579
3014.37	58.1218
3016.52	58.9551
3018.68	59.9034
3020.83	60.7012
3022.99	60.5912
3025.14	59.7561
3027.29	59.1138
3029.44	58.7777
3031.59	58.6293
3033.74	58.4969
3035.89	59.0043
3038.04	58.2921
3040.19	57.1345
3042.33	56.7058
3044.48	57.1114
3046.62	59.3657
3048.77	60.2928
3050.91	59.9275
3053.05	59.5319
3055.2	58.7467
3057.34	58.6395
3059.48	59.1234
3061.62	58.4178
3063.76	58.0716
3065.9	58.0777
3068.03	58.1317
3070.17	58.2758
3072.31	57.3829
3074.44	56.7335
3076.58	57.0113
3078.71	58.3751
3080.85	59.9657
3082.98	60.8481
3085.11	61.624
3087.24	61.8787
3089.37	59.9952
3091.5	57.6666
3093.63	56.6279
3095.76	56.5373
3097.89	57.4988
3100.02	59.5896
3102.14	61.4836
3104.27	62.9378
3106.39	63.5556
3108.52	63.4941
3110.64	62.7263
3112.76	62.2442
3114.89	61.9323
3117.01	60.6007
3119.13	60.5037
3121.25	60.8629
3123.37	61.3559
3125.49	61.52
3127.6	60.8393
3129.72	61.9927
3131.84	62.16
3133.95	62.4561
3136.07	63.1078
3138.18	63.694
3140.29	63.1635
3142.41	62.0901
3144.52	61.2918
3146.63	60.9519
3148.74	61.208
3150.85	61.4224
3152.96	59.9503
3155.07	58.6031
3157.18	58.6482
3159.28	61.556
3161.39	60.817
3163.5	60.9024
3165.6	61.2281
3167.71	61.5314
3169.81	61.7109
3171.91	62.014
3174.01	63.0673
3176.12	64.0559
3178.22	64.498
3180.32	64.5495
3182.42	64.6263
3184.51	64.8747
3186.61	64.9513
3188.71	65.1066
3190.8	64.2291
3192.9	63.1177
3195	62.0162
3197.09	60.9071
3199.18	61.0758
3201.28	62.6928
3203.37	63.7542
3205.46	64.0199
3207.55	64.1569
3209.64	64.6503
3211.73	64.471
3213.82	64.0232
3215.91	63.2544
3218	62.527
3220.08	62.0682
3222.17	61.9502
3224.25	62.0926
3226.34	62.3785
3228.42	61.6808
3230.5	61.1844
3232.59	61.6175
3234.67	63.6667
3236.75	63.6862
3238.83	63.0797
3240.91	62.2103
3242.99	61.2595
3245.07	60.2593
3247.14	59.1843
3249.22	58.4827
3251.3	57.1697
3253.37	56.2982
3255.45	56.0879
3257.52	56.3007
3259.6	56.6371
3261.67	56.9253
3263.74	57.2363
3265.81	57.4619
3267.88	57.3109
3269.95	56.9035
3272.02	56.1369
3274.09	55.7473
3276.16	56.0558
3278.22	56.2926
3280.29	56.7401
3282.36	56.6416
3284.42	56.8077
3286.49	55.2306
3288.55	53.3499
3290.61	52.3847
3292.68	51.6938
3294.74	51.664
3296.8	52.1888
3298.86	53.9489
3300.92	54.8857
3302.98	55.2969
3305.04	55.0946
3307.09	54.4302
3309.15	53.3895
3311.21	52.0069
3313.26	51.5564
3315.32	52.7457
3317.37	54.1768
3319.42	55.8663
3321.48	56.3572
3323.53	55.9372
3325.58	55.5348
3327.63	55.2063
3329.68	54.5291
3331.73	53.2621
3333.78	53.0258
3335.83	54.5516
3337.87	55.3281
3339.92	54.8515
3341.97	54.6332
3344.01	54.4921
3346.06	53.7203
3348.1	54.2105
3350.14	55.078
3352.19	56.0446
3354.23	55.6873
3356.27	55.2712
3358.31	55.0624
3360.35	54.9026
3362.39	54.8754
3364.43	55.0277
3366.47	54.8264
3368.5	52.9023
3370.54	52.63
3372.58	54.7819
3374.61	56.3567
3376.65	56.6916
3378.68	56.1214
3380.71	56.3797
3382.74	56.0295
3384.78	55.9788
3386.81	56.9525
3388.84	58.1198
3390.87	59.1382
3392.9	59.8031
3394.93	59.81
3396.95	59.0145
3398.98	58.0901
3401.01	56.7102
3403.03	57.7689
3405.06	58.3994
3407.08	58.918
3409.1	54.3933
3411.13	51.1381
3413.15	52.9116
3415.17	56.1894
3417.19	58.2373
3419.21	57.5063
3421.23	58.0673
3423.25	58.6419
3425.27	58.9514
3427.29	59.0057
3429.31	58.7355
3431.32	58.3007
3433.34	57.6269
3435.35	56.7315
3437.37	55.826
3439.38	54.8356
3441.39	54.1804
3443.41	53.4036
3445.42	51.4989
3447.43	49.9354
3449.44	49.6806
3451.45	50.832
3453.46	51.422
3455.47	52.3467
3457.47	53.0768
3459.48	52.7252
3461.49	51.0451
3463.49	49.7169
3465.5	48.8163
3467.5	49.0868
3469.51	50.2421
3471.51	52.3745
3473.51	53.1999
3475.51	51.9857
3477.52	51.3807
3479.52	50.8694
3481.52	50.3603
3483.52	49.6948
3485.51	48.7488
3487.51	47.7926
3489.51	46.91
3491.51	47.009
3493.5	47.9789
3495.5	49.6467
3497.49	49.8446
3499.49	49.9
3501.48	49.9336
3503.47	49.9083
3505.46	49.7668
3507.45	50.3414
3509.45	50.7344
3511.44	50.8173
3513.43	50.7094
3515.41	50.5371
3517.4	50.4093
3519.39	50.4578
3521.38	50.858
3523.36	51.0234
3525.35	51.0359
3527.33	51.304
3529.32	50.8521
3531.3	49.8633
3533.28	47.0479
3535.27	45.2445
3537.25	44.7432
3539.23	44.74
3541.21	45.0534
3543.19	45.4796
3545.17	45.8441
3547.15	46.6875
3549.12	47.7877
3551.1	48.6107
3553.08	49.9012
3555.05	50.9541
3557.03	51.7535
3559	51.84
3560.98	51.6527
3562.95	51.031
3564.92	50.8285
3566.89	50.9382
3568.87	51.4195
3570.84	52.3126
3572.81	53.3888
3574.78	54.5126
3576.74	56.1084
3578.71	57.9111
3580.68	59.6799
3582.65	61.1965
3584.61	61.2132
3586.58	59.9105
3588.54	58.792
3590.51	58.2541
3592.47	58.4004
3594.43	60.0257
3596.4	58.8176
3598.36	55.9769
3600.32	53.579
3602.28	51.5885
3604.24	50.1476
3606.2	49.1807
3608.16	48.6442
3610.11	47.9342
3612.07	47.407
3614.03	47.2612
3615.98	47.2559
3617.94	47.4646
3619.89	47.5632
3621.85	47.1055
3623.8	46.7591
3625.75	46.5301
3627.71	45.8777
3629.66	45.3331
3631.61	44.9897
3633.56	44.8793
3635.51	45.0138
3637.46	45.451
3639.41	45.3134
3641.35	44.894
3643.3	44.6359
3645.25	45.0825
3647.19	45.7285
3649.14	46.0205
3651.08	46.1468
3653.03	46.2639
3654.97	46.3741
3656.91	46.526
3658.85	46.0522
3660.8	45.3681
3662.74	45.0383
3664.68	44.8258
3666.62	42.3995
3668.56	40.584
3670.49	41.0095
3672.43	41.8386
3674.37	42.6427
3676.3	43.4496
3678.24	44.139
3680.18	44.207
3682.11	44.4969
3684.04	44.7513
3685.98	44.6696
3687.91	44.5068
3689.84	44.2895
3691.77	44.2799
3693.7	45.1637
3695.63	45.0919
3697.56	44.5339
3699.49	43.9698
3701.42	43.4016
3703.35	43.0734
3705.28	42.8255
3707.2	42.729
3709.13	42.8114
3711.05	43.041
3712.98	43.4212
3714.9	43.7732
3716.82	43.8973
3718.75	44.1436
3720.67	45.1197
3722.59	44.7057
3724.51	44.2917
3726.43	43.849
3728.35	42.881
3730.27	42.2346
3732.19	41.8259
3734.11	42.4889
3736.02	42.5267
3737.94	42.3997
3739.86	42.0545
3741.77	41.6182
3743.69	40.9509
3745.6	40.3708
3747.51	40.7358
3749.43	41.5452
3751.34	43.0805
3753.25	44.2623
3755.16	44.9032
3757.07	45.1005
3758.98	44.8983
3760.89	43.8761
3762.8	43.1184
3764.71	42.1853
3766.61	40.9384
3768.52	40.0128
3770.43	39.3901
3772.33	39.0168
3774.24	38.9753
3776.14	39.2794
3778.05	39.9905
3779.95	41.2273
3781.85	42.9448
3783.75	43.5812
3785.65	42.907
3787.55	41.8792
3789.45	41.8933
3791.35	42.0314
3793.25	41.3498
3795.15	40.2153
3797.05	39.1505
3798.95	38.6223
3800.84	38.656
3802.74	39.7655
3804.63	40.4114
3806.53	39.9434
3808.42	39.9089
3810.31	41.0356
3812.21	41.8394
3814.1	41.7687
3815.99	41.555
3817.88	41.273
3819.77	41.1792
3821.66	41.1595
3823.55	40.9324
3825.44	40.579
3827.33	40.1786
3829.21	40.37
3831.1	40.9697
3832.99	41.5607
3834.87	41.9991
3836.76	42.1527
3838.64	42.1468
3840.52	41.8443
3842.41	41.4337
3844.29	40.8998
3846.17	39.7182
3848.05	39.3137
3849.93	39.3082
3851.81	40.1043
3853.69	40.5371
3855.57	41.5265
3857.45	41.928
3859.33	42.0456
3861.21	41.9836
3863.08	40.3534
3864.96	38.4882
3866.83	37.2356
3868.71	36.5807
3870.58	37.3962
3872.46	38.1748
3874.33	39.5123
3876.2	40.3573
3878.07	41.429
3879.94	42.1094
3881.81	40.949
3883.68	39.9901
3885.55	39.1925
3887.42	38.7869
3889.29	38.9299
3891.16	39.1408
3893.02	39.7486
3894.89	40.5922
3896.76	41.319
3898.62	40.2132
3900.49	40.5014
3902.35	40.6666
3904.21	40.8022
3906.08	40.9995
3907.94	40.7501
3909.8	40.7069
3911.66	41.0552
3913.52	41.3295
3915.38	41.3706
3917.24	40.8189
3919.1	40.1118
3920.96	39.4499
3922.82	38.8028
3924.67	38.1326
3926.53	37.5332
3928.38	37.6375
3930.24	38.9538
3932.09	39.7559
3933.95	39.2983
3935.8	38.7716
3937.65	38.5375
3939.51	38.0883
3941.36	38.8341
3943.21	38.5667
3945.06	38.7052
3946.91	38.5287
3948.76	36.1567
3950.61	37.5956
3952.46	39.486
3954.3	39.9088
3956.15	39.7807
3958	39.7961
3959.84	41.0063
3961.69	40.4722
3963.53	38.8048
3965.38	38.1727
3967.22	37.4803
3969.06	38.7357
3970.91	39.0397
3972.75	38.9193
3974.59	38.8761
3976.43	38.8461
3978.27	39.0213
3980.11	39.1108
3981.95	37.5048
3983.78	37.2671
3985.62	36.9029
3987.46	37.0496
3989.3	37.7641
3991.13	37.6002
3992.97	37.5902
3994.8	38.1923
3996.64	39.0879
3998.47	40.0226
