#Acq. time (s)=	20
#Accumulations=	3
#Range (cm-¹)=	100...4000
#Windows=	1
#Auto scanning=	Off
#Autofocus=	Off
#Macrospot=	Off
#AutoExposure=	Off
#Spike filter=	Multiple accum.
#Delay time (s)=	0
#Binning=	1
#Readout mode=	Signal
#DeNoise=	Lite
#ICS correction=	Off
#Dark correction=	Off
#Inst. Process=	Off
#Detector temperature (°C)=	-60.09
#Instrument=	LabRAM HR Evol
#Detector=	SIN-EM FIVIS
#Objective=	x50_VIS_LWD
#Grating=	150 (500nm)
#ND Filter=	100%
#Laser=	633nm_Edge
#Hole=	30.0125
#Temperature=	0
#Range=	Visible
#StageXY=	75x50mm Scan+
#StageZ=	Z motor
#X (µm)=	7377.7
#Y (µm)=	4349.7
#Z (µm)=	-28.6
#Full time(mm:ss)=	1:02
#Project=	Buranga
#Sample=	BU18FA20_C
#Site=	C_Bertoss1
#Title=	20-C_brt1_FI10
#Remark=	
#Date=	30.07.2019 14:35
#Acquired=	30.07.2019 14:35:08
100.38	491.067
103.641	454.472
106.898	407.84
110.156	374.073
113.411	341.689
116.666	318.502
119.918	295.197
123.17	271.887
126.419	250.878
129.669	233.037
132.916	217.883
136.163	209.302
139.407	202.128
142.651	195.599
145.892	189.354
149.134	183.42
152.372	178.058
155.611	170.195
158.847	162.188
162.083	153.828
165.316	151.236
168.548	162.659
171.781	160.822
175.01	155.318
178.239	146.669
181.466	138.737
184.693	136.871
187.917	136.084
191.139	135.187
194.362	134.218
197.582	132.933
200.802	131.595
204.02	130.049
207.236	128.316
210.452	126.749
213.665	125.638
216.877	125.884
220.089	125.709
223.299	127.044
226.508	129.03
229.715	132.336
232.92	148.281
236.126	162.799
239.329	209.272
242.53	255.144
245.732	253.231
248.931	225.338
252.128	193.071
255.326	178.529
258.521	169.183
261.714	163.634
264.906	161.719
268.099	163.72
271.288	172.175
274.477	175.3
277.665	190.649
280.851	204.961
284.035	231
287.218	285.775
290.402	287.944
293.582	273.414
296.761	241.218
299.939	212.568
303.117	188.653
306.293	167.631
309.466	153.056
312.639	145.668
315.811	143.636
318.982	148.598
322.151	162.321
325.318	184.206
328.484	240.91
331.651	288.853
334.814	305.985
337.977	276.31
341.138	229.911
344.297	193.283
347.456	166.73
350.614	153.98
353.77	146.265
356.925	144.907
360.078	153.061
363.23	166.103
366.381	177.339
369.53	186.882
372.68	186.341
375.827	180.581
378.972	166.58
382.116	151.523
385.259	138.666
388.401	127.798
391.541	119.674
394.681	113.576
397.818	109.628
400.956	107.88
404.092	108.726
407.226	111.757
410.359	116.426
413.49	118.865
416.62	122.111
419.749	127.114
422.877	132.652
426.003	143.8
429.128	157.914
432.252	174.847
435.375	194.115
438.496	211.898
441.616	224.3
444.735	234.413
447.852	234.981
450.969	229.217
454.084	220.999
457.197	211.831
460.31	201.061
463.421	189.584
466.531	178.039
469.64	166.146
472.747	151.41
475.853	136.833
478.958	125.113
482.062	119.571
485.164	118.804
488.265	118.602
491.365	118.672
494.464	118.308
497.561	118.306
500.657	118.677
503.752	119.231
506.844	120.081
509.937	121.653
513.028	123.023
516.117	126.032
519.206	125.344
522.293	123.798
525.38	124.262
528.464	123.576
531.548	123.832
534.63	121.895
537.71	119.41
540.79	117.401
543.869	115.733
546.946	114.337
550.022	113.267
553.097	112.407
556.169	111.941
559.242	111.811
562.313	111.85
565.383	111.153
568.452	108.978
571.519	106.651
574.584	105.159
577.649	104.726
580.713	103.206
583.775	104.687
586.837	109.425
589.895	116.026
592.954	125.125
596.012	137.456
599.068	156.43
602.122	184.433
605.176	214.768
608.229	238.742
611.28	213.885
614.329	197.126
617.378	181.492
620.426	175.299
623.473	171.943
626.517	174.479
629.561	178.094
632.604	181.773
635.644	184.398
638.684	185.189
641.724	182.935
644.76	178.086
647.797	172.908
650.833	167.5
653.867	172.425
656.899	180.731
659.931	191.676
662.96	199.121
665.99	197.586
669.018	186.996
672.044	170.431
675.07	152.981
678.095	137.436
681.117	123.908
684.139	113.24
687.16	104.804
690.179	99.2211
693.197	95.7598
696.213	93.5062
699.23	91.9259
702.245	91.0806
705.257	90.3571
708.27	89.7534
711.28	89.8048
714.29	90.0454
717.298	89.6702
720.306	89.4323
723.312	89.0971
726.316	88.138
729.321	85.9436
732.322	85.6539
735.324	86.1931
738.323	86.3294
741.323	86.5894
744.32	86.8488
747.317	86.1873
750.311	85.8894
753.306	86.0198
756.298	86.337
759.291	86.6176
762.28	87.0088
765.27	87.3735
768.258	86.7526
771.245	85.8182
774.23	84.6945
777.215	83.429
780.198	82.7198
783.179	82.3441
786.161	82.292
789.14	80.7149
792.119	79.3323
795.096	79.2066
798.073	80.9144
801.047	83.7056
804.021	84.1706
806.994	83.8127
809.965	83.1675
812.936	82.4726
815.904	82.2102
818.871	82.6115
821.839	83.4383
824.804	84.9532
827.769	86.6529
830.732	88.3148
833.693	88.9274
836.655	89.1452
839.614	89.0357
842.572	88.2591
845.53	87.4147
848.485	86.6209
851.44	85.901
854.394	85.3805
857.346	85.5494
860.297	85.8505
863.248	86.5394
866.197	87.7228
869.144	87.5356
872.091	87.959
875.037	89.0767
877.981	90.681
880.924	92.6269
883.867	94.2931
886.807	95.8572
889.746	95.7534
892.685	95.8382
895.623	95.8113
898.559	95.8126
901.493	95.2686
904.427	93.9908
907.359	93.0091
910.292	92.2809
913.222	92.001
916.151	92.5658
919.078	93.6674
922.006	95.0267
924.932	96.2326
927.856	96.4965
930.779	97.1497
933.701	98.6318
936.622	101.067
939.543	105.508
942.461	111.45
945.379	119.456
948.295	128.926
951.21	140.15
954.124	153.827
957.037	164.857
959.95	173.622
962.861	180.53
965.77	185.703
968.678	191.191
971.585	199.949
974.491	213.588
977.396	233.824
980.3	255.973
983.202	268.502
986.104	310.552
989.005	390.257
991.904	454.12
994.802	515.471
997.699	479.765
1000.6	431.621
1003.49	389.783
1006.38	354.802
1009.28	327.063
1012.17	306.476
1015.06	293.138
1017.95	305.872
1020.83	319.954
1023.72	340.404
1026.61	367.197
1029.49	394.915
1032.37	399.117
1035.26	348.284
1038.14	301.853
1041.02	259.234
1043.9	212.108
1046.77	192.193
1049.65	179.663
1052.53	169.457
1055.4	161.036
1058.27	153.683
1061.15	147.144
1064.02	139.987
1066.88	133.72
1069.75	129.661
1072.62	128.513
1075.49	130.529
1078.35	136.595
1081.22	145.903
1084.08	156.208
1086.94	166.719
1089.8	174.748
1092.66	180.152
1095.52	181.477
1098.38	184.713
1101.23	188.167
1104.09	200.355
1106.94	199.643
1109.8	185.696
1112.65	166.161
1115.5	146.881
1118.35	131.053
1121.2	118.463
1124.05	109.233
1126.89	105.164
1129.74	103.96
1132.58	105.073
1135.42	107.289
1138.27	110.155
1141.11	114.05
1143.95	119.114
1146.78	125.518
1149.62	132.879
1152.46	138.652
1155.29	152.1
1158.13	160.549
1160.96	158.873
1163.79	145.48
1166.62	127.976
1169.45	114.26
1172.28	104.788
1175.11	100.924
1177.93	98.2241
1180.76	96.2077
1183.59	94.4538
1186.41	92.8005
1189.23	90.167
1192.05	87.2373
1194.87	84.4809
1197.69	82.0856
1200.51	79.4117
1203.32	77.7326
1206.14	76.4514
1208.95	75.4818
1211.77	74.8464
1214.58	74.4861
1217.39	74.2116
1220.2	74.4494
1223.01	74.9254
1225.82	75.5208
1228.62	76.1244
1231.43	76.9049
1234.23	77.2359
1237.04	76.7847
1239.84	75.6804
1242.64	74.7021
1245.44	73.793
1248.24	72.747
1251.04	72.1162
1253.83	72.5253
1256.63	76.8322
1259.42	80.851
1262.22	85.7006
1265.01	88.5086
1267.8	87.9277
1270.59	87.5244
1273.38	85.8535
1276.17	89.9953
1278.96	92.2998
1281.74	186
1284.53	389
1287.31	240
1290.1	112.97
1292.88	86.2034
1295.66	81.9934
1298.44	79.5769
1301.22	77.8381
1303.99	76.76
1306.77	76.0301
1309.55	75.7602
1312.32	75.7741
1315.09	75.9228
1317.87	75.9542
1320.64	75.6421
1323.41	74.9853
1326.18	74.3922
1328.94	73.8815
1331.71	73.4182
1334.48	73.42
1337.24	73.5869
1340	73.9717
1342.77	74.364
1345.53	74.0695
1348.29	72.9844
1351.05	71.8185
1353.81	71.6259
1356.56	72.2625
1359.32	73.6126
1362.08	74.6285
1364.83	76.052
1367.58	78.0888
1370.33	80.7477
1373.09	81.4511
1375.84	81.2209
1378.58	85.715
1381.33	91.0527
1384.08	120.608
1386.82	398
1389.57	561
1392.31	190
1395.06	96
1397.8	87.9888
1400.54	72.7935
1403.28	75.358
1406.02	91.6415
1408.75	100.201
1411.49	99.84
1414.22	89.7519
1416.96	83.1245
1419.69	80.4802
1422.42	78.2648
1425.15	75.7739
1427.88	73.3195
1430.61	71.295
1433.34	69.9911
1436.07	68.8746
1438.79	67.9879
1441.52	67.7607
1444.24	67.8969
1446.96	68.7449
1449.69	69.939
1452.41	70.2291
1455.13	69.4806
1457.84	67.0898
1460.56	65.6273
1463.28	65.1402
1465.99	65.2771
1468.71	66.0154
1471.42	67.0255
1474.13	67.9285
1476.84	66.3724
1479.55	64.2254
1482.26	64.0176
1484.97	65.6499
1487.68	66.6384
1490.39	67.4961
1493.09	68.3748
1495.79	69.1379
1498.5	69.8056
1501.2	68.6328
1503.9	66.5301
1506.6	64.7907
1509.3	63.6446
1512	63.1807
1514.69	63.6088
1517.39	64.0373
1520.08	64.8452
1522.78	65.3791
1525.47	66.5387
1528.16	65.082
1530.85	64.4182
1533.54	63.8648
1536.23	64.3621
1538.92	64.5945
1541.61	64.8915
1544.29	65.2656
1546.98	65.3766
1549.66	65.3755
1552.34	65.1553
1555.02	64.7058
1557.7	63.8825
1560.38	63.052
1563.06	62.3422
1565.74	62.8436
1568.42	63.7454
1571.09	64.8033
1573.77	65.2897
1576.44	66.0541
1579.11	66.2596
1581.78	66.3944
1584.45	65.9675
1587.12	66.2383
1589.79	67.3847
1592.46	68.6272
1595.12	69.2269
1597.79	68.8274
1600.45	68.215
1603.12	67.598
1605.78	67.0973
1608.44	66.0347
1611.1	65.8644
1613.76	66.2159
1616.42	67.0624
1619.08	67.7876
1621.73	68.2055
1624.39	68.3897
1627.04	68.2752
1629.7	67.8313
1632.35	67.347
1635	66.8645
1637.65	66.4173
1640.3	65.9279
1642.95	65.464
1645.59	65.0754
1648.24	64.7575
1650.88	64.3355
1653.53	64.0615
1656.17	63.8896
1658.82	63.7688
1661.46	63.7745
1664.1	64.4372
1666.74	65.1589
1669.37	65.6344
1672.01	66.007
1674.65	66.0929
1677.28	65.7498
1679.92	65.4312
1682.55	64.887
1685.18	64.4036
1687.82	64.5796
1690.44	65.1689
1693.07	65.7988
1695.7	66.3777
1698.33	66.3638
1700.96	67.4184
1703.58	67.9892
1706.21	67.1407
1708.83	65.7366
1711.45	64.3682
1714.07	63.3004
1716.69	62.488
1719.31	61.8881
1721.93	61.4669
1724.55	61.1923
1727.17	61.2656
1729.78	61.2775
1732.4	61.9108
1735.01	63.0301
1737.62	64.4512
1740.23	64.5885
1742.85	63.4543
1745.46	62.0852
1748.07	61.0438
1750.67	60.2989
1753.28	60.4039
1755.89	60.7194
1758.49	61.1225
1761.09	61.4296
1763.7	61.6239
1766.3	61.7051
1768.9	61.8327
1771.5	62.1061
1774.1	62.4092
1776.7	62.8553
1779.29	63.4774
1781.89	64.2711
1784.49	64.9183
1787.08	64.6576
1789.67	63.8748
1792.27	62.8534
1794.86	62.1494
1797.45	61.8114
1800.04	61.9523
1802.62	63.2131
1805.21	63.9342
1807.8	64.3755
1810.38	64.533
1812.97	64.3236
1815.55	63.8221
1818.14	63.0426
1820.72	62.1288
1823.3	61.9844
1825.88	62.2216
1828.46	62.4279
1831.03	62.6117
1833.61	62.7327
1836.19	63.5831
1838.76	64.3998
1841.34	64.7648
1843.91	64.8656
1846.48	64.5432
1849.05	63.756
1851.62	62.9156
1854.19	61.7132
1856.76	60.3277
1859.33	59.1695
1861.89	58.4107
1864.46	58.5912
1867.02	63.5814
1869.59	63.6019
1872.15	63.0501
1874.71	61.1553
1877.27	59.8149
1879.83	59.7645
1882.39	60.9394
1884.95	63.2085
1887.51	63.7317
1890.06	63.6478
1892.62	63.4499
1895.17	63.1815
1897.72	62.9079
1900.27	62.5132
1902.83	62.5174
1905.38	61.8105
1907.93	61.5397
1910.47	62.4284
1913.02	62.5626
1915.57	62.0708
1918.11	61.5427
1920.66	61.0081
1923.2	60.5059
1925.74	59.8638
1928.29	59.3029
1930.83	59.2662
1933.37	59.8369
1935.91	61.001
1938.44	61.1052
1940.98	62.0459
1943.52	63.1199
1946.05	63.6879
1948.59	63.9738
1951.12	64.3766
1953.65	64.6422
1956.18	64.7
1958.72	64.433
1961.25	64.0297
1963.77	63.5044
1966.3	63.4091
1968.83	63.567
1971.35	64.49
1973.88	64.6115
1976.4	64.2593
1978.93	63.5013
1981.45	63.2785
1983.97	63.3463
1986.49	63.3869
1989.01	63.537
1991.53	63.7458
1994.05	63.6546
1996.56	63.1257
1999.08	62.5009
2001.59	61.9351
2004.11	61.5328
2006.62	61.2419
2009.13	61.0768
2011.64	60.9166
2014.15	59.2493
2016.66	57.82
2019.17	58.1913
2021.68	59.2908
2024.18	61.831
2026.69	62.9128
2029.19	63.9187
2031.7	64.7474
2034.2	65.3829
2036.7	65.8555
2039.2	66.2652
2041.7	66.1709
2044.2	64.8362
2046.7	60.3299
2049.2	60.9714
2051.7	62.7663
2054.19	64.0505
2056.69	64.3575
2059.18	64.4035
2061.67	64.3216
2064.16	63.8205
2066.65	63.1281
2069.15	62.3986
2071.63	61.6836
2074.12	61.3844
2076.61	61.3784
2079.1	61.8235
2081.58	62.3702
2084.07	63.3623
2086.55	63.4433
2089.03	63.7022
2091.51	63.7215
2094	63.3328
2096.47	62.8655
2098.95	62.2072
2101.43	61.3909
2103.91	60.922
2106.39	60.9265
2108.86	61.3816
2111.34	62.1142
2113.81	62.801
2116.28	63.4994
2118.76	63.7014
2121.23	63.6496
2123.7	63.4545
2126.17	62.7946
2128.63	62.5401
2131.1	62.1825
2133.57	62.5282
2136.03	62.9375
2138.5	63.3946
2140.96	63.7701
2143.43	63.1511
2145.89	62.6062
2148.35	62.1514
2150.81	62.1208
2153.27	62.4347
2155.73	61.1508
2158.18	60.068
2160.64	59.8503
2163.1	59.4072
2165.55	59.3583
2168	59.9836
2170.46	61.1304
2172.91	63.1395
2175.36	63.0046
2177.81	63.7649
2180.26	64.5388
2182.71	64.2822
2185.16	64.0198
2187.6	64.05
2190.05	64.5147
2192.5	65.4446
2194.94	61.1663
2197.38	58.644
2199.83	55.6067
2202.27	58.6722
2204.71	62.3595
2207.15	64.4482
2209.59	64.3191
2212.02	64.337
2214.46	64.2305
2216.9	63.0731
2219.33	62.527
2221.77	62.7514
2224.2	62.6494
2226.64	62.4467
2229.07	62.3093
2231.5	62.6197
2233.93	62.9397
2236.36	63.2438
2238.79	63.3056
2241.21	63.3407
2243.64	62.9839
2246.06	62.6675
2248.49	62.4115
2250.91	62.6034
2253.34	62.8562
2255.76	61.8484
2258.18	60.7431
2260.6	60.42
2263.02	61.0066
2265.44	62.1428
2267.86	63.0923
2270.27	63.7439
2272.69	63.8528
2275.11	63.6438
2277.52	63.2492
2279.93	62.8149
2282.35	61.9046
2284.76	60.4797
2287.17	59.4819
2289.58	59.4514
2291.99	60.6336
2294.4	61.895
2296.8	63.2318
2299.21	64.3881
2301.62	64.9309
2304.02	64.6352
2306.43	64.0857
2308.83	63.5464
2311.23	63.2518
2313.63	63.1397
2316.03	63.3498
2318.43	64.083
2320.83	65.0589
2323.23	65.9814
2325.63	66.902
2328.02	68.4656
2330.42	69.5965
2332.81	67.9037
2335.21	66.8042
2337.6	65.5725
2339.99	64.3706
2342.38	65.4048
2344.77	66.4586
2347.16	66.9103
2349.55	67.2003
2351.94	66.3134
2354.32	64.7396
2356.71	63.0775
2359.1	61.302
2361.48	60.8159
2363.86	60.5317
2366.25	60.3254
2368.63	60.6954
2371.01	61.1253
2373.39	60.8589
2375.77	60.3933
2378.15	59.8639
2380.52	59.7314
2382.9	60.6168
2385.28	60.977
2387.65	61.0312
2390.03	61.1975
2392.4	61.522
2394.77	62.0289
2397.14	62.2254
2399.51	62.1105
2401.88	61.2276
2404.25	59.5104
2406.62	58.2468
2408.99	58.8099
2411.35	60.5081
2413.72	62.2339
2416.08	61.8606
2418.45	61.6919
2420.81	61.9491
2423.17	62.8733
2425.53	62.9667
2427.89	62.3362
2430.25	62.0424
2432.61	61.9095
2434.97	61.5251
2437.33	60.9731
2439.69	61.0256
2442.04	61.4296
2444.4	61.9944
2446.75	62.6683
2449.1	63.6056
2451.45	63.7419
2453.81	62.249
2456.16	60.9613
2458.51	60.0111
2460.85	59.5808
2463.2	59.3916
2465.55	59.6118
2467.9	60.5492
2470.24	61.7903
2472.59	63.0768
2474.93	63.4455
2477.27	62.421
2479.62	61.1555
2481.96	60.2315
2484.3	60.0199
2486.64	60.1435
2488.98	60.9543
2491.31	61.0084
2493.65	61.1045
2495.99	61.1604
2498.32	61.1093
2500.66	60.9108
2502.99	60.5544
2505.32	59.9455
2507.66	59.2006
2509.99	58.3147
2512.32	58.1649
2514.65	58.8432
2516.98	59.6109
2519.31	60.1877
2521.63	60.6018
2523.96	60.8631
2526.28	61.0794
2528.61	60.9196
2530.93	59.8125
2533.26	59.2154
2535.58	59.1164
2537.9	59.2108
2540.22	59.0975
2542.54	60.5245
2544.86	61.969
2547.18	63.3225
2549.5	64.0824
2551.81	64.4457
2554.13	64.4187
2556.44	63.915
2558.76	63.1711
2561.07	61.3983
2563.38	59.8215
2565.69	57.904
2568.01	56.9033
2570.32	58.6757
2572.62	59.8443
2574.93	60.0742
2577.24	61.2574
2579.55	62.466
2581.85	62.6125
2584.16	62.4046
2586.46	62.068
2588.77	61.6288
2591.07	61.2703
2593.37	60.9743
2595.67	60.8575
2597.97	60.7331
2600.27	60.8697
2602.57	61.1191
2604.87	60.9192
2607.17	60.655
2609.46	61.7379
2611.76	63.0396
2614.05	62.6366
2616.35	60.5925
2618.64	60.0487
2620.93	60.2246
2623.22	60.8963
2625.51	61.6362
2627.8	62.2464
2630.09	61.8487
2632.38	61.5852
2634.67	61.7489
2636.96	62.1624
2639.24	62.2524
2641.53	61.9564
2643.81	61.5879
2646.09	61.1479
2648.38	60.7554
2650.66	60.2684
2652.94	59.3859
2655.22	58.5757
2657.5	57.6166
2659.78	56.871
2662.06	56.801
2664.33	57.3428
2666.61	58.4146
2668.88	59.5872
2671.16	60.5225
2673.43	61.2609
2675.71	62.2121
2677.98	63.299
2680.25	63.7424
2682.52	63.7678
2684.79	63.6198
2687.06	63.3572
2689.33	62.9946
2691.6	62.1521
2693.86	61.1138
2696.13	60.636
2698.39	60.9402
2700.66	60.5702
2702.92	59.7632
2705.18	58.9005
2707.45	57.8249
2709.71	55.6913
2711.97	55.9354
2714.23	56.8183
2716.49	57.8935
2718.74	59.0934
2721	59.9794
2723.26	60.7476
2725.51	61.2833
2727.77	61.8594
2730.02	61.9154
2732.28	62.2527
2734.53	62.3387
2736.78	61.8648
2739.03	60.5519
2741.28	59.7249
2743.53	59.6784
2745.78	60.1818
2748.03	60.7497
2750.27	61.3936
2752.52	62.3129
2754.77	63.024
2757.01	63.3188
2759.26	63.6485
2761.5	63.8888
2763.74	64.0315
2765.98	63.1726
2768.22	62.3891
2770.46	61.8975
2772.7	61.3689
2774.94	59.8429
2777.18	58.7437
2779.42	58.601
2781.65	58.0392
2783.89	57.8978
2786.12	58.7975
2788.36	59.6259
2790.59	59.865
2792.82	60.0123
2795.05	59.9178
2797.28	60.1767
2799.51	60.8542
2801.74	61.2414
2803.97	59.36
2806.2	57.1573
2808.43	57.7915
2810.65	58.8369
2812.88	60.3949
2815.1	60.5673
2817.33	57.1892
2819.55	54.6968
2821.77	54.851
2823.99	55.7744
2826.21	57.2224
2828.43	57.7163
2830.65	58.2591
2832.87	55.7137
2835.09	56.1286
2837.3	60.4012
2839.52	61.2992
2841.74	60.1191
2843.95	58.9898
2846.17	58.4811
2848.38	58.9037
2850.59	57.952
2852.8	57.0927
2855.01	56.9536
2857.22	57.1342
2859.43	57.7595
2861.64	58.2467
2863.85	58.4937
2866.06	58.9602
2868.26	59.1987
2870.47	59.8669
2872.67	60.3274
2874.88	59.691
2877.08	59.3658
2879.28	59.413
2881.48	59.8458
2883.68	60.2977
2885.89	61.2964
2888.08	61.7958
2890.28	62.1676
2892.48	61.3265
2894.68	60.0125
2896.87	58.5631
2899.07	57.9005
2901.26	57.0603
2903.46	56.6366
2905.65	56.4656
2907.85	56.7466
2910.04	56.0816
2912.23	58.3836
2914.42	59.277
2916.61	59.3216
2918.8	57.5955
2920.98	57.1969
2923.17	57.055
2925.36	57.4448
2927.54	57.5642
2929.73	56.857
2931.91	56.6693
2934.1	56.6238
2936.28	56.2921
2938.46	55.7217
2940.64	56.0303
2942.82	56.6495
2945	57.9651
2947.18	59.2046
2949.36	59.1406
2951.54	58.9525
2953.72	58.3994
2955.89	57.9021
2958.07	57.8645
2960.24	58.7626
2962.42	58.4127
2964.59	58.0184
2966.76	58.135
2968.93	58.7239
2971.1	59.2927
2973.27	59.8888
2975.44	59.4698
2977.61	58.7556
2979.78	57.5287
2981.95	56.6488
2984.11	56.4597
2986.28	56.6819
2988.45	54.4943
2990.61	55.3804
2992.77	57.137
2994.94	59.6026
2997.1	60.2033
2999.26	59.7676
3001.42	59.3687
3003.58	59.0265
3005.74	58.6638
3007.9	57.9972
3010.06	57.3677
3012.21	57.4848
3014.37	57.6555
3016.52	58.2506
3018.68	57.9837
3020.83	57.8176
3022.99	57.7234
3025.14	57.8319
3027.29	58.1644
3029.44	58.4696
3031.59	58.2437
3033.74	57.9543
3035.89	57.589
3038.04	57.0903
3040.19	56.5098
3042.33	55.3657
3044.48	56.1661
3046.62	57.3878
3048.77	57.4955
3050.91	57.6286
3053.05	57.3848
3055.2	57.3051
3057.34	57.3745
3059.48	58.1192
3061.62	57.993
3063.76	58.0656
3065.9	59.1512
3068.03	58.5634
3070.17	58.8129
3072.31	59.1102
3074.44	59.9238
3076.58	60.8393
3078.71	61.7117
3080.85	59.8113
3082.98	57.6604
3085.11	56.3564
3087.24	56.2327
3089.37	57.5534
3091.5	58.6384
3093.63	58.9219
3095.76	59.1418
3097.89	59.1242
3100.02	59.2488
3102.14	59.1761
3104.27	59.6612
3106.39	59.3393
3108.52	59.6262
3110.64	60.2536
3112.76	60.525
3114.89	58.8251
3117.01	58.1785
3119.13	59.7646
3121.25	61.6423
3123.37	59.7797
3125.49	59.7484
3127.6	60.7283
3129.72	61.4101
3131.84	61.5898
3133.95	62.0736
3136.07	59.4357
3138.18	60.7063
3140.29	62.2139
3142.41	63.7495
3144.52	63.1583
3146.63	62.6928
3148.74	61.9088
3150.85	60.8409
3152.96	60.4801
3155.07	61.4623
3157.18	61.4497
3159.28	61.1808
3161.39	60.8982
3163.5	60.9113
3165.6	60.4525
3167.71	61.3901
3169.81	62.0567
3171.91	61.949
3174.01	61.849
3176.12	62.6397
3178.22	63.6962
3180.32	64.5539
3182.42	65.1476
3184.51	64.9941
3186.61	64.5962
3188.71	64.2836
3190.8	62.7378
3192.9	59.9555
3195	62.3241
3197.09	62.843
3199.18	61.7345
3201.28	61.9453
3203.37	62.724
3205.46	65.7096
3207.55	66.007
3209.64	65.6777
3211.73	65.3578
3213.82	65.0773
3215.91	64.8911
3218	64.2851
3220.08	62.8346
3222.17	61.247
3224.25	61.2864
3226.34	61.734
3228.42	62.324
3230.5	63.8068
3232.59	64.6339
3234.67	64.3328
3236.75	63.552
3238.83	63.1574
3240.91	62.2851
3242.99	60.963
3245.07	59.8656
3247.14	60.3587
3249.22	60.8446
3251.3	61.1026
3253.37	60.7843
3255.45	60.7186
3257.52	61.1638
3259.6	60.119
3261.67	59.1211
3263.74	58.3311
3265.81	58.0635
3267.88	57.5887
3269.95	56.7237
3272.02	56.2017
3274.09	55.718
3276.16	55.3045
3278.22	55.3252
3280.29	55.9366
3282.36	57.8371
3284.42	58.6152
3286.49	58.5925
3288.55	58.7913
3290.61	58.9233
3292.68	57.9627
3294.74	56.9706
3296.8	56.1117
3298.86	55.4317
3300.92	55.3712
3302.98	55.509
3305.04	56.0394
3307.09	55.2642
3309.15	54.9159
3311.21	55.3138
3313.26	56.5344
3315.32	57.7748
3317.37	57.2464
3319.42	57.0431
3321.48	57.6021
3323.53	58.0078
3325.58	59.3816
3327.63	57.3176
3329.68	57.1692
3331.73	57.386
3333.78	58.3742
3335.83	58.4924
3337.87	58.2907
3339.92	57.777
3341.97	57.538
3344.01	57.4547
3346.06	56.8468
3348.1	56.0944
3350.14	56.0546
3352.19	56.4672
3354.23	57.15
3356.27	58.1639
3358.31	59.3282
3360.35	59.9145
3362.39	59.9755
3364.43	59.5644
3366.47	56.8465
3368.5	54.3273
3370.54	52.7294
3372.58	53.3323
3374.61	58.389
3376.65	58.8121
3378.68	59.0703
3380.71	59.7246
3382.74	60.1172
3384.78	60.0149
3386.81	59.5794
3388.84	59.2537
3390.87	58.9606
3392.9	58.7478
3394.93	58.7109
3396.95	58.8298
3398.98	59.1196
3401.01	59.5498
3403.03	60.0845
3405.06	60.6337
3407.08	60.9445
3409.1	60.5759
3411.13	59.9808
3413.15	59.4158
3415.17	58.9229
3417.19	58.2143
3419.21	57.0589
3421.23	56.37
3423.25	56.2822
3425.27	56.7285
3427.29	57.0131
3429.31	57.2167
3431.32	56.9772
3433.34	57.0067
3435.35	57.1236
3437.37	57.3229
3439.38	57.5989
3441.39	57.3559
3443.41	58.2056
3445.42	58.6482
3447.43	59.1927
3449.44	59.5285
3451.45	58.6724
3453.46	57.004
3455.47	55.9961
3457.47	55.6495
3459.48	55.5061
3461.49	55.5773
3463.49	56.4597
3465.5	55.981
3467.5	55.092
3469.51	54.5931
3471.51	54.4167
3473.51	54.4335
3475.51	55.6088
3477.52	53.3876
3479.52	53.9628
3481.52	55.6871
3483.52	56.6612
3485.51	57.1105
3487.51	57.1605
3489.51	56.6179
3491.51	55.5969
3493.5	54.7123
3495.5	54.1817
3497.49	53.4836
3499.49	52.6976
3501.48	51.8553
3503.47	51.3485
3505.46	51.2533
3507.45	54.2334
3509.45	54.4377
3511.44	51.8829
3513.43	51.4134
3515.41	50.6791
3517.4	49.3647
3519.39	48.665
3521.38	50.5334
3523.36	52.8446
3525.35	52.3654
3527.33	52.5718
3529.32	52.912
3531.3	52.8161
3533.28	52.4501
3535.27	52.434
3537.25	52.4171
3539.23	52.0126
3541.21	51.1725
3543.19	51.0314
3545.17	49.9056
3547.15	50.2276
3549.12	50.7264
3551.1	50.0572
3553.08	50.4293
3555.05	51.8309
3557.03	52.8335
3559	52.9363
3560.98	51.3155
3562.95	51.6154
3564.92	52.6419
3566.89	53.1471
3568.87	53.8559
3570.84	55.0187
3572.81	56.1778
3574.78	57.7409
3576.74	59.366
3578.71	60.6136
3580.68	60.8632
3582.65	60.9252
3584.61	61.6788
3586.58	62.3966
3588.54	62.8667
3590.51	63.7376
3592.47	64.6411
3594.43	63.9701
3596.4	62.3073
3598.36	59.8035
3600.32	54.5445
3602.28	53.5701
3604.24	53.5337
3606.2	53.5378
3608.16	53.4068
3610.11	53.1235
3612.07	49.9741
3614.03	47.7328
3615.98	46.5783
3617.94	46.6818
3619.89	46.0638
3621.85	45.4344
3623.8	44.9786
3625.75	44.7608
3627.71	44.0994
3629.66	44.7072
3631.61	45.7504
3633.56	46.2362
3635.51	47.2984
3637.46	47.8188
3639.41	48.1547
3641.35	46.9296
3643.3	46.8604
3645.25	46.8697
3647.19	46.8607
3649.14	46.8974
3651.08	46.9911
3653.03	46.7992
3654.97	44.0311
3656.91	41.5342
3658.85	39.1754
3660.8	40.6267
3662.74	42.4685
3664.68	43.7342
3666.62	44.7952
3668.56	44.9209
3670.49	44.4161
3672.43	43.6109
3674.37	42.8722
3676.3	42.2398
3678.24	41.909
3680.18	42.0612
3682.11	42.9635
3684.04	43.79
3685.98	44.2777
3687.91	44.4712
3689.84	44.2527
3691.77	44.0842
3693.7	43.8054
3695.63	43.5855
3697.56	43.5288
3699.49	43.666
3701.42	43.9117
3703.35	43.9534
3705.28	43.6573
3707.2	43.0092
3709.13	43.0024
3711.05	42.941
3712.98	42.8856
3714.9	42.831
3716.82	42.501
3718.75	41.6869
3720.67	41.4849
3722.59	41.6004
3724.51	41.7701
3726.43	42.3372
3728.35	42.7122
3730.27	43.0437
3732.19	43.1571
3734.11	42.7002
3736.02	42.5072
3737.94	42.6918
3739.86	43.289
3741.77	43.19
3743.69	42.2386
3745.6	41.2314
3747.51	40.7563
3749.43	40.5159
3751.34	40.5927
3753.25	40.9429
3755.16	41.4352
3757.07	41.7897
3758.98	42.2796
3760.89	42.8897
3762.8	40.2831
3764.71	41.273
3766.61	41.6593
3768.52	42.8984
3770.43	43.5185
3772.33	43.4428
3774.24	42.3461
3776.14	41.0175
3778.05	40.7938
3779.95	41.0487
3781.85	42.0688
3783.75	42.8483
3785.65	43.3694
3787.55	43.4796
3789.45	42.9885
3791.35	42.4463
3793.25	41.8568
3795.15	41.3432
3797.05	40.9785
3798.95	40.4942
3800.84	40.3727
3802.74	40.3869
3804.63	40.2852
3806.53	40.2062
3808.42	40.0917
3810.31	39.8472
3812.21	39.1529
3814.1	36.9597
3815.99	38.9886
3817.88	40.6036
3819.77	41.1076
3821.66	41.6554
3823.55	42.126
3825.44	42.5793
3827.33	42.4537
3829.21	40.7071
3831.1	40.3996
3832.99	40.0884
3834.87	41.0374
3836.76	41.5535
3838.64	41.711
3840.52	41.5824
3842.41	40.9957
3844.29	40.4642
3846.17	40.1688
3848.05	39.9579
3849.93	39.7159
3851.81	39.9829
3853.69	40.6556
3855.57	40.8396
3857.45	40.6862
3859.33	40.5838
3861.21	40.5811
3863.08	40.6724
3864.96	40.8657
3866.83	40.5521
3868.71	39.3538
3870.58	39.0045
3872.46	38.9868
3874.33	38.6997
3876.2	38.7806
3878.07	39.1926
3879.94	39.7794
3881.81	40.2283
3883.68	40.2103
3885.55	40.0582
3887.42	39.9271
3889.29	39.8671
3891.16	39.7772
3893.02	39.7663
3894.89	39.9613
3896.76	40.2265
3898.62	40.0345
3900.49	39.84
3902.35	39.7022
3904.21	39.8416
3906.08	40.1649
3907.94	40.0667
3909.8	40.1745
3911.66	40.1552
3913.52	39.477
3915.38	39.4582
3917.24	39.0418
3919.1	39.1302
3920.96	38.8388
3922.82	38.6021
3924.67	38.6163
3926.53	38.8497
3928.38	39.5471
3930.24	40.409
3932.09	39.484
3933.95	38.0289
3935.8	38.8904
3937.65	38.2837
3939.51	36.8771
3941.36	36.9023
3943.21	39.1423
3945.06	38.9456
3946.91	37.9741
3948.76	37.1569
3950.61	37.1146
3952.46	37.7604
3954.3	38.298
3956.15	38.0635
3958	37.5048
3959.84	38.0784
3961.69	38.752
3963.53	38.5506
3965.38	38.0436
3967.22	36.1631
3969.06	36.4065
3970.91	36.5073
3972.75	37.6812
3974.59	38.5784
3976.43	39.1754
3978.27	39.3928
3980.11	39.0502
3981.95	38.1297
3983.78	37.2818
3985.62	36.5577
3987.46	35.9511
3989.3	35.6576
3991.13	35.7355
3992.97	35.6285
3994.8	36.7352
3996.64	36.1782
3998.47	37.8881
