#Acq. time (s)=	20
#Accumulations=	3
#Range (cm-¹)=	100...4000
#Windows=	1
#Auto scanning=	Off
#Autofocus=	Off
#Macrospot=	Off
#AutoExposure=	Off
#Spike filter=	Multiple accum.
#Delay time (s)=	0
#Binning=	1
#Readout mode=	Signal
#DeNoise=	Lite
#ICS correction=	Off
#Dark correction=	Off
#Inst. Process=	Off
#Detector temperature (°C)=	-60.09
#Instrument=	LabRAM HR Evol
#Detector=	SIN-EM FIVIS
#Objective=	x50_VIS_LWD
#Grating=	150 (500nm)
#ND Filter=	100%
#Laser=	633nm_Edge
#Hole=	30.0125
#Temperature=	0
#Range=	Visible
#StageXY=	75x50mm Scan+
#StageZ=	Z motor
#X (µm)=	7406.8
#Y (µm)=	4383.9
#Z (µm)=	-31.3
#Full time(mm:ss)=	1:02
#Project=	Buranga
#Sample=	BU18FA20_C
#Site=	C_Bertoss1
#Title=	20-C_brt1_FI05
#Remark=	
#Date=	30.07.2019 14:37
#Acquired=	30.07.2019 14:37:08
100.38	589.459
103.641	522.851
106.898	462.493
110.156	428.292
113.411	390.535
116.666	355.766
119.918	322.281
123.17	293.163
126.419	266.219
129.669	246.173
132.916	227.202
136.163	212.094
139.407	205.186
142.651	198.531
145.892	189.982
149.134	181.688
152.372	174.351
155.611	167.993
158.847	162.81
162.083	160.005
165.316	158.517
168.548	156.076
171.781	158.403
175.01	156.184
178.239	144.458
181.466	136.053
184.693	130.973
187.917	127.556
191.139	125.522
194.362	123.967
197.582	122.747
200.802	121.545
204.02	120.806
207.236	120.287
210.452	119.949
213.665	120.098
216.877	119.66
220.089	119.373
223.299	120.598
226.508	121.966
229.715	123.498
232.92	132.044
236.126	149.114
239.329	174.661
242.53	214.084
245.732	204.016
248.931	179.474
252.128	164.294
255.326	153.953
258.521	147.674
261.714	143.297
264.906	141.468
268.099	142.201
271.288	144.926
274.477	149.358
277.665	159.234
280.851	170.763
284.035	185.173
287.218	202.879
290.402	219.835
293.582	222.56
296.761	203.121
299.939	179.073
303.117	159.732
306.293	144.734
309.466	134.782
312.639	130.533
315.811	129.71
318.982	137.299
322.151	149.833
325.318	172.124
328.484	204.843
331.651	247.63
334.814	253.386
337.977	228.284
341.138	199.65
344.297	172.681
347.456	155.3
350.614	139.387
353.77	133.304
356.925	130.219
360.078	133.443
363.23	139.207
366.381	147.007
369.53	150.309
372.68	151.368
375.827	148.757
378.972	142.062
382.116	133.998
385.259	124.639
388.401	117.912
391.541	113.718
394.681	111.967
397.818	111.953
400.956	113.366
404.092	115.386
407.226	117.839
410.359	120.561
413.49	122.034
416.62	122.343
419.749	124.786
422.877	129.014
426.003	134.748
429.128	144.803
432.252	157.342
435.375	168
438.496	178.393
441.616	185.526
444.735	189.738
447.852	189.287
450.969	186.519
454.084	182.817
457.197	178.316
460.31	173.411
463.421	167.991
466.531	161.726
469.64	154.659
472.747	147.329
475.853	139.134
478.958	129.813
482.062	123.124
485.164	118.586
488.265	115.255
491.365	113.934
494.464	114.353
497.561	115.019
500.657	116.835
503.752	120.603
506.844	123.448
509.937	126.123
513.028	127.59
516.117	128.247
519.206	127.835
522.293	126.885
525.38	124.431
528.464	122.646
531.548	121.098
534.63	120.527
537.71	119.673
540.79	118.81
543.869	117.887
546.946	117.279
550.022	117.537
553.097	116.638
556.169	115.548
559.242	114.432
562.313	113.131
565.383	111.745
568.452	110.554
571.519	110.205
574.584	109.655
577.649	109.899
580.713	110.818
583.775	112.001
586.837	113.943
589.895	118.983
592.954	126.902
596.012	132.376
599.068	152.032
602.122	171.526
605.176	189.712
608.229	194.687
611.28	187.811
614.329	173.985
617.378	165.406
620.426	158.514
623.473	157.263
626.517	158.523
629.561	161.887
632.604	163.497
635.644	164.465
638.684	164.796
641.724	162.557
644.76	159.744
647.797	154.297
650.833	150.993
653.867	153.307
656.899	158.325
659.931	163.108
662.96	166.785
665.99	170.565
669.018	164.877
672.044	152.565
675.07	140.238
678.095	129.556
681.117	120.756
684.139	115.508
687.16	111.755
690.179	108.491
693.197	105.916
696.213	104.016
699.23	102.584
702.245	101.009
705.257	98.9884
708.27	96.5438
711.28	96.0754
714.29	95.2339
717.298	93.8035
720.306	93.0675
723.312	93.0647
726.316	93.674
729.321	95.2193
732.322	95.7245
735.324	96.2836
738.323	95.0816
741.323	93.5801
744.32	92.345
747.317	91.846
750.311	91.2939
753.306	91.2052
756.298	91.5709
759.291	92.473
762.28	93.855
765.27	95.9808
768.258	97.4288
771.245	97.8647
774.23	96.708
777.215	94.9702
780.198	92.2612
783.179	91.7246
786.161	91.9236
789.14	92.8374
792.119	94.1688
795.096	95.3833
798.073	96.5807
801.047	97.4709
804.021	98.1851
806.994	98.7255
809.965	98.9516
812.936	98.9805
815.904	97.755
818.871	96.0076
821.839	94.4363
824.804	93.198
827.769	92.6919
830.732	92.6985
833.693	92.7181
836.655	94.0694
839.614	96.1124
842.572	98.3807
845.53	100.782
848.485	102.642
851.44	103.951
854.394	102.768
857.346	100.804
860.297	98.8681
863.248	96.8728
866.197	96.4428
869.144	96.7325
872.091	97.4649
875.037	98.6344
877.981	99.8785
880.924	100.97
883.867	101.854
886.807	102.574
889.746	102.991
892.685	103.152
895.623	103.036
898.559	103.193
901.493	103.45
904.427	103.769
907.359	103.397
910.292	106.485
913.222	103.823
916.151	100.293
919.078	97.5284
922.006	95.5589
924.932	95.566
927.856	98.0457
930.779	100.633
933.701	103.339
936.622	107.011
939.543	111.508
942.461	116.595
945.379	122.196
948.295	128.372
951.21	134.978
954.124	140.151
957.037	149.91
959.95	156.606
962.861	165.778
965.77	167.717
968.678	167.362
971.585	169.795
974.491	177.446
977.396	189.949
980.3	209.347
983.202	233.874
986.104	266.242
989.005	297.505
991.904	358.96
994.802	399.429
997.699	385.132
1000.6	348.569
1003.49	317.337
1006.38	292.967
1009.28	271.508
1012.17	258.69
1015.06	247.614
1017.95	250.107
1020.83	257.795
1023.72	273.1
1026.61	292.049
1029.49	303.809
1032.37	300.588
1035.26	279.401
1038.14	249.932
1041.02	220.488
1043.9	195.317
1046.77	175.592
1049.65	163.581
1052.53	154.929
1055.4	147.629
1058.27	141.881
1061.15	137.076
1064.02	133.209
1066.88	130.09
1069.75	127.352
1072.62	126.805
1075.49	129.596
1078.35	134.231
1081.22	139.01
1084.08	143.895
1086.94	148.729
1089.8	153.514
1092.66	157.492
1095.52	163.069
1098.38	169.103
1101.23	173.831
1104.09	179.216
1106.94	178.218
1109.8	165.984
1112.65	150.515
1115.5	139.342
1118.35	130.042
1121.2	120.397
1124.05	115.961
1126.89	113.308
1129.74	112.388
1132.58	112.915
1135.42	114.545
1138.27	117.369
1141.11	120.673
1143.95	124.734
1146.78	129.379
1149.62	134.242
1152.46	139.509
1155.29	141.308
1158.13	148.193
1160.96	151.777
1163.79	142.659
1166.62	130.186
1169.45	119.243
1172.28	112.341
1175.11	105.763
1177.93	102.689
1180.76	101.953
1183.59	99.977
1186.41	98.1276
1189.23	96.3279
1192.05	94.6233
1194.87	93.2005
1197.69	92.0943
1200.51	91.7878
1203.32	91.2321
1206.14	90.0685
1208.95	88.8242
1211.77	87.8977
1214.58	87.8035
1217.39	87.9793
1220.2	88.1575
1223.01	88.4829
1225.82	88.8966
1228.62	89.2252
1231.43	89.5598
1234.23	89.3477
1237.04	88.9477
1239.84	88.6588
1242.64	89.6755
1245.44	91.2589
1248.24	93.5021
1251.04	95.8588
1253.83	98.9571
1256.63	101.878
1259.42	105.376
1262.22	108.166
1265.01	114.799
1267.8	109.139
1270.59	105.142
1273.38	97.8836
1276.17	106.684
1278.96	115.498
1281.74	236
1284.53	527
1287.31	324
1290.1	137.692
1292.88	117.934
1295.66	106.424
1298.44	100.649
1301.22	97.915
1303.99	96.5709
1306.77	96.1601
1309.55	95.4582
1312.32	95.7962
1315.09	95.1107
1317.87	94.4458
1320.64	93.7002
1323.41	92.9943
1326.18	92.7802
1328.94	92.7042
1331.71	92.7068
1334.48	92.6586
1337.24	92.4801
1340	92.3897
1342.77	92.2121
1345.53	92.1974
1348.29	90.9421
1351.05	90.1159
1353.81	90.3782
1356.56	93.3193
1359.32	93.1564
1362.08	91.3082
1364.83	94.0047
1367.58	100.301
1370.33	105.561
1373.09	102.588
1375.84	101.784
1378.58	102.821
1381.33	114.887
1384.08	177.694
1386.82	569
1389.57	742
1392.31	250
1395.06	131.629
1397.8	103.329
1400.54	99.9333
1403.28	102.479
1406.02	118.83
1408.75	127.742
1411.49	119.609
1414.22	107.303
1416.96	97.0343
1419.69	92.1271
1422.42	88.8254
1425.15	86.5984
1427.88	85.0351
1430.61	83.9589
1433.34	83.4867
1436.07	83.4734
1438.79	84.7834
1441.52	85.8609
1444.24	86.7064
1446.96	87.3648
1449.69	87.0701
1452.41	85.7619
1455.13	84.0954
1457.84	82.1987
1460.56	80.5883
1463.28	80.3494
1465.99	80.9191
1468.71	82.0836
1471.42	83.0663
1474.13	83.8892
1476.84	84.4934
1479.55	84.9352
1482.26	85.1729
1484.97	84.8721
1487.68	84.048
1490.39	83.3158
1493.09	82.9432
1495.79	83.4721
1498.5	84.0707
1501.2	83.0648
1503.9	82.4683
1506.6	82.3272
1509.3	82.2219
1512	82.0615
1514.69	81.7903
1517.39	81.4172
1520.08	81.0797
1522.78	80.3008
1525.47	78.8387
1528.16	75.623
1530.85	74.8328
1533.54	75.6946
1536.23	77.3537
1538.92	79.4426
1541.61	80.9541
1544.29	79.9833
1546.98	79.2082
1549.66	78.7392
1552.34	78.5001
1555.02	78.3945
1557.7	78.0132
1560.38	78.1505
1563.06	77.6855
1565.74	77.5088
1568.42	77.928
1571.09	78.5188
1573.77	79.7747
1576.44	81.0934
1579.11	82.3999
1581.78	83.3246
1584.45	83.6928
1587.12	83.2798
1589.79	82.086
1592.46	80.3404
1595.12	78.5349
1597.79	76.9997
1600.45	77.1086
1603.12	77.9636
1605.78	79.5006
1608.44	81.312
1611.1	83.1426
1613.76	84.4641
1616.42	84.2199
1619.08	83.1701
1621.73	83.0117
1624.39	82.9854
1627.04	82.5401
1629.7	81.6783
1632.35	80.7912
1635	80.0525
1637.65	80.1545
1640.3	80.5218
1642.95	80.5121
1645.59	80.4221
1648.24	79.876
1650.88	79.3646
1653.53	77.6762
1656.17	76.1488
1658.82	74.8634
1661.46	73.6904
1664.1	73.3459
1666.74	74.8243
1669.37	77.3284
1672.01	79.2113
1674.65	80.5804
1677.28	81.2281
1679.92	80.9767
1682.55	79.9521
1685.18	78.3388
1687.82	78.8061
1690.44	80.7505
1693.07	81.1235
1695.7	80.6075
1698.33	80.2008
1700.96	79.8902
1703.58	79.6912
1706.21	79.5085
1708.83	79.3712
1711.45	79.211
1714.07	78.7342
1716.69	76.6961
1719.31	76.0366
1721.93	77.3208
1724.55	80.0819
1727.17	82.7434
1729.78	85.5497
1732.4	87.7587
1735.01	87.0525
1737.62	69.2633
1740.23	82.8249
1742.85	81.6655
1745.46	79.9985
1748.07	79.4634
1750.67	79.7156
1753.28	79.9726
1755.89	80.1733
1758.49	80.147
1761.09	79.5258
1763.7	79.0967
1766.3	79.012
1768.9	79.0741
1771.5	79.3032
1774.1	80.1752
1776.7	81.0932
1779.29	82.1075
1781.89	82.5517
1784.49	81.4092
1787.08	80.3908
1789.67	80.4465
1792.27	80.1601
1794.86	79.8991
1797.45	79.7093
1800.04	79.5271
1802.62	79.5322
1805.21	79.7463
1807.8	80.06
1810.38	79.0277
1812.97	78.5097
1815.55	79.8512
1818.14	80.5382
1820.72	78.6708
1823.3	78.8497
1825.88	79.0314
1828.46	79.1066
1831.03	79.958
1833.61	80.5888
1836.19	80.8002
1838.76	80.6932
1841.34	80.2797
1843.91	79.5099
1846.48	78.7279
1849.05	76.5393
1851.62	76.6446
1854.19	78.2297
1856.76	78.7866
1859.33	79.3119
1861.89	77.9227
1864.46	78.2621
1867.02	80.0309
1869.59	82.41
1872.15	82.789
1874.71	79.9156
1877.27	82.4122
1879.83	82.1369
1882.39	81.286
1884.95	80.1123
1887.51	78.7213
1890.06	76.9854
1892.62	76.1883
1895.17	76.5198
1897.72	77.3973
1900.27	77.9517
1902.83	78.5752
1905.38	78.9333
1907.93	79.0814
1910.47	78.6485
1913.02	78.5767
1915.57	78.7164
1918.11	79.4314
1920.66	80.2708
1923.2	80.6623
1925.74	80.9832
1928.29	81.0993
1930.83	81.2933
1933.37	81.0301
1935.91	80.6696
1938.44	79.9341
1940.98	78.5903
1943.52	78.0917
1946.05	78.6453
1948.59	78.9584
1951.12	80.068
1953.65	79.5646
1956.18	79.4444
1958.72	79.5379
1961.25	79.8906
1963.77	80.5152
1966.3	81.099
1968.83	81.3466
1971.35	81.44
1973.88	83.154
1976.4	82.9075
1978.93	79.6014
1981.45	77.0036
1983.97	76.2493
1986.49	78.2837
1989.01	79.3266
1991.53	80.0183
1994.05	80.469
1996.56	80.6932
1999.08	81.0833
2001.59	80.7223
2004.11	78.825
2006.62	79.2
2009.13	79.7702
2011.64	80.3147
2014.15	80.7213
2016.66	80.9892
2019.17	81.2772
2021.68	80.722
2024.18	80.8865
2026.69	81.2142
2029.19	81.4993
2031.7	81.1136
2034.2	80.2242
2036.7	79.4761
2039.2	78.9525
2041.7	78.7121
2044.2	78.937
2046.7	79.3363
2049.2	79.9098
2051.7	79.6269
2054.19	79.2894
2056.69	80.108
2059.18	81.8838
2061.67	84.4464
2064.16	84.4592
2066.65	83.8889
2069.15	81.3414
2071.63	79.4837
2074.12	78.7079
2076.61	78.8473
2079.1	79.7861
2081.58	80.8669
2084.07	81.4912
2086.55	82.1079
2089.03	82.9754
2091.51	83.2616
2094	83.1468
2096.47	82.2236
2098.95	81.1946
2101.43	79.8553
2103.91	78.6523
2106.39	78.0332
2108.86	77.8939
2111.34	78.5684
2113.81	79.3095
2116.28	80.1702
2118.76	80.9193
2121.23	81.4445
2123.7	81.6641
2126.17	81.4402
2128.63	80.7972
2131.1	79.3441
2133.57	78.5069
2136.03	77.0932
2138.5	78.2079
2140.96	81.1856
2143.43	82.308
2145.89	82.849
2148.35	83.1701
2150.81	83.273
2153.27	79.3395
2155.73	77.5149
2158.18	76.3274
2160.64	75.8048
2163.1	76.0245
2165.55	77.03
2168	78.9537
2170.46	81.5413
2172.91	81.1837
2175.36	80.7177
2177.81	80.4183
2180.26	80.2335
2182.71	80.2691
2185.16	80.3876
2187.6	80.7109
2190.05	80.843
2192.5	80.9499
2194.94	80.9703
2197.38	80.7803
2199.83	80.678
2202.27	81.2268
2204.71	81.4175
2207.15	81.2293
2209.59	80.8526
2212.02	80.5443
2214.46	80.1927
2216.9	79.7568
2219.33	79.8139
2221.77	79.3566
2224.2	78.3206
2226.64	77.2532
2229.07	78.1791
2231.5	79.0729
2233.93	80.4395
2236.36	80.7209
2238.79	80.7321
2241.21	80.1798
2243.64	80.1087
2246.06	78.804
2248.49	76.1607
2250.91	76.3766
2253.34	77.6469
2255.76	78.9279
2258.18	79.882
2260.6	80.0929
2263.02	79.3954
2265.44	79.0904
2267.86	79.2984
2270.27	79.5819
2272.69	80.5489
2275.11	81.2344
2277.52	81.7422
2279.93	82.2814
2282.35	83.0808
2284.76	83.9911
2287.17	84.1267
2289.58	84.0455
2291.99	83.5117
2294.4	82.8425
2296.8	82.2691
2299.21	81.0043
2301.62	80.1231
2304.02	80.0993
2306.43	80.8207
2308.83	81.9178
2311.23	82.2457
2313.63	82.8455
2316.03	83.6867
2318.43	84.6684
2320.83	85.477
2323.23	85.529
2325.63	86.7184
2328.02	87.6485
2330.42	88.9723
2332.81	89.48
2335.21	89.2823
2337.6	87.3304
2339.99	85.3219
2342.38	83.6476
2344.77	82.2841
2347.16	81.3234
2349.55	78.6278
2351.94	76.8775
2354.32	76.0109
2356.71	76.1247
2359.1	77.8304
2361.48	79.7242
2363.86	81.3182
2366.25	82.8464
2368.63	83.9914
2371.01	84.3255
2373.39	84.1919
2375.77	83.6055
2378.15	82.7658
2380.52	82.0396
2382.9	81.4733
2385.28	80.6327
2387.65	79.1982
2390.03	77.7361
2392.4	78.6403
2394.77	79.863
2397.14	80.7089
2399.51	80.7257
2401.88	80.3674
2404.25	80.3223
2406.62	80.4708
2408.99	80.9133
2411.35	81.4755
2413.72	81.727
2416.08	81.4578
2418.45	81.2996
2420.81	82.2079
2423.17	81.8024
2425.53	81.7515
2427.89	82.433
2430.25	83.4546
2432.61	83.1091
2434.97	81.2936
2437.33	79.9492
2439.69	79.1501
2442.04	78.6483
2444.4	79.6036
2446.75	81.6475
2449.1	82.8373
2451.45	82.401
2453.81	81.6965
2456.16	80.6669
2458.51	77.9218
2460.85	81.535
2463.2	81.7316
2465.55	81.3727
2467.9	80.007
2470.24	78.5251
2472.59	77.2629
2474.93	76.8688
2477.27	78.3558
2479.62	79.4821
2481.96	80.5219
2484.3	80.1089
2486.64	79.737
2488.98	81.3918
2491.31	83.4959
2493.65	84.5946
2495.99	86.314
2498.32	87.2822
2500.66	87.3101
2502.99	86.5945
2505.32	84.9661
2507.66	83.288
2509.99	82.0778
2512.32	81.3326
2514.65	81.0783
2516.98	81.1387
2519.31	81.5579
2521.63	81.0077
2523.96	80.9489
2526.28	81.1723
2528.61	81.6709
2530.93	82.0652
2533.26	82.3022
2535.58	82.5033
2537.9	82.3408
2540.22	81.7951
2542.54	81.3736
2544.86	81.2793
2547.18	81.4055
2549.5	81.6791
2551.81	81.8955
2554.13	82.2345
2556.44	81.1934
2558.76	80.6641
2561.07	80.4969
2563.38	80.5563
2565.69	79.8249
2568.01	79.197
2570.32	78.7859
2572.62	78.0837
2574.93	77.6471
2577.24	77.4789
2579.55	77.6367
2581.85	78.0067
2584.16	79.1115
2586.46	80.0985
2588.77	81.3462
2591.07	82.2812
2593.37	82.1852
2595.67	81.8045
2597.97	81.8314
2600.27	82.1408
2602.57	82.1158
2604.87	79.286
2607.17	77.9155
2609.46	79.5216
2611.76	82.1507
2614.05	83.4577
2616.35	83.1774
2618.64	81.2733
2620.93	80.1663
2623.22	80.2089
2625.51	80.6108
2627.8	80.4113
2630.09	80.173
2632.38	80.1242
2634.67	80.4783
2636.96	80.8076
2639.24	81.074
2641.53	81.7939
2643.81	82.3163
2646.09	80.9272
2648.38	79.9316
2650.66	79.5083
2652.94	81.9491
2655.22	81.952
2657.5	80.7294
2659.78	79.7289
2662.06	79.0866
2664.33	79.086
2666.61	79.3942
2668.88	79.5395
2671.16	79.2136
2673.43	78.8222
2675.71	78.349
2677.98	78.082
2680.25	77.78
2682.52	78.0037
2684.79	77.6586
2687.06	79.5617
2689.33	78.0699
2691.6	76.9194
2693.86	76.8684
2696.13	77.5447
2698.39	76.6379
2700.66	77.2199
2702.92	78.4143
2705.18	78.1897
2707.45	78.2388
2709.71	78.3623
2711.97	78.5759
2714.23	79.1556
2716.49	80.1702
2718.74	80.8494
2721	81.6131
2723.26	83.0393
2725.51	83.2129
2727.77	82.3348
2730.02	80.8538
2732.28	79.5854
2734.53	78.8199
2736.78	78.3201
2739.03	78.1981
2741.28	78.3635
2743.53	78.3576
2745.78	77.9754
2748.03	75.6564
2750.27	74.6109
2752.52	74.7447
2754.77	75.6232
2757.01	74.5722
2759.26	76.0339
2761.5	78.2794
2763.74	80.3759
2765.98	81.0033
2768.22	80.2013
2770.46	78.803
2772.7	77.8662
2774.94	77.1268
2777.18	75.1986
2779.42	73.9919
2781.65	74.2579
2783.89	75.2484
2786.12	77.1555
2788.36	78.3371
2790.59	78.9104
2792.82	79.3052
2795.05	78.5447
2797.28	77.7911
2799.51	77.2161
2801.74	76.983
2803.97	76.9552
2806.2	78.2726
2808.43	78.3995
2810.65	77.9626
2812.88	77.7388
2815.1	78.2331
2817.33	79.6767
2819.55	79.9048
2821.77	76.6441
2823.99	74.8295
2826.21	75.8008
2828.43	78.1727
2830.65	79.2104
2832.87	80.3332
2835.09	80.8823
2837.3	80.8993
2839.52	80.9288
2841.74	80.3637
2843.95	79.5096
2846.17	79.1216
2848.38	79.3878
2850.59	79.4716
2852.8	79.5544
2855.01	79.5354
2857.22	78.8339
2859.43	77.0945
2861.64	75.735
2863.85	74.7145
2866.06	74.2076
2868.26	74.7373
2870.47	75.9447
2872.67	77.2253
2874.88	78.2303
2877.08	79.0248
2879.28	79.4936
2881.48	79.4935
2883.68	79.1536
2885.89	78.5546
2888.08	77.382
2890.28	76.4647
2892.48	75.8165
2894.68	75.4756
2896.87	75.1598
2899.07	75.4218
2901.26	76.0121
2903.46	76.3635
2905.65	76.3205
2907.85	76.5682
2910.04	76.1538
2912.23	73.7171
2914.42	71.9942
2916.61	71.5554
2918.8	72.0209
2920.98	73.2159
2923.17	75.0674
2925.36	76.7743
2927.54	78.5493
2929.73	79.0216
2931.91	78.664
2934.1	77.6914
2936.28	77.11
2938.46	75.5813
2940.64	74.0744
2942.82	73.6049
2945	75.3962
2947.18	77.0831
2949.36	78.5379
2951.54	79.006
2953.72	77.538
2955.89	76.7606
2958.07	77.0442
2960.24	77.2961
2962.42	77.7647
2964.59	77.8818
2966.76	77.7262
2968.93	76.6835
2971.1	74.9326
2973.27	75.1851
2975.44	73.4989
2977.61	73.2031
2979.78	73.7465
2981.95	73.4666
2984.11	73.149
2986.28	72.8565
2988.45	72.7218
2990.61	72.7672
2992.77	73.002
2994.94	73.4463
2997.1	74.0064
2999.26	74.5767
3001.42	74.9916
3003.58	75.2514
3005.74	75.029
3007.9	74.5507
3010.06	71.5079
3012.21	72.1341
3014.37	74.3863
3016.52	75.5059
3018.68	75.4929
3020.83	75.2487
3022.99	74.9358
3025.14	73.9107
3027.29	73.1273
3029.44	73.0714
3031.59	74.0364
3033.74	74.3645
3035.89	74.5775
3038.04	74.9445
3040.19	75.3393
3042.33	75.1043
3044.48	74.9721
3046.62	75.0018
3048.77	75.2389
3050.91	75.8235
3053.05	76.4837
3055.2	76.6533
3057.34	75.5247
3059.48	74.1469
3061.62	73.3621
3063.76	73.263
3065.9	73.6534
3068.03	74.1642
3070.17	74.3902
3072.31	73.9294
3074.44	74.2334
3076.58	74.6109
3078.71	74.9674
3080.85	75.4732
3082.98	75.9767
3085.11	76.3822
3087.24	76.7713
3089.37	77.1078
3091.5	77.8531
3093.63	76.9412
3095.76	75.9802
3097.89	75.7238
3100.02	75.652
3102.14	76.0846
3104.27	76.5368
3106.39	76.0509
3108.52	75.8738
3110.64	75.2469
3112.76	74.8367
3114.89	74.9043
3117.01	75.9913
3119.13	76.6127
3121.25	76.602
3123.37	75.3161
3125.49	74.0172
3127.6	72.7734
3129.72	71.9713
3131.84	71.5006
3133.95	71.4935
3136.07	71.8647
3138.18	72.3778
3140.29	72.1343
3142.41	72.0108
3144.52	71.3344
3146.63	71.501
3148.74	73.4159
3150.85	74.5878
3152.96	74.001
3155.07	74.8389
3157.18	75.4575
3159.28	75.8862
3161.39	75.3004
3163.5	74.578
3165.6	73.4122
3167.71	75.0579
3169.81	76.2929
3171.91	75.1758
3174.01	75.7832
3176.12	73.6068
3178.22	69.4238
3180.32	74.1287
3182.42	75.7859
3184.51	76.682
3186.61	77.2348
3188.71	76.7909
3190.8	75.5004
3192.9	75.2146
3195	76.0336
3197.09	76.7016
3199.18	77.4241
3201.28	77.7623
3203.37	77.0588
3205.46	74.1417
3207.55	72.1563
3209.64	71.3089
3211.73	72.1035
3213.82	75.7913
3215.91	77.801
3218	79.609
3220.08	80.7857
3222.17	79.9913
3224.25	77.8334
3226.34	75.8647
3228.42	74.4018
3230.5	73.7678
3232.59	73.9823
3234.67	76.0317
3236.75	78.1225
3238.83	79.3285
3240.91	79.5659
3242.99	79.5205
3245.07	79.2372
3247.14	78.6679
3249.22	77.9337
3251.3	77.245
3253.37	76.1658
3255.45	75.1304
3257.52	74.4278
3259.6	74.1177
3261.67	74.1659
3263.74	74.6871
3265.81	74.8653
3267.88	68.8242
3269.95	73.4322
3272.02	74.5128
3274.09	73.9639
3276.16	72.9604
3278.22	70.6123
3280.29	68.6432
3282.36	69.8173
3284.42	69.147
3286.49	68.8702
3288.55	68.9837
3290.61	67.6027
3292.68	68.9945
3294.74	68.1169
3296.8	69.2562
3298.86	70.3983
3300.92	70.4643
3302.98	70.7236
3305.04	71.1246
3307.09	71.1644
3309.15	70.5264
3311.21	69.6165
3313.26	69.7873
3315.32	70.6545
3317.37	71.4962
3319.42	71.7802
3321.48	71.9778
3323.53	72.1367
3325.58	71.591
3327.63	71.1166
3329.68	69.6158
3331.73	68.4223
3333.78	67.875
3335.83	67.6777
3337.87	67.6938
3339.92	67.9315
3341.97	68.1836
3344.01	67.8729
3346.06	67.3207
3348.1	66.8403
3350.14	67.1948
3352.19	67.4659
3354.23	66.7101
3356.27	65.4305
3358.31	66.0402
3360.35	65.8828
3362.39	67.1424
3364.43	68.5384
3366.47	68.6173
3368.5	69.7449
3370.54	70.3455
3372.58	70.5449
3374.61	69.7154
3376.65	69.0363
3378.68	68.5852
3380.71	68.3525
3382.74	67.9831
3384.78	67.5279
3386.81	67.84
3388.84	68.7341
3390.87	69.2698
3392.9	69.5902
3394.93	69.7649
3396.95	68.4056
3398.98	69.7231
3401.01	69.5989
3403.03	68.7901
3405.06	67.3668
3407.08	65.3539
3409.1	63.4767
3411.13	64.5543
3413.15	66.7903
3415.17	69.7293
3417.19	72.6186
3419.21	72.9856
3421.23	73.3109
3423.25	72.59
3425.27	70.904
3427.29	69.0084
3429.31	68.1613
3431.32	67.758
3433.34	67.6268
3435.35	67.7035
3437.37	68.1218
3439.38	68.7794
3441.39	69.6329
3443.41	70.1757
3445.42	69.0812
3447.43	67.796
3449.44	65.2845
3451.45	64.7758
3453.46	64.9603
3455.47	64.8756
3457.47	64.9598
3459.48	64.3014
3461.49	63.4451
3463.49	63.3411
3465.5	64.5705
3467.5	65.4382
3469.51	65.9188
3471.51	66.3297
3473.51	66.4175
3475.51	66.5113
3477.52	66.7362
3479.52	66.833
3481.52	66.9926
3483.52	66.9427
3485.51	65.9715
3487.51	64.8995
3489.51	63.61
3491.51	62.6523
3493.5	62.1972
3495.5	62.1185
3497.49	62.1179
3499.49	62.2658
3501.48	62.6467
3503.47	63.2952
3505.46	63.5558
3507.45	63.2685
3509.45	62.4991
3511.44	62.2489
3513.43	61.9067
3515.41	64.0317
3517.4	63.0109
3519.39	61.9018
3521.38	61.0804
3523.36	60.7519
3525.35	60.5367
3527.33	60.4613
3529.32	60.0676
3531.3	59.8233
3533.28	59.8232
3535.27	60.0022
3537.25	60.3196
3539.23	61.2165
3541.21	61.5927
3543.19	60.6239
3545.17	59.9233
3547.15	59.6758
3549.12	59.8347
3551.1	60.4503
3553.08	61.8682
3555.05	62.0902
3557.03	62.1594
3559	62.034
3560.98	61.5797
3562.95	61.4565
3564.92	61.9409
3566.89	62.5773
3568.87	63.8128
3570.84	64.8327
3572.81	64.921
3574.78	64.9836
3576.74	65.5738
3578.71	67.7716
3580.68	68.7775
3582.65	68.9185
3584.61	68.9566
3586.58	69.0865
3588.54	69.4187
3590.51	69.6405
3592.47	69.7086
3594.43	69.6185
3596.4	69.4003
3598.36	68.8876
3600.32	67.6068
3602.28	63.876
3604.24	61.695
3606.2	59.9488
3608.16	58.8378
3610.11	58.3116
3612.07	57.7254
3614.03	57.8084
3615.98	58.5507
3617.94	60.0999
3619.89	61.2927
3621.85	60.332
3623.8	57.7123
3625.75	55.3832
3627.71	53.6064
3629.66	52.4541
3631.61	52.1512
3633.56	52.8126
3635.51	54.4997
3637.46	56.22
3639.41	57.0904
3641.35	57.8611
3643.3	58.492
3645.25	58.4032
3647.19	58.3574
3649.14	58.2479
3651.08	58.4163
3653.03	56.7059
3654.97	55.7957
3656.91	55.1257
3658.85	55.2341
3660.8	58.1253
3662.74	57.6258
3664.68	57.8337
3666.62	58.059
3668.56	58.428
3670.49	58.1026
3672.43	57.6822
3674.37	57.1606
3676.3	56.5941
3678.24	56.0752
3680.18	55.8779
3682.11	55.8625
3684.04	54.5553
3685.98	53.8272
3687.91	53.9509
3689.84	54.7222
3691.77	55.8454
3693.7	55.9349
3695.63	55.238
3697.56	55.0176
3699.49	55.2672
3701.42	56.0965
3703.35	56.4736
3705.28	55.8117
3707.2	53.7561
3709.13	52.421
3711.05	52.1072
3712.98	52.698
3714.9	53.543
3716.82	53.9784
3718.75	54.3476
3720.67	54.9891
3722.59	55.251
3724.51	54.6925
3726.43	53.7255
3728.35	52.2765
3730.27	52.6552
3732.19	53.1662
3734.11	53.5899
3736.02	53.3864
3737.94	53.0135
3739.86	52.6769
3741.77	51.9331
3743.69	52.049
3745.6	52.1742
3747.51	53.2832
3749.43	52.9541
3751.34	52.769
3753.25	52.6579
3755.16	52.5406
3757.07	51.7929
3758.98	51.2872
3760.89	50.9171
3762.8	51.2389
3764.71	51.7042
3766.61	51.6757
3768.52	51.7877
3770.43	52.1516
3772.33	52.8142
3774.24	52.7253
3776.14	52.474
3778.05	51.9833
3779.95	51.4381
3781.85	51.2738
3783.75	51.1825
3785.65	50.5478
3787.55	49.9648
3789.45	50.0192
3791.35	50.7934
3793.25	51.1468
3795.15	50.4426
3797.05	50.1186
3798.95	50.504
3800.84	51.5914
3802.74	52.238
3804.63	51.1945
3806.53	49.9663
3808.42	49.1345
3810.31	48.7152
3812.21	48.4388
3814.1	49.1959
3815.99	49.8127
3817.88	50.2958
3819.77	50.8016
3821.66	51.2728
3823.55	51.7194
3825.44	52.1544
3827.33	52.4324
3829.21	52.3596
3831.1	52.2308
3832.99	51.4521
3834.87	50.2166
3836.76	48.9965
3838.64	48.5392
3840.52	48.1464
3842.41	49.7059
3844.29	50.6822
3846.17	49.4469
3848.05	48.7896
3849.93	49.0565
3851.81	49.4032
3853.69	49.4616
3855.57	49.3449
3857.45	48.8274
3859.33	48.4608
3861.21	49.0533
3863.08	49.8194
3864.96	49.8809
3866.83	48.726
3868.71	48.0721
3870.58	48.7893
3872.46	49.3075
3874.33	50.2625
3876.2	50.743
3878.07	51.0012
3879.94	51.4702
3881.81	51.7622
3883.68	51.5099
3885.55	50.5058
3887.42	50.5374
3889.29	50.745
3891.16	50.5529
3893.02	49.6689
3894.89	49.2312
3896.76	49.17
3898.62	49.3012
3900.49	49.5702
3902.35	50.0399
3904.21	49.6757
3906.08	49.2713
3907.94	48.9451
3909.8	48.3866
3911.66	48.34
3913.52	48.6922
3915.38	49.0916
3917.24	49.9095
3919.1	50.2888
3920.96	49.1551
3922.82	48.2819
3924.67	47.551
3926.53	47.3324
3928.38	47.5179
3930.24	47.9662
3932.09	48.4077
3933.95	49.0382
3935.8	49.3002
3937.65	49.3975
3939.51	49.474
3941.36	49.4764
3943.21	49.4309
3945.06	48.786
3946.91	47.6506
3948.76	46.8159
3950.61	45.7334
3952.46	45.181
3954.3	45.1852
3956.15	44.567
3958	48.0921
3959.84	48.1549
3961.69	46.8092
3963.53	46.4071
3965.38	43.9686
3967.22	41.2549
3969.06	41.8744
3970.91	43.46
3972.75	45.6866
3974.59	48.0007
3976.43	48.6945
3978.27	48.6573
3980.11	49.3038
3981.95	46.5855
3983.78	44.6912
3985.62	45.2288
3987.46	45.9774
3989.3	44.6362
3991.13	44.6226
3992.97	44.0684
3994.8	46.9911
3996.64	44.3189
3998.47	43.8904
