#Acq. time (s)=	20
#Accumulations=	3
#Range (cm-¹)=	100...4000
#Windows=	1
#Auto scanning=	Off
#Autofocus=	Off
#Macrospot=	Off
#AutoExposure=	Off
#Spike filter=	Multiple accum.
#Delay time (s)=	0
#Binning=	1
#Readout mode=	Signal
#DeNoise=	Lite
#ICS correction=	On
#Dark correction=	Off
#Inst. Process=	Off
#Detector temperature (°C)=	-60.09
#Instrument=	LabRAM HR Evol
#Detector=	SIN-EM FIVIS
#Objective=	x100_VIS
#Grating=	150 (500nm)
#ND Filter=	100%
#Laser=	633nm_Edge
#Hole=	30.0125
#Temperature=	0
#Range=	Visible
#StageXY=	75x50mm Scan+
#StageZ=	Z motor
#X (µm)=	8832.1
#Y (µm)=	4492.9
#Z (µm)=	1847.2
#Full time(mm:ss)=	1:03
#Project=	Buranga
#Sample=	BU18FA20_C
#Site=	C_Bertoss2
#Title=	20-C_brt2_FI03
#Remark=	
#Date=	30.07.2019 15:31
#Acquired=	30.07.2019 15:31:25
100.38	116.229
103.641	101.638
106.898	93.0279
110.156	89.9697
113.411	86.2614
116.666	83.5952
119.918	80.1586
123.17	77.2253
126.419	74.7669
129.669	72.8748
132.916	71.4001
136.163	70.6798
139.407	70.2638
142.651	68.9916
145.892	67.8418
149.134	66.8249
152.372	65.7341
155.611	64.9141
158.847	64.4855
162.083	64.4761
165.316	63.7116
168.548	62.9017
171.781	62.0891
175.01	61.0253
178.239	59.6736
181.466	58.2578
184.693	56.9278
187.917	55.7679
191.139	55.2952
194.362	55.0319
197.582	54.8868
200.802	55.3921
204.02	55.3998
207.236	54.7401
210.452	52.8563
213.665	50.6208
216.877	49.0194
220.089	48.1722
223.299	48.1469
226.508	48.6042
229.715	50.8767
232.92	55.7976
236.126	62.2678
239.329	66.8735
242.53	68.1362
245.732	65.4552
248.931	62.8965
252.128	60.4874
255.326	58.2293
258.521	56.3767
261.714	55.0225
264.906	54.29
268.099	54.269
271.288	54.8081
274.477	56.2564
277.665	60.4553
280.851	63.9407
284.035	66.2367
287.218	67.4902
290.402	67.781
293.582	66.5442
296.761	62.3623
299.939	58.223
303.117	55.0499
306.293	52.8557
309.466	51.4654
312.639	50.5356
315.811	51.8921
318.982	54.6172
322.151	57.1118
325.318	62.8179
328.484	68.8212
331.651	71.8448
334.814	70.9254
337.977	66.8044
341.138	60.7594
344.297	56.2948
347.456	52.7686
350.614	50.3049
353.77	49.5245
356.925	50.4072
360.078	52.1438
363.23	54.239
366.381	56.453
369.53	57.5558
372.68	55.947
375.827	54.404
378.972	53.0045
382.116	51.2111
385.259	48.7416
388.401	47.4385
391.541	46.704
394.681	46.4252
397.818	46.2371
400.956	45.9913
404.092	46.0009
407.226	46.2374
410.359	46.8104
413.49	47.2057
416.62	47.7275
419.749	48.8548
422.877	50.2211
426.003	51.575
429.128	52.5367
432.252	56.0822
435.375	61.1649
438.496	65.3231
441.616	66.3112
444.735	65.5098
447.852	64.5618
450.969	63.3009
454.084	61.9615
457.197	60.3685
460.31	58.7465
463.421	57.1189
466.531	55.674
469.64	54.4724
472.747	53.4996
475.853	51.5942
478.958	49.8814
482.062	48.1219
485.164	47.4209
488.265	47.2985
491.365	47.2874
494.464	47.5263
497.561	48.1216
500.657	48.1167
503.752	48.418
506.844	48.2413
509.937	47.8554
513.028	48.7761
516.117	49.9593
519.206	50.0653
522.293	50.2425
525.38	50.5589
528.464	49.9938
531.548	49.2119
534.63	48.4869
537.71	47.8405
540.79	47.2985
543.869	46.7442
546.946	46.1732
550.022	45.9431
553.097	46.2443
556.169	47.0706
559.242	47.83
562.313	48.2114
565.383	47.9778
568.452	47.3133
571.519	46.6372
574.584	46.4579
577.649	46.5253
580.713	47.0662
583.775	47.2165
586.837	47.5411
589.895	49.3596
592.954	51.3079
596.012	54.2129
599.068	57.2918
602.122	59.9908
605.176	62.6765
608.229	62.8308
611.28	61.5974
614.329	60.148
617.378	58.0815
620.426	56.8777
623.473	56.636
626.517	56.9587
629.561	57.1245
632.604	57.7475
635.644	57.7191
638.684	56.9889
641.724	56.1691
644.76	55.0991
647.797	53.8646
650.833	53.2351
653.867	56.5686
656.899	59.8325
659.931	61.5504
662.96	61.8016
665.99	60.2006
669.018	58.1901
672.044	55.1511
675.07	51.5221
678.095	48.9294
681.117	46.8817
684.139	45.8963
687.16	45.1005
690.179	44.5358
693.197	44.1107
696.213	43.598
699.23	42.8782
702.245	42.3109
705.257	41.9045
708.27	41.7505
711.28	41.7583
714.29	41.9331
717.298	42.1178
720.306	42.1351
723.312	42.687
726.316	43.0986
729.321	43.4149
732.322	42.8216
735.324	42.3887
738.323	42.6403
741.323	42.9303
744.32	42.9724
747.317	42.9361
750.311	42.5889
753.306	42.3993
756.298	43.2132
759.291	43.8881
762.28	43.744
765.27	43.045
768.258	42.5168
771.245	42.2441
774.23	42.4406
777.215	42.7418
780.198	42.7124
783.179	42.5817
786.161	42.2963
789.14	42.0592
792.119	41.854
795.096	41.8269
798.073	41.8586
801.047	41.9764
804.021	42.1178
806.994	42.2752
809.965	42.4169
812.936	42.5717
815.904	42.8283
818.871	42.8958
821.839	42.8975
824.804	42.62
827.769	42.1423
830.732	41.6756
833.693	41.1739
836.655	40.9123
839.614	40.8116
842.572	40.9089
845.53	41.1937
848.485	41.5401
851.44	41.9118
854.394	42.148
857.346	42.2808
860.297	41.6682
863.248	41.3914
866.197	41.2025
869.144	41.2253
872.091	41.8815
875.037	42.4931
877.981	42.4728
880.924	42.2864
883.867	41.972
886.807	41.8528
889.746	42.3186
892.685	42.6418
895.623	43.3412
898.559	41.0641
901.493	40.4898
904.427	40.6174
907.359	40.9495
910.292	41.3838
913.222	41.8726
916.151	42.191
919.078	41.8585
922.006	41.4874
924.932	40.9446
927.856	41.3039
930.779	42.4066
933.701	43.9428
936.622	44.8531
939.543	45.3622
942.461	45.8614
945.379	46.4494
948.295	47.3536
951.21	48.5747
954.124	49.6933
957.037	52.4704
959.95	54.1807
962.861	55.7316
965.77	57.0916
968.678	58.3186
971.585	59.847
974.491	61.9606
977.396	64.993
980.3	69.0226
983.202	74.1643
986.104	80.7281
989.005	88.7941
991.904	97.5113
994.802	96.3363
997.699	91.7528
1000.6	86.8643
1003.49	82.5286
1006.38	79.5088
1009.28	77.4088
1012.17	76.2812
1015.06	76.5442
1017.95	78.7978
1020.83	82.0202
1023.72	85.4536
1026.61	87.8483
1029.49	86.8447
1032.37	81.9361
1035.26	77.1196
1038.14	71.7019
1041.02	65.9655
1043.9	59.7197
1046.77	55.774
1049.65	52.9823
1052.53	51.2689
1055.4	49.6469
1058.27	48.2226
1061.15	50.4505
1064.02	49.6646
1066.88	48.6686
1069.75	46.157
1072.62	45.0312
1075.49	44.8284
1078.35	47.2862
1081.22	49.2134
1084.08	50.2037
1086.94	51.662
1089.8	53.2785
1092.66	54.8788
1095.52	56.214
1098.38	57.3748
1101.23	58.7481
1104.09	58.5273
1106.94	57.3688
1109.8	54.4811
1112.65	51.3894
1115.5	48.1023
1118.35	45.757
1121.2	44.4471
1124.05	43.667
1126.89	43.4037
1129.74	43.2049
1132.58	43.0216
1135.42	43.3305
1138.27	43.8473
1141.11	44.8848
1143.95	46.4043
1146.78	48.717
1149.62	51.3567
1152.46	51.9749
1155.29	51.703
1158.13	50.1109
1160.96	48.3944
1163.79	46.728
1166.62	45.3009
1169.45	44.2909
1172.28	43.4482
1175.11	42.7723
1177.93	42.1534
1180.76	41.5892
1183.59	40.652
1186.41	39.6144
1189.23	38.739
1192.05	38.2356
1194.87	37.9824
1197.69	38.0412
1200.51	37.8477
1203.32	37.6843
1206.14	37.6909
1208.95	37.9353
1211.77	38.4034
1214.58	39.0074
1217.39	39.5864
1220.2	40.0419
1223.01	40.3081
1225.82	40.2795
1228.62	40.0271
1231.43	39.5994
1234.23	39.0701
1237.04	38.4643
1239.84	37.9016
1242.64	37.3342
1245.44	37.0608
1248.24	37.1645
1251.04	37.5404
1253.83	38.5082
1256.63	39.0653
1259.42	39.8383
1262.22	40.7846
1265.01	41.1775
1267.8	40.8923
1270.59	41.5722
1273.38	42.5701
1276.17	42.5683
1278.96	43.4227
1281.74	48.9485
1284.53	66.028
1287.31	53.9864
1290.1	45.513
1292.88	42.5598
1295.66	41.025
1298.44	40.3394
1301.22	39.9228
1303.99	39.2885
1306.77	39.4749
1309.55	39.7862
1312.32	40.1809
1315.09	40.638
1317.87	41.0633
1320.64	40.7484
1323.41	40.4305
1326.18	40.5636
1328.94	40.1361
1331.71	39.5537
1334.48	38.5638
1337.24	38.7134
1340	38.8623
1342.77	38.826
1345.53	38.7329
1348.29	38.491
1351.05	38.2384
1353.81	38.4412
1356.56	39.2047
1359.32	39.1414
1362.08	39.8088
1364.83	39.9633
1367.58	40.6073
1370.33	40.2988
1373.09	40.6281
1375.84	41.3101
1378.58	41.2961
1381.33	44.9888
1384.08	56.0451
1386.82	73.9325
1389.57	75.5534
1392.31	46.2208
1395.06	41.9213
1397.8	41.292
1400.54	41.0995
1403.28	41.0027
1406.02	40.5655
1408.75	40.22
1411.49	39.4383
1414.22	38.8223
1416.96	38.4123
1419.69	38.2107
1422.42	38.0441
1425.15	37.4952
1427.88	37.0505
1430.61	36.9833
1433.34	37.463
1436.07	38.3471
1438.79	38.7161
1441.52	39.127
1444.24	39.6106
1446.96	38.9955
1449.69	38.1027
1452.41	37.3581
1455.13	36.5053
1457.84	36.2945
1460.56	37.5509
1463.28	38.6085
1465.99	38.972
1468.71	39.3848
1471.42	39.6622
1474.13	39.356
1476.84	38.4627
1479.55	36.3301
1482.26	36.9328
1484.97	37.5666
1487.68	38.1206
1490.39	38.5611
1493.09	38.3665
1495.79	38.5262
1498.5	38.7395
1501.2	38.8714
1503.9	38.9581
1506.6	38.9925
1509.3	39.0217
1512	38.9554
1514.69	38.87
1517.39	38.6537
1520.08	38.2533
1522.78	37.9135
1525.47	37.9946
1528.16	38.3009
1530.85	38.8784
1533.54	39.3939
1536.23	40.0352
1538.92	40.5795
1541.61	40.806
1544.29	40.2106
1546.98	39.7435
1549.66	41.0426
1552.34	41.8438
1555.02	42.2197
1557.7	41.6276
1560.38	39.9049
1563.06	37.9303
1565.74	38.8558
1568.42	37.9405
1571.09	37.8831
1573.77	37.7657
1576.44	39.0695
1579.11	38.8276
1581.78	38.6347
1584.45	38.815
1587.12	39.0737
1589.79	39.1877
1592.46	39.2411
1595.12	39.798
1597.79	39.1178
1600.45	38.664
1603.12	39.0725
1605.78	39.62
1608.44	40.2588
1611.1	40.9837
1613.76	41.6022
1616.42	41.8323
1619.08	42.059
1621.73	41.9337
1624.39	41.4036
1627.04	40.8722
1629.7	40.3195
1632.35	39.9984
1635	39.9737
1637.65	40.1804
1640.3	40.6099
1642.95	41.0816
1645.59	41.5452
1648.24	42.0993
1650.88	43.082
1653.53	42.4694
1656.17	42.0151
1658.82	41.7914
1661.46	41.8354
1664.1	42.1254
1666.74	42.0412
1669.37	42.3821
1672.01	42.7271
1674.65	42.8559
1677.28	42.3702
1679.92	41.9096
1682.55	41.5891
1685.18	41.0731
1687.82	40.4501
1690.44	40.4801
1693.07	40.5806
1695.7	40.8002
1698.33	41.3014
1700.96	42.0655
1703.58	42.4724
1706.21	42.2359
1708.83	41.8204
1711.45	41.202
1714.07	40.7552
1716.69	40.6127
1719.31	41.0621
1721.93	39.4303
1724.55	38.3289
1727.17	40.9629
1729.78	41.637
1732.4	41.6583
1735.01	40.9013
1737.62	40.8411
1740.23	40.915
1742.85	41.0315
1745.46	41.1751
1748.07	41.0233
1750.67	40.7586
1753.28	40.5346
1755.89	40.4121
1758.49	40.0658
1761.09	40.0831
1763.7	40.4584
1766.3	40.792
1768.9	40.9732
1771.5	41.4074
1774.1	41.9154
1776.7	42.2511
1779.29	42.6203
1781.89	43.1035
1784.49	43.0431
1787.08	42.4297
1789.67	41.8183
1792.27	41.423
1794.86	41.2585
1797.45	41.2672
1800.04	40.4236
1802.62	39.9678
1805.21	39.9778
1807.8	40.717
1810.38	41.6261
1812.97	41.8409
1815.55	41.6167
1818.14	42.3145
1820.72	42.6934
1823.3	43.33
1825.88	41.6088
1828.46	40.5508
1831.03	40.3301
1833.61	41.0924
1836.19	42.0415
1838.76	43.1774
1841.34	44.2994
1843.91	44.8563
1846.48	44.4274
1849.05	43.7515
1851.62	42.8163
1854.19	42.0582
1856.76	41.7362
1859.33	41.696
1861.89	41.8724
1864.46	42.1461
1867.02	42.7637
1869.59	42.9509
1872.15	43.1423
1874.71	43.0193
1877.27	43.2925
1879.83	43.7509
1882.39	43.0054
1884.95	42.3339
1887.51	42.0377
1890.06	41.6859
1892.62	41.6644
1895.17	41.4914
1897.72	43.2507
1900.27	44.7587
1902.83	44.6569
1905.38	44.2293
1907.93	43.8354
1910.47	43.5708
1913.02	43.6061
1915.57	43.7854
1918.11	44.2827
1920.66	44.6932
1923.2	45.002
1925.74	44.705
1928.29	43.9912
1930.83	43.0468
1933.37	42.64
1935.91	42.718
1938.44	43.7131
1940.98	43.8605
1943.52	43.8238
1946.05	43.8863
1948.59	44.0824
1951.12	44.2875
1953.65	44.6574
1956.18	44.8736
1958.72	44.6206
1961.25	44.4265
1963.77	44.2358
1966.3	43.7118
1968.83	43.2263
1971.35	42.7572
1973.88	42.9605
1976.4	44.3998
1978.93	44.7342
1981.45	44.8633
1983.97	45.3156
1986.49	46.3119
1989.01	46.1878
1991.53	46.1246
1994.05	45.2803
1996.56	45.0408
1999.08	44.7424
2001.59	44.5663
2004.11	44.2514
2006.62	43.5684
2009.13	43.3164
2011.64	44.221
2014.15	44.7392
2016.66	44.6728
2019.17	44.9264
2021.68	45.467
2024.18	46.0468
2026.69	46.0047
2029.19	45.7568
2031.7	45.2274
2034.2	45.4313
2036.7	45.2588
2039.2	45.1683
2041.7	45.1638
2044.2	45.2328
2046.7	45.3862
2049.2	45.5486
2051.7	45.6829
2054.19	45.0483
2056.69	45.7118
2059.18	46.297
2061.67	47.0632
2064.16	47.4273
2066.65	47.7713
2069.15	48.0915
2071.63	48.3633
2074.12	48.6779
2076.61	48.9904
2079.1	49.2492
2081.58	49.2232
2084.07	48.7998
2086.55	48.1589
2089.03	47.7568
2091.51	47.6162
2094	47.6751
2096.47	47.9861
2098.95	48.5959
2101.43	48.9904
2103.91	49.2585
2106.39	48.9272
2108.86	48.5634
2111.34	48.3305
2113.81	48.0516
2116.28	47.974
2118.76	48.0653
2121.23	48.1
2123.7	47.7645
2126.17	47.5921
2128.63	47.8958
2131.1	48.3112
2133.57	48.7719
2136.03	48.2664
2138.5	47.8566
2140.96	47.2834
2143.43	44.632
2145.89	47.1587
2148.35	48.5295
2150.81	48.8276
2153.27	49.0787
2155.73	47.0409
2158.18	47.3222
2160.64	47.5746
2163.1	47.5924
2165.55	48.2468
2168	49.0708
2170.46	49.4701
2172.91	49.6391
2175.36	48.6096
2177.81	49.1013
2180.26	50.2382
2182.71	50.8554
2185.16	50.194
2187.6	49.8811
2190.05	50.2052
2192.5	50.3783
2194.94	50.2786
2197.38	50.0962
2199.83	50.0091
2202.27	49.9641
2204.71	49.8054
2207.15	50.095
2209.59	50.364
2212.02	51.0427
2214.46	50.9427
2216.9	49.3103
2219.33	47.908
2221.77	47.343
2224.2	47.2651
2226.64	47.6939
2229.07	48.5084
2231.5	49.4353
2233.93	50.2743
2236.36	50.392
2238.79	50.6209
2241.21	50.6106
2243.64	48.2767
2246.06	48.8522
2248.49	52.3677
2250.91	52.6836
2253.34	52.6923
2255.76	49.5649
2258.18	47.2754
2260.6	48.0363
2263.02	49.6036
2265.44	50.8836
2267.86	50.8328
2270.27	50.7376
2272.69	50.882
2275.11	50.8984
2277.52	49.7998
2279.93	47.2819
2282.35	46.9277
2284.76	47.9783
2287.17	49.6224
2289.58	51.5212
2291.99	52.6321
2294.4	52.7978
2296.8	52.7477
2299.21	52.5344
2301.62	52.3215
2304.02	52.4442
2306.43	52.5724
2308.83	53.2029
2311.23	53.3055
2313.63	52.8004
2316.03	52.7826
2318.43	52.8206
2320.83	52.969
2323.23	53.478
2325.63	53.4644
2328.02	53.0461
2330.42	52.8803
2332.81	52.9586
2335.21	53.284
2337.6	53.6436
2339.99	53.8605
2342.38	54.0791
2344.77	53.5795
2347.16	52.8411
2349.55	52.7886
2351.94	53.7337
2354.32	53.5166
2356.71	53.6445
2359.1	53.7464
2361.48	52.8685
2363.86	52.2229
2366.25	51.9723
2368.63	52.0036
2371.01	52.307
2373.39	52.8829
2375.77	53.8734
2378.15	52.7923
2380.52	53.493
2382.9	54.6603
2385.28	55.6599
2387.65	55.4392
2390.03	55.5858
2392.4	55.4995
2394.77	55.3835
2397.14	55.2155
2399.51	55.0607
2401.88	55.1053
2404.25	55.1892
2406.62	54.7951
2408.99	53.5979
2411.35	52.7543
2413.72	52.3331
2416.08	52.3151
2418.45	52.7574
2420.81	51.9679
2423.17	52.426
2425.53	53.3629
2427.89	54.7805
2430.25	56.0046
2432.61	56.7498
2434.97	56.2864
2437.33	55.5867
2439.69	54.7379
2442.04	53.9214
2444.4	53.2901
2446.75	54.9359
2449.1	55.1735
2451.45	54.6724
2453.81	53.5831
2456.16	53.025
2458.51	53.371
2460.85	54.0187
2463.2	54.7526
2465.55	55.7722
2467.9	56.3522
2470.24	56.369
2472.59	56.2541
2474.93	56.0639
2477.27	55.8219
2479.62	55.5512
2481.96	55.2359
2484.3	54.8694
2486.64	55.3829
2488.98	57.113
2491.31	57.1764
2493.65	56.2356
2495.99	55.9041
2498.32	56.7629
2500.66	57.7568
2502.99	58.5957
2505.32	58.5377
2507.66	58.0926
2509.99	57.6038
2512.32	57.282
2514.65	56.6814
2516.98	56.2894
2519.31	56.3406
2521.63	56.66
2523.96	57.397
2526.28	58.5575
2528.61	58.6956
2530.93	58.2533
2533.26	57.864
2535.58	57.5604
2537.9	57.4637
2540.22	57.5639
2542.54	57.8196
2544.86	57.9604
2547.18	58.1245
2549.5	58.3574
2551.81	58.343
2554.13	57.9412
2556.44	57.6006
2558.76	57.0702
2561.07	57.8062
2563.38	58.8133
2565.69	58.6627
2568.01	58.851
2570.32	59.1994
2572.62	59.3597
2574.93	59.1191
2577.24	58.6008
2579.55	58.2749
2581.85	57.9803
2584.16	57.0013
2586.46	55.5999
2588.77	55.3632
2591.07	55.7741
2593.37	56.3214
2595.67	57.0546
2597.97	57.9291
2600.27	58.4066
2602.57	57.6262
2604.87	57.935
2607.17	58.7996
2609.46	59.9972
2611.76	60.5351
2614.05	60.7941
2616.35	60.7711
2618.64	60.3908
2620.93	59.6946
2623.22	59.3712
2625.51	59.5461
2627.8	60.2784
2630.09	60.2483
2632.38	59.6468
2634.67	59.3983
2636.96	59.4811
2639.24	59.5861
2641.53	59.3494
2643.81	58.9922
2646.09	59.7952
2648.38	58.657
2650.66	59.0605
2652.94	58.9508
2655.22	58.7679
2657.5	59.383
2659.78	58.6353
2662.06	56.7512
2664.33	56.4384
2666.61	57.2065
2668.88	58.4627
2671.16	59.8587
2673.43	62.2523
2675.71	63.0639
2677.98	63.6385
2680.25	62.8395
2682.52	62.3946
2684.79	61.962
2687.06	61.535
2689.33	60.6896
2691.6	59.0574
2693.86	58.5053
2696.13	59.4896
2698.39	59.29
2700.66	59.1095
2702.92	59.1997
2705.18	59.4876
2707.45	60.1002
2709.71	60.6695
2711.97	61.3419
2714.23	62.0038
2716.49	62.6944
2718.74	63.6406
2721	63.3594
2723.26	62.808
2725.51	61.5426
2727.77	60.7225
2730.02	59.508
2732.28	59.827
2734.53	62.5818
2736.78	62.8847
2739.03	62.5069
2741.28	62.3154
2743.53	61.0839
2745.78	59.6776
2748.03	58.8047
2750.27	60.428
2752.52	61.7925
2754.77	63.332
2757.01	64.0306
2759.26	64.8354
2761.5	64.4187
2763.74	63.6163
2765.98	62.7662
2768.22	62.2081
2770.46	61.8761
2772.7	61.3702
2774.94	60.9804
2777.18	59.1869
2779.42	58.8611
2781.65	59.9208
2783.89	61.9357
2786.12	63.3672
2788.36	64.1022
2790.59	64.6984
2792.82	65.2941
2795.05	65.7855
2797.28	65.746
2799.51	65.0899
2801.74	64.8287
2803.97	64.419
2806.2	63.7512
2808.43	62.9629
2810.65	62.4151
2812.88	62.6635
2815.1	62.9122
2817.33	63.2313
2819.55	63.7136
2821.77	64.1173
2823.99	64.1528
2826.21	64.2163
2828.43	63.956
2830.65	63.3796
2832.87	62.8675
2835.09	62.6435
2837.3	62.5745
2839.52	62.6227
2841.74	63.3411
2843.95	63.9706
2846.17	63.5467
2848.38	63.5245
2850.59	63.6674
2852.8	64.4699
2855.01	65.5634
2857.22	65.9647
2859.43	65.808
2861.64	64.9617
2863.85	64.2479
2866.06	63.8316
2868.26	63.4333
2870.47	63.3138
2872.67	63.6799
2874.88	64.4158
2877.08	65.6464
2879.28	66.935
2881.48	68.2011
2883.68	66.5093
2885.89	60.5261
2888.08	61.7654
2890.28	63.9226
2892.48	64.3601
2894.68	64.3734
2896.87	64.825
2899.07	64.3978
2901.26	63.6415
2903.46	66.7562
2905.65	68.1281
2907.85	68.1154
2910.04	67.5487
2912.23	66.9716
2914.42	66.5451
2916.61	65.765
2918.8	65.0438
2920.98	64.9901
2923.17	65.0974
2925.36	64.4991
2927.54	64.2424
2929.73	64.6175
2931.91	65.8794
2934.1	65.6672
2936.28	65.6901
2938.46	65.8911
2940.64	66.1264
2942.82	66.2397
2945	64.7159
2947.18	63.1695
2949.36	62.4875
2951.54	62.6222
2953.72	63.4419
2955.89	64.6378
2958.07	66.4118
2960.24	68.658
2962.42	69.4078
2964.59	69.7786
2966.76	69.892
2968.93	69.7186
2971.1	68.9084
2973.27	68.2295
2975.44	67.3695
2977.61	68.5895
2979.78	69.0693
2981.95	69.5403
2984.11	69.4947
2986.28	68.5693
2988.45	67.9407
2990.61	68.4101
2992.77	68.9226
2994.94	68.6922
2997.1	68.2945
2999.26	67.6135
3001.42	66.46
3003.58	66.7408
3005.74	67.4978
3007.9	69.8038
3010.06	71.2704
3012.21	72.1945
3014.37	72.3088
3016.52	72.2591
3018.68	72.1327
3020.83	71.3601
3022.99	70.345
3025.14	69.7087
3027.29	68.9378
3029.44	69.2254
3031.59	68.9429
3033.74	68.7933
3035.89	70.4479
3038.04	69.518
3040.19	68.628
3042.33	68.3517
3044.48	68.7569
3046.62	70.2211
3048.77	71.538
3050.91	72.3293
3053.05	72.8003
3055.2	73.0263
3057.34	73.9402
3059.48	74.5504
3061.62	74.052
3063.76	73.897
3065.9	73.9187
3068.03	74.3996
3070.17	74.6401
3072.31	73.0711
3074.44	70.4876
3076.58	70.2232
3078.71	70.2047
3080.85	70.767
3082.98	72.0522
3085.11	72.619
3087.24	73.2782
3089.37	73.8247
3091.5	74.4858
3093.63	75.2857
3095.76	76.0503
3097.89	76.3719
3100.02	75.947
3102.14	74.4072
3104.27	73.5428
3106.39	74.9231
3108.52	76.6815
3110.64	76.6652
3112.76	76.4838
3114.89	76.234
3117.01	75.9037
3119.13	75.9723
3121.25	76.0214
3123.37	75.9492
3125.49	75.884
3127.6	76.0851
3129.72	76.9896
3131.84	78.8688
3133.95	80.9494
3136.07	83.4438
3138.18	82.7628
3140.29	81.0643
3142.41	80.1328
3144.52	79.2001
3146.63	78.4134
3148.74	77.3478
3150.85	77.0353
3152.96	77.6883
3155.07	78.997
3157.18	80.7531
3159.28	81.5962
3161.39	82.2034
3163.5	82.4818
3165.6	83.4998
3167.71	85.1309
3169.81	86.631
3171.91	87.6353
3174.01	87.5446
3176.12	86.755
3178.22	86.183
3180.32	86.1884
3182.42	86.1689
3184.51	85.03
3186.61	83.4763
3188.71	81.8719
3190.8	81.2523
3192.9	81.3406
3195	82.0081
3197.09	82.8345
3199.18	83.7179
3201.28	84.6671
3203.37	85.5725
3205.46	86.5076
3207.55	87.6135
3209.64	88.6809
3211.73	89.5383
3213.82	90.1322
3215.91	90.5352
3218	90.7867
3220.08	91.3804
3222.17	91.9991
3224.25	92.1883
3226.34	92.2565
3228.42	91.8774
3230.5	90.9786
3232.59	90.0162
3234.67	88.8142
3236.75	86.741
3238.83	85.1379
3240.91	85.4787
3242.99	86.2857
3245.07	85.7723
3247.14	87.5459
3249.22	88.2667
3251.3	89.3026
3253.37	89.2338
3255.45	89.062
3257.52	89.4915
3259.6	90.4615
3261.67	90.6643
3263.74	90.2094
3265.81	90.0544
3267.88	89.942
3269.95	90.4618
3272.02	90.2922
3274.09	89.1103
3276.16	87.0666
3278.22	86.1159
3280.29	86.4921
3282.36	87.2841
3284.42	89.5995
3286.49	91.5962
3288.55	92.2456
3290.61	92.3836
3292.68	92.1124
3294.74	90.0322
3296.8	88.2862
3298.86	87.9642
3300.92	88.8383
3302.98	89.3652
3305.04	90.2449
3307.09	90.1571
3309.15	89.2478
3311.21	88.7256
3313.26	88.7864
3315.32	89.8541
3317.37	89.9478
3319.42	90.4277
3321.48	90.6165
3323.53	85.9803
3325.58	85.318
3327.63	88.7916
3329.68	90.5327
3331.73	91.7623
3333.78	92.1232
3335.83	92.6226
3337.87	92.0429
3339.92	90.5497
3341.97	88.4615
3344.01	86.9594
3346.06	86.0568
3348.1	85.8415
3350.14	86.3112
3352.19	87.2262
3354.23	88.5027
3356.27	90.8665
3358.31	93.4576
3360.35	96.1085
3362.39	97.8974
3364.43	97.663
3366.47	95.433
3368.5	92.8655
3370.54	91.7277
3372.58	91.6119
3374.61	94.4743
3376.65	98.2128
3378.68	99.7865
3380.71	100.463
3382.74	100.385
3384.78	99.7745
3386.81	97.8094
3388.84	95.5922
3390.87	93.6551
3392.9	92.0479
3394.93	93.0188
3396.95	94.7766
3398.98	97.0455
3401.01	99.6146
3403.03	99.5339
3405.06	98.4861
3407.08	98.1003
3409.1	97.9184
3411.13	97.7605
3413.15	98.4209
3415.17	99.3986
3417.19	98.52
3419.21	97.8531
3421.23	97.257
3423.25	96.6778
3425.27	96.4436
3427.29	96.4038
3429.31	96.2028
3431.32	96.1484
3433.34	92.419
3435.35	95.8598
3437.37	96.6885
3439.38	97.4305
3441.39	98.8011
3443.41	95.9914
3445.42	94.0749
3447.43	93.0474
3449.44	92.659
3451.45	92.614
3453.46	92.7399
3455.47	93.0371
3457.47	93.3062
3459.48	93.9218
3461.49	96.2227
3463.49	96.0739
3465.5	96.0869
3467.5	95.656
3469.51	94.6558
3471.51	94.856
3473.51	95.274
3475.51	96.2559
3477.52	96.1248
3479.52	96.3766
3481.52	96.1629
3483.52	93.8449
3485.51	91.9688
3487.51	92.6964
3489.51	93.3862
3491.51	92.7694
3493.5	91.7708
3495.5	91.3332
3497.49	91.3015
3499.49	91.6284
3501.48	92.2679
3503.47	93.2313
3505.46	93.1147
3507.45	92.0223
3509.45	91.021
3511.44	90.6948
3513.43	90.9863
3515.41	91.1376
3517.4	91.4223
3519.39	91.4201
3521.38	88.9792
3523.36	87.556
3525.35	86.5471
3527.33	85.7994
3529.32	87.1806
3531.3	89.0127
3533.28	90.763
3535.27	90.871
3537.25	90.4585
3539.23	89.8029
3541.21	89.1196
3543.19	88.5116
3545.17	87.5687
3547.15	86.585
3549.12	85.466
3551.1	84.0498
3553.08	82.9635
3555.05	82.2255
3557.03	84.3248
3559	85.8678
3560.98	86.2315
3562.95	85.5907
3564.92	85.3345
3566.89	85.3473
3568.87	84.5278
3570.84	83.6125
3572.81	81.9537
3574.78	80.7023
3576.74	81.5527
3578.71	86.4926
3580.68	87.9898
3582.65	89.512
3584.61	90.0475
3586.58	89.61
3588.54	87.6521
3590.51	86.2723
3592.47	84.9478
3594.43	84.2886
3596.4	84.7176
3598.36	82.9532
3600.32	81.0142
3602.28	80.3548
3604.24	81.2468
3606.2	83.3983
3608.16	84.136
3610.11	82.3617
3612.07	82.6743
3614.03	82.9524
3615.98	83.1383
3617.94	82.9366
3619.89	82.2316
3621.85	81.6543
3623.8	81.2679
3625.75	81.0462
3627.71	80.1691
3629.66	79.5314
3631.61	79.1235
3633.56	78.8755
3635.51	78.9186
3637.46	78.4021
3639.41	78.3943
3641.35	78.4069
3643.3	78.6209
3645.25	76.6234
3647.19	75.8547
3649.14	76.1374
3651.08	75.6746
3653.03	72.9306
3654.97	71.9284
3656.91	71.8177
3658.85	72.657
3660.8	73.2305
3662.74	72.1095
3664.68	72.6111
3666.62	74.0022
3668.56	72.3352
3670.49	72.6608
3672.43	74.0393
3674.37	76.5077
3676.3	78.9423
3678.24	78.4231
3680.18	76.8618
3682.11	74.9735
3684.04	72.819
3685.98	71.0119
3687.91	70.7422
3689.84	71.2225
3691.77	73.0671
3693.7	75.2835
3695.63	77.2887
3697.56	77.3627
3699.49	75.2796
3701.42	72.9269
3703.35	70.9136
3705.28	69.4301
3707.2	68.4715
3709.13	68.4993
3711.05	69.1312
3712.98	70.3685
3714.9	71.5965
3716.82	72.1178
3718.75	72.2261
3720.67	72.1984
3722.59	72.371
3724.51	72.6656
3726.43	72.8875
3728.35	72.7273
3730.27	73.014
3732.19	73.3582
3734.11	72.93
3736.02	71.5135
3737.94	73.0081
3739.86	73.0169
3741.77	71.1985
3743.69	69.2453
3745.6	68.0512
3747.51	66.6441
3749.43	67.5435
3751.34	68.5291
3753.25	70.2277
3755.16	71.4553
3757.07	71.5333
3758.98	72.2352
3760.89	73.1896
3762.8	73.9285
3764.71	74.4336
3766.61	74.7713
3768.52	75.1834
3770.43	75.0598
3772.33	74.4249
3774.24	73.8199
3776.14	74.2221
3778.05	74.5707
3779.95	74.2868
3781.85	72.5316
3783.75	72.4528
3785.65	74.2571
3787.55	74.26
3789.45	74.3112
3791.35	74.0412
3793.25	72.9329
3795.15	71.0713
3797.05	70.0782
3798.95	70.0212
3800.84	70.2178
3802.74	72.4922
3804.63	73.8846
3806.53	74.3834
3808.42	74.6541
3810.31	73.8891
3812.21	72.767
3814.1	71.7205
3815.99	70.8528
3817.88	69.6625
3819.77	69.1499
3821.66	69.2546
3823.55	69.2165
3825.44	69.2944
3827.33	70.0206
3829.21	70.5032
3831.1	70.8251
3832.99	69.832
3834.87	68.3758
3836.76	63.4353
3838.64	66.7363
3840.52	70.8222
3842.41	71.0626
3844.29	70.8262
3846.17	71.1006
3848.05	71.2563
3849.93	70.2269
3851.81	69.3595
3853.69	68.5804
3855.57	68.5296
3857.45	68.9637
3859.33	69.5294
3861.21	70.6382
3863.08	70.9269
3864.96	71.3022
3866.83	71.7024
3868.71	71.8256
3870.58	71.6946
3872.46	71.2543
3874.33	70.8284
3876.2	70.3409
3878.07	69.358
3879.94	68.3706
3881.81	67.4538
3883.68	66.9162
3885.55	66.3095
3887.42	65.742
3889.29	66.1711
3891.16	67.5564
3893.02	68.8453
3894.89	69.3352
3896.76	69.9496
3898.62	70.2017
3900.49	70.1559
3902.35	70.1274
3904.21	70.6634
3906.08	71.6673
3907.94	71.4982
3909.8	70.7221
3911.66	69.4736
3913.52	67.7932
3915.38	67.2151
3917.24	67.9551
3919.1	69.0671
3920.96	68.4724
3922.82	67.7196
3924.67	67.6803
3926.53	70.1653
3928.38	71.5618
3930.24	70.451
3932.09	71.5872
3933.95	72.3347
3935.8	72.9799
3937.65	73.4697
3939.51	73.3027
3941.36	72.0726
3943.21	71.9643
3945.06	71.867
3946.91	71.6732
3948.76	71.8354
3950.61	71.2088
3952.46	70.7512
3954.3	70.99
3956.15	71.309
3958	71.7881
3959.84	72.1078
3961.69	71.8762
3963.53	70.7906
3965.38	68.9337
3967.22	68.4907
3969.06	68.3362
3970.91	68.755
3972.75	70.3855
3974.59	72.6226
3976.43	71.4704
3978.27	70.6137
3980.11	70.321
3981.95	70.6217
3983.78	71.1915
3985.62	71.272
3987.46	71.3986
3989.3	71.5695
3991.13	70.4917
3992.97	70.3576
3994.8	70.8776
3996.64	71.217
3998.47	66.0393
