#Acq. time (s)=	20
#Accumulations=	3
#Range (cm-¹)=	100...4000
#Windows=	1
#Auto scanning=	Off
#Autofocus=	Off
#Macrospot=	Off
#AutoExposure=	Off
#Spike filter=	Multiple accum.
#Delay time (s)=	0
#Binning=	1
#Readout mode=	Signal
#DeNoise=	Lite
#ICS correction=	Off
#Dark correction=	Off
#Inst. Process=	Off
#Detector temperature (°C)=	-60.09
#Instrument=	LabRAM HR Evol
#Detector=	SIN-EM FIVIS
#Objective=	x100_VIS
#Grating=	150 (500nm)
#ND Filter=	100%
#Laser=	633nm_Edge
#Hole=	30.0125
#Temperature=	0
#Range=	Visible
#StageXY=	75x50mm Scan+
#StageZ=	Z motor
#X (µm)=	9005.3
#Y (µm)=	4615.5
#Z (µm)=	1865.5
#Full time(mm:ss)=	1:03
#Project=	Buranga
#Sample=	BU18FA20_C
#Site=	C_Bertoss2
#Title=	20-C_brt2_FI01
#Remark=	
#Date=	30.07.2019 15:11
#Acquired=	30.07.2019 15:11:23
100.38	322.585
103.641	300.409
106.898	291.078
110.156	282.442
113.411	272.522
116.666	262.727
119.918	255.45
123.17	249.351
126.419	244.166
129.669	239.568
132.916	235.743
136.163	230.714
139.407	224.784
142.651	219.245
145.892	214.869
149.134	212.426
152.372	211.562
155.611	209.661
158.847	208.842
162.083	208.7
165.316	208.512
168.548	210.136
171.781	209.285
175.01	206.055
178.239	202.863
181.466	198.744
184.693	193.533
187.917	189.958
191.139	188.226
194.362	187.672
197.582	187.127
200.802	185.901
204.02	183.938
207.236	181.469
210.452	177.779
213.665	174.892
216.877	174.034
220.089	175.346
223.299	176.534
226.508	180.305
229.715	188.813
232.92	197.635
236.126	212.837
239.329	222.35
242.53	226.935
245.732	218.164
248.931	207.026
252.128	197.65
255.326	191.775
258.521	188.078
261.714	186.42
264.906	186.924
268.099	189.149
271.288	192.461
274.477	198.854
277.665	207.863
280.851	213.605
284.035	220.753
287.218	227.353
290.402	226.873
293.582	222.611
296.761	212.877
299.939	200.682
303.117	189.254
306.293	181.199
309.466	176.649
312.639	175.701
315.811	177.99
318.982	189.064
322.151	201.977
325.318	214.99
328.484	234.05
331.651	245.679
334.814	242.197
337.977	233.458
341.138	218.306
344.297	204.076
347.456	191.812
350.614	187.669
353.77	185.203
356.925	185.784
360.078	188.756
363.23	194.682
366.381	200.199
369.53	203.502
372.68	201.158
375.827	196.748
378.972	190.266
382.116	183.657
385.259	178.503
388.401	174.483
391.541	171.671
394.681	169.17
397.818	169.936
400.956	172.057
404.092	174.913
407.226	175.946
410.359	176.625
413.49	177.207
416.62	179.191
419.749	182.198
422.877	185.827
426.003	191.14
429.128	199.143
432.252	208.685
435.375	217.603
438.496	224.139
441.616	227.448
444.735	229.449
447.852	230.399
450.969	223.667
454.084	218.646
457.197	220.278
460.31	219.991
463.421	215.443
466.531	207.452
469.64	200.592
472.747	195.475
475.853	192.003
478.958	190.425
482.062	188.324
485.164	187.683
488.265	188.264
491.365	188.873
494.464	188.794
497.561	188.202
500.657	187.704
503.752	187.469
506.844	187.333
509.937	187.432
513.028	187.722
516.117	188.435
519.206	189.301
522.293	189.936
525.38	189.534
528.464	189.213
531.548	189.412
534.63	189.879
537.71	190.331
540.79	190.974
543.869	191.692
546.946	192.478
550.022	193.506
553.097	184.606
556.169	182.669
559.242	181.763
562.313	182.509
565.383	183.925
568.452	184.139
571.519	183.925
574.584	183.354
577.649	182.663
580.713	181.817
583.775	180.716
586.837	182.568
589.895	186.725
592.954	190.136
596.012	198.86
599.068	208.067
602.122	217.44
605.176	225.62
608.229	226.41
611.28	224.615
614.329	219.142
617.378	216.226
620.426	215.755
623.473	215.319
626.517	214.685
629.561	213.406
632.604	211.69
635.644	209.858
638.684	207.615
641.724	204.945
644.76	204.309
647.797	205.802
650.833	209.222
653.867	212.544
656.899	215.852
659.931	217.876
662.96	218.549
665.99	217.301
669.018	213.182
672.044	206.898
675.07	198.807
678.095	191.557
681.117	185.03
684.139	181.315
687.16	178.927
690.179	176.968
693.197	174.418
696.213	172.223
699.23	170.471
702.245	169.18
705.257	168.583
708.27	168.614
711.28	168.293
714.29	167.954
717.298	168.014
720.306	168.276
723.312	168.528
726.316	169.267
729.321	170.393
732.322	171.89
735.324	173.718
738.323	173.8
741.323	173.254
744.32	172.015
747.317	169.676
750.311	167.101
753.306	164.646
756.298	162.761
759.291	162.754
762.28	162.867
765.27	162.928
768.258	162.842
771.245	162.515
774.23	161.986
777.215	161.345
780.198	160.339
783.179	159.587
786.161	159.195
789.14	162.154
792.119	166.405
795.096	167.535
798.073	167.423
801.047	166.528
804.021	164.594
806.994	163.891
809.965	163.461
812.936	163.597
815.904	163.674
818.871	164.13
821.839	164.294
824.804	164.262
827.769	164.329
830.732	165.811
833.693	165.922
836.655	165.61
839.614	166.975
842.572	166.427
845.53	164.671
848.485	163.114
851.44	161.674
854.394	161.293
857.346	161.372
860.297	163.024
863.248	163.141
866.197	163.502
869.144	163.962
872.091	164.675
875.037	165.654
877.981	166.424
880.924	165.579
883.867	164.937
886.807	164.144
889.746	162.923
892.685	162.019
895.623	161.483
898.559	160.211
901.493	161.071
904.427	163.423
907.359	164.69
910.292	162.379
913.222	161.286
916.151	158.855
919.078	157.972
922.006	158.78
924.932	160.431
927.856	161.08
930.779	161.943
933.701	162.596
936.622	163.734
939.543	164.369
942.461	167.474
945.379	173.552
948.295	180.2
951.21	187.384
954.124	192.894
957.037	197.092
959.95	200.321
962.861	200.284
965.77	200.238
968.678	200.982
971.585	205.503
974.491	214.471
977.396	226.433
980.3	239.986
983.202	255.416
986.104	271.984
989.005	290.179
991.904	306.815
994.802	312.624
997.699	307.995
1000.6	297.371
1003.49	277.234
1006.38	260.078
1009.28	249.365
1012.17	243.075
1015.06	249.41
1017.95	256.307
1020.83	265.441
1023.72	272.572
1026.61	277.528
1029.49	281.118
1032.37	266.526
1035.26	249.401
1038.14	233.831
1041.02	219.784
1043.9	208.509
1046.77	197.369
1049.65	188.395
1052.53	181.259
1055.4	176.329
1058.27	173.87
1061.15	176.335
1064.02	174.225
1066.88	171.478
1069.75	169.063
1072.62	164.812
1075.49	166.517
1078.35	168.99
1081.22	173.911
1084.08	178.606
1086.94	183.541
1089.8	187.755
1092.66	191.453
1095.52	194.616
1098.38	195.622
1101.23	196.604
1104.09	195.406
1106.94	191.711
1109.8	184.745
1112.65	177.097
1115.5	170.171
1118.35	162.963
1121.2	157.795
1124.05	156.008
1126.89	155.464
1129.74	154.178
1132.58	153.46
1135.42	153.519
1138.27	154.06
1141.11	155.607
1143.95	157.821
1146.78	160.452
1149.62	163.871
1152.46	171.199
1155.29	178.52
1158.13	181.422
1160.96	179.254
1163.79	168.124
1166.62	159.59
1169.45	153.045
1172.28	148.607
1175.11	148.324
1177.93	147.739
1180.76	145.241
1183.59	148.727
1186.41	147.094
1189.23	144.673
1192.05	141.308
1194.87	135.485
1197.69	134.925
1200.51	136.052
1203.32	137.271
1206.14	137.508
1208.95	137.591
1211.77	137.989
1214.58	137.691
1217.39	136.358
1220.2	134.53
1223.01	132.954
1225.82	133.093
1228.62	135.489
1231.43	135.062
1234.23	133.57
1237.04	132.749
1239.84	132.767
1242.64	133.335
1245.44	134.151
1248.24	135.716
1251.04	137.009
1253.83	138.287
1256.63	139.168
1259.42	139.758
1262.22	139.911
1265.01	139.728
1267.8	139.309
1270.59	139.79
1273.38	139.472
1276.17	138.294
1278.96	139.743
1281.74	159.081
1284.53	201.09
1287.31	167.451
1290.1	150.672
1292.88	141.115
1295.66	133.436
1298.44	122.537
1301.22	131.746
1303.99	131.735
1306.77	131.518
1309.55	131.164
1312.32	130.745
1315.09	130.193
1317.87	129.597
1320.64	130.307
1323.41	131.546
1326.18	131.762
1328.94	124.328
1331.71	127.042
1334.48	129.624
1337.24	129.827
1340	127.548
1342.77	122.17
1345.53	118.958
1348.29	119.182
1351.05	121.249
1353.81	125.552
1356.56	126.331
1359.32	127.19
1362.08	128.294
1364.83	128.943
1367.58	129.071
1370.33	129.619
1373.09	131.669
1375.84	136.14
1378.58	141.85
1381.33	153.687
1384.08	163.72
1386.82	233.075
1389.57	203
1392.31	140.36
1395.06	125.064
1397.8	126.837
1400.54	127.723
1403.28	128.594
1406.02	129.081
1408.75	128.991
1411.49	127.56
1414.22	125.951
1416.96	124.169
1419.69	122.295
1422.42	121.177
1425.15	120.864
1427.88	121.283
1430.61	117.912
1433.34	115.722
1436.07	120.49
1438.79	120.313
1441.52	119.927
1444.24	118.145
1446.96	115.635
1449.69	113.223
1452.41	110.682
1455.13	111.932
1457.84	112.697
1460.56	115.629
1463.28	118.391
1465.99	119.637
1468.71	120.218
1471.42	120.807
1474.13	121.292
1476.84	121.606
1479.55	121.727
1482.26	121.735
1484.97	121.366
1487.68	120.711
1490.39	119.797
1493.09	118.42
1495.79	115.362
1498.5	115.755
1501.2	116.167
1503.9	117.2
1506.6	118.32
1509.3	119.373
1512	118.796
1514.69	117.214
1517.39	116.098
1520.08	115.627
1522.78	115.356
1525.47	115.48
1528.16	116.095
1530.85	117.207
1533.54	117.652
1536.23	118.295
1538.92	115.536
1541.61	113.699
1544.29	112.456
1546.98	114.461
1549.66	114.39
1552.34	114.322
1555.02	116.379
1557.7	118.763
1560.38	119.934
1563.06	119.098
1565.74	118.932
1568.42	118.757
1571.09	118.006
1573.77	117.871
1576.44	117.489
1579.11	116.906
1581.78	117.186
1584.45	117.901
1587.12	117.637
1589.79	116.912
1592.46	116.21
1595.12	114.608
1597.79	111.939
1600.45	108.636
1603.12	107.076
1605.78	109.137
1608.44	113.389
1611.1	115.277
1613.76	117.319
1616.42	118.562
1619.08	118.61
1621.73	118.474
1624.39	118.831
1627.04	119.175
1629.7	118.579
1632.35	118.724
1635	118.843
1637.65	118.868
1640.3	118.764
1642.95	118.883
1645.59	118.173
1648.24	117.716
1650.88	118.529
1653.53	120.219
1656.17	121.067
1658.82	119.94
1661.46	117.557
1664.1	114.028
1666.74	111.594
1669.37	109.417
1672.01	110.438
1674.65	112.138
1677.28	113.955
1679.92	114.895
1682.55	115.739
1685.18	116.257
1687.82	114.461
1690.44	110.272
1693.07	109.08
1695.7	109.859
1698.33	110.231
1700.96	109.544
1703.58	109.574
1706.21	110.151
1708.83	110.718
1711.45	111.239
1714.07	111.642
1716.69	110.212
1719.31	108.608
1721.93	106.849
1724.55	105.063
1727.17	104.998
1729.78	107.778
1732.4	109.323
1735.01	108.975
1737.62	108.14
1740.23	107.34
1742.85	107.011
1745.46	108.006
1748.07	108.636
1750.67	110.041
1753.28	111.745
1755.89	113.004
1758.49	111.59
1761.09	109.269
1763.7	107.273
1766.3	105.844
1768.9	105.266
1771.5	105.4
1774.1	106.038
1776.7	104.512
1779.29	103.351
1781.89	103.021
1784.49	103.877
1787.08	105.321
1789.67	105.961
1792.27	107.333
1794.86	109.161
1797.45	110.236
1800.04	108.921
1802.62	107.332
1805.21	105.645
1807.8	104.352
1810.38	103.442
1812.97	102.821
1815.55	103.95
1818.14	107.021
1820.72	108.415
1823.3	109.539
1825.88	108.589
1828.46	108.552
1831.03	108.571
1833.61	108.327
1836.19	107.5
1838.76	106.495
1841.34	105.57
1843.91	104.774
1846.48	104.074
1849.05	103.477
1851.62	102.958
1854.19	102.064
1856.76	101.562
1859.33	101.099
1861.89	100.689
1864.46	100.971
1867.02	100.08
1869.59	98.4943
1872.15	98.5352
1874.71	99.3617
1877.27	98.1272
1879.83	97.9085
1882.39	99.4699
1884.95	102.327
1887.51	104.67
1890.06	105.287
1892.62	105.689
1895.17	104.722
1897.72	103.716
1900.27	102.888
1902.83	102.168
1905.38	101.624
1907.93	101.25
1910.47	101.048
1913.02	100.954
1915.57	100.939
1918.11	101.101
1920.66	101.426
1923.2	102.064
1925.74	102.571
1928.29	102.618
1930.83	100.068
1933.37	99.1924
1935.91	99.5644
1938.44	100.141
1940.98	100.672
1943.52	100.275
1946.05	99.8749
1948.59	99.6318
1951.12	101.566
1953.65	103.121
1956.18	102.814
1958.72	102.433
1961.25	102.305
1963.77	102.392
1966.3	102.655
1968.83	103.083
1971.35	102.797
1973.88	102.599
1976.4	102.701
1978.93	102.375
1981.45	101.845
1983.97	102.08
1986.49	102.868
1989.01	103.519
1991.53	103.211
1994.05	102.853
1996.56	102.635
1999.08	100.42
2001.59	100.874
2004.11	102.516
2006.62	103.998
2009.13	104.652
2011.64	104.523
2014.15	103.641
2016.66	103.582
2019.17	103.569
2021.68	103.508
2024.18	103.411
2026.69	103.395
2029.19	103.203
2031.7	102.499
2034.2	101.635
2036.7	100.424
2039.2	100.363
2041.7	102.269
2044.2	102.301
2046.7	100.114
2049.2	98.0151
2051.7	96.4868
2054.19	95.6973
2056.69	95.1523
2059.18	95.9803
2061.67	97.2222
2064.16	98.6406
2066.65	100.131
2069.15	101.198
2071.63	102.432
2074.12	103.586
2076.61	102.637
2079.1	101.016
2081.58	99.9217
2084.07	99.0887
2086.55	98.9365
2089.03	99.3913
2091.51	100.944
2094	102.048
2096.47	101.902
2098.95	102.154
2101.43	101.793
2103.91	101.646
2106.39	101.779
2108.86	102.091
2111.34	101.336
2113.81	99.0122
2116.28	98.1148
2118.76	98.091
2121.23	98.7626
2123.7	99.6021
2126.17	100.04
2128.63	100.279
2131.1	99.908
2133.57	99.1707
2136.03	98.5378
2138.5	98.2045
2140.96	99.7298
2143.43	99.0861
2145.89	98.5322
2148.35	98.4203
2150.81	98.0625
2153.27	97.8089
2155.73	98.6107
2158.18	97.8403
2160.64	95.962
2163.1	95.5506
2165.55	95.5673
2168	95.7975
2170.46	96.2594
2172.91	96.5321
2175.36	96.3822
2177.81	96.6307
2180.26	97.1111
2182.71	97.6949
2185.16	98.6716
2187.6	99.5249
2190.05	100.45
2192.5	101.597
2194.94	101.505
2197.38	101.305
2199.83	100.588
2202.27	99.1262
2204.71	97.5628
2207.15	96.064
2209.59	95.6998
2212.02	96.1996
2214.46	96.6849
2216.9	102.323
2219.33	102.476
2221.77	102.163
2224.2	101.611
2226.64	99.2325
2229.07	95.273
2231.5	92.5466
2233.93	91.3498
2236.36	91.434
2238.79	90.7566
2241.21	92.2144
2243.64	92.5663
2246.06	92.8161
2248.49	93.1167
2250.91	93.4204
2253.34	94.2029
2255.76	93.7938
2258.18	93.5691
2260.6	94.1749
2263.02	95.4765
2265.44	94.9101
2267.86	94.529
2270.27	94.7785
2272.69	94.3018
2275.11	94.0131
2277.52	93.996
2279.93	93.1313
2282.35	93.4847
2284.76	94.0907
2287.17	94.8608
2289.58	95.1234
2291.99	95.1688
2294.4	95.3261
2296.8	94.3473
2299.21	93.6286
2301.62	93.3538
2304.02	93.532
2306.43	94.2634
2308.83	94.4674
2311.23	95.0173
2313.63	95.4818
2316.03	97.0132
2318.43	100.24
2320.83	100.132
2323.23	99.1584
2325.63	97.8959
2328.02	98.4279
2330.42	97.1219
2332.81	96.0019
2335.21	95.1672
2337.6	94.5964
2339.99	94.348
2342.38	94.5793
2344.77	95.3428
2347.16	96.7168
2349.55	96.5732
2351.94	93.8482
2354.32	91.646
2356.71	90.0628
2359.1	90.8916
2361.48	92.0805
2363.86	91.2747
2366.25	91.8399
2368.63	92.488
2371.01	92.3867
2373.39	91.9217
2375.77	92.2652
2378.15	93.1766
2380.52	93.5859
2382.9	93.7311
2385.28	93.2954
2387.65	92.6274
2390.03	91.6394
2392.4	90.3592
2394.77	88.9093
2397.14	87.5333
2399.51	85.163
2401.88	88.6629
2404.25	92.2602
2406.62	92.7207
2408.99	92.8177
2411.35	92.559
2413.72	90.5147
2416.08	91.0892
2418.45	91.5533
2420.81	92.0838
2423.17	93.5945
2425.53	95.0199
2427.89	95.6706
2430.25	94.4835
2432.61	92.7829
2434.97	91.0392
2437.33	89.6332
2439.69	88.0041
2442.04	87.1219
2444.4	87.5431
2446.75	89.509
2449.1	90.3459
2451.45	90.8391
2453.81	91.8648
2456.16	92.6239
2458.51	93.1731
2460.85	92.8118
2463.2	92.1135
2465.55	91.8808
2467.9	91.8074
2470.24	91.2682
2472.59	91.4835
2474.93	91.1143
2477.27	89.9543
2479.62	88.7856
2481.96	87.9929
2484.3	88.2992
2486.64	88.903
2488.98	89.3591
2491.31	89.9865
2493.65	90.853
2495.99	90.3187
2498.32	90.0234
2500.66	89.8124
2502.99	90.3446
2505.32	90.9609
2507.66	89.5941
2509.99	87.8698
2512.32	86.1802
2514.65	85.329
2516.98	85.2216
2519.31	85.6864
2521.63	87.2384
2523.96	88.4505
2526.28	89.1189
2528.61	88.6109
2530.93	87.6768
2533.26	86.3434
2535.58	86.3363
2537.9	85.5217
2540.22	86.7029
2542.54	88.7559
2544.86	89.9381
2547.18	89.7222
2549.5	89.4158
2551.81	89.3886
2554.13	89.2099
2556.44	88.7916
2558.76	88.2296
2561.07	87.5274
2563.38	88.2448
2565.69	88.6691
2568.01	89.0139
2570.32	89.125
2572.62	87.8379
2574.93	86.073
2577.24	84.7467
2579.55	83.918
2581.85	83.6426
2584.16	83.7947
2586.46	82.2085
2588.77	81.6071
2591.07	81.4607
2593.37	82.444
2595.67	83.4449
2597.97	85.8974
2600.27	87.1338
2602.57	87.6469
2604.87	87.4902
2607.17	86.613
2609.46	86.0408
2611.76	85.8818
2614.05	85.5879
2616.35	85.7695
2618.64	87.1026
2620.93	89.2168
2623.22	89.7491
2625.51	89.4303
2627.8	88.8508
2630.09	88.0136
2632.38	86.3751
2634.67	85.7071
2636.96	85.2082
2639.24	84.2731
2641.53	83.6432
2643.81	83.3514
2646.09	83.4671
2648.38	83.7569
2650.66	83.3414
2652.94	82.8799
2655.22	82.0734
2657.5	81.6962
2659.78	83.0256
2662.06	84.5873
2664.33	84.6078
2666.61	84.8626
2668.88	84.7912
2671.16	84.4685
2673.43	83.7542
2675.71	81.9869
2677.98	81.9508
2680.25	82.0021
2682.52	83.2958
2684.79	83.7489
2687.06	84.3833
2689.33	85.1406
2691.6	85.7153
2693.86	85.8792
2696.13	85.467
2698.39	84.8473
2700.66	83.8856
2702.92	81.9329
2705.18	82.2452
2707.45	81.1827
2709.71	80.2414
2711.97	78.4944
2714.23	76.6744
2716.49	74.9793
2718.74	75.6936
2721	79.7878
2723.26	82.3833
2725.51	84.6238
2727.77	84.2975
2730.02	84.5971
2732.28	83.9796
2734.53	82.8409
2736.78	81.9929
2739.03	79.3389
2741.28	78.147
2743.53	78.8395
2745.78	79.7516
2748.03	80.1888
2750.27	79.6909
2752.52	78.8971
2754.77	78.2687
2757.01	80.0486
2759.26	84.268
2761.5	87.165
2763.74	85.0763
2765.98	82.1087
2768.22	79.6261
2770.46	81.0583
2772.7	81.3896
2774.94	82.036
2777.18	81.4402
2779.42	81.0026
2781.65	80.6516
2783.89	80.5222
2786.12	80.9851
2788.36	81.856
2790.59	83.5369
2792.82	84.9142
2795.05	83.9721
2797.28	82.9943
2799.51	81.0795
2801.74	78.4855
2803.97	77.2978
2806.2	78.2833
2808.43	80.3032
2810.65	80.8351
2812.88	80.7183
2815.1	80.1215
2817.33	79.2016
2819.55	77.7076
2821.77	77.1414
2823.99	77.5526
2826.21	78.1248
2828.43	79.0216
2830.65	79.6573
2832.87	80.5998
2835.09	81.6499
2837.3	82.1336
2839.52	82.8693
2841.74	83.83
2843.95	83.3866
2846.17	81.6645
2848.38	79.978
2850.59	78.171
2852.8	75.7961
2855.01	75.3936
2857.22	75.3884
2859.43	75.6606
2861.64	76.2374
2863.85	76.9804
2866.06	77.9025
2868.26	78.0842
2870.47	78.3746
2872.67	78.6199
2874.88	81.3695
2877.08	81.2216
2879.28	81.2423
2881.48	81.1921
2883.68	81.2088
2885.89	80.5706
2888.08	79.9618
2890.28	79.5234
2892.48	78.8862
2894.68	78.3973
2896.87	78.3937
2899.07	78.9735
2901.26	78.702
2903.46	79.3309
2905.65	79.352
2907.85	79.6025
2910.04	79.6403
2912.23	78.9848
2914.42	78.3744
2916.61	77.9989
2918.8	77.7057
2920.98	77.394
2923.17	78.0576
2925.36	78.2431
2927.54	78.506
2929.73	77.9265
2931.91	77.655
2934.1	77.4635
2936.28	77.0498
2938.46	76.4503
2940.64	75.782
2942.82	75.9742
2945	76.8212
2947.18	77.7393
2949.36	77.7894
2951.54	78.5687
2953.72	77.6395
2955.89	77.1111
2958.07	76.6478
2960.24	76.6447
2962.42	77.4358
2964.59	79.3637
2966.76	81.2908
2968.93	82.1184
2971.1	81.9847
2973.27	81.3604
2975.44	79.3898
2977.61	77.3244
2979.78	76.2575
2981.95	75.7332
2984.11	76.1313
2986.28	76.1652
2988.45	76.8326
2990.61	76.0441
2992.77	75.9215
2994.94	76.2794
2997.1	77.2344
2999.26	78.186
3001.42	78.4057
3003.58	78.5897
3005.74	78.6019
3007.9	78.5386
3010.06	78.7699
3012.21	80.2861
3014.37	80.0744
3016.52	78.4883
3018.68	76.4041
3020.83	74.7821
3022.99	74.3498
3025.14	74.3849
3027.29	76.0393
3029.44	77.3605
3031.59	78.6533
3033.74	80.1782
3035.89	80.3598
3038.04	79.8519
3040.19	79.2682
3042.33	78.6521
3044.48	78.0737
3046.62	77.5985
3048.77	77.27
3050.91	77.2042
3053.05	76.9681
3055.2	76.8304
3057.34	76.9714
3059.48	77.7083
3061.62	78.7838
3063.76	79.368
3065.9	79.7799
3068.03	80.7095
3070.17	81.372
3072.31	81.7031
3074.44	81.1371
3076.58	81.3092
3078.71	81.4368
3080.85	81.5905
3082.98	81.6684
3085.11	81.2379
3087.24	80.7882
3089.37	80.5063
3091.5	80.2097
3093.63	81.2237
3095.76	82.0737
3097.89	82.3628
3100.02	82.368
3102.14	82.0841
3104.27	81.6799
3106.39	81.4328
3108.52	81.6296
3110.64	81.0246
3112.76	80.5762
3114.89	80.2888
3117.01	80.1432
3119.13	80.1129
3121.25	80.2077
3123.37	80.4378
3125.49	80.6613
3127.6	80.9825
3129.72	81.8474
3131.84	82.51
3133.95	83.0204
3136.07	82.3445
3138.18	82.6778
3140.29	83.6617
3142.41	84.7157
3144.52	85.4267
3146.63	85.8779
3148.74	86.6333
3150.85	85.4625
3152.96	83.4612
3155.07	82.3989
3157.18	82.4523
3159.28	83.7886
3161.39	85.3144
3163.5	86.9463
3165.6	88.3035
3167.71	90.0173
3169.81	91.1193
3171.91	90.8493
3174.01	89.5614
3176.12	88.5831
3178.22	89.3423
3180.32	88.9257
3182.42	86.3044
3184.51	87.1691
3186.61	88.1886
3188.71	89.7865
3190.8	89.9459
3192.9	89.9246
3195	89.6349
3197.09	89.215
3199.18	88.3215
3201.28	88.4745
3203.37	89.9832
3205.46	92.0355
3207.55	92.5317
3209.64	92.491
3211.73	92.235
3213.82	93.6246
3215.91	92.3752
3218	91.2583
3220.08	89.6773
3222.17	88.244
3224.25	88.8776
3226.34	89.8967
3228.42	90.3615
3230.5	90.113
3232.59	89.8276
3234.67	89.771
3236.75	89.9735
3238.83	88.4675
3240.91	87.2333
3242.99	86.4136
3245.07	86.9099
3247.14	87.5707
3249.22	87.8786
3251.3	88.2871
3253.37	88.0868
3255.45	88.096
3257.52	88.163
3259.6	88.1688
3261.67	87.9946
3263.74	86.7956
3265.81	86.0236
3267.88	85.2876
3269.95	84.9209
3272.02	83.5586
3274.09	81.1635
3276.16	82.2922
3278.22	83.6642
3280.29	85.1348
3282.36	85.6587
3284.42	86.7898
3286.49	87.5835
3288.55	87.6057
3290.61	87.3537
3292.68	86.9103
3294.74	85.7785
3296.8	85.5354
3298.86	85.0893
3300.92	88.1426
3302.98	86.946
3305.04	85.408
3307.09	83.0883
3309.15	81.542
3311.21	82.408
3313.26	85.6807
3315.32	86.4896
3317.37	87.0494
3319.42	87.367
3321.48	87.5717
3323.53	86.8301
3325.58	87.7162
3327.63	87.9574
3329.68	87.6983
3331.73	87.5076
3333.78	86.9552
3335.83	86.9713
3337.87	87.6692
3339.92	87.7035
3341.97	86.7846
3344.01	85.7161
3346.06	84.9761
3348.1	84.2468
3350.14	83.726
3352.19	83.4736
3354.23	83.5367
3356.27	83.9359
3358.31	84.7358
3360.35	86.0629
3362.39	87.7217
3364.43	89.6806
3366.47	92.0461
3368.5	93.516
3370.54	95.0727
3372.58	96.388
3374.61	96.6033
3376.65	95.0082
3378.68	92.4843
3380.71	92.0501
3382.74	91.2382
3384.78	89.4424
3386.81	89.6467
3388.84	90.1741
3390.87	90.2505
3392.9	92.3601
3394.93	93.3892
3396.95	93.8679
3398.98	97.1104
3401.01	85.5506
3403.03	80.8045
3405.06	80.1157
3407.08	82.2189
3409.1	84.2101
3411.13	84.853
3413.15	86.1712
3415.17	88.3235
3417.19	90.1311
3419.21	91.6996
3421.23	87.872
3423.25	91.0394
3425.27	93.7601
3427.29	94.676
3429.31	93.5066
3431.32	86.3627
3433.34	84.4149
3435.35	83.3676
3437.37	83.9674
3439.38	85.0553
3441.39	86.0458
3443.41	87.6133
3445.42	89.5761
3447.43	88.6264
3449.44	87.7005
3451.45	86.9836
3453.46	85.7689
3455.47	84.044
3457.47	84.1635
3459.48	83.9225
3461.49	85.133
3463.49	86.6582
3465.5	88.4752
3467.5	89.9373
3469.51	89.8097
3471.51	89.2455
3473.51	88.4055
3475.51	87.4935
3477.52	86.5534
3479.52	85.6124
3481.52	84.673
3483.52	83.7102
3485.51	82.791
3487.51	82.1164
3489.51	80.799
3491.51	83.8127
3493.5	83.861
3495.5	81.2672
3497.49	76.5534
3499.49	79.2834
3501.48	79.5384
3503.47	80.8366
3505.46	82.1743
3507.45	83.2072
3509.45	83.0106
3511.44	82.3073
3513.43	81.1866
3515.41	80.5756
3517.4	79.3969
3519.39	78.3779
3521.38	78.6813
3523.36	79.1318
3525.35	79.0972
3527.33	77.3567
3529.32	74.5614
3531.3	73.3992
3533.28	74.254
3535.27	75.1756
3537.25	76.7519
3539.23	76.2256
3541.21	75.4466
3543.19	75.2443
3545.17	75.616
3547.15	75.0903
3549.12	74.0579
3551.1	73.1524
3553.08	72.3656
3555.05	71.451
3557.03	70.967
3559	70.6379
3560.98	70.5719
3562.95	71.2444
3564.92	71.3062
3566.89	71.4843
3568.87	71.7645
3570.84	72.1842
3572.81	73.308
3574.78	73.7737
3576.74	72.248
3578.71	72.2558
3580.68	71.5968
3582.65	73.0076
3584.61	73.9242
3586.58	75.2859
3588.54	74.656
3590.51	73.5393
3592.47	73.8539
3594.43	74.0799
3596.4	74.0924
3598.36	72.7093
3600.32	69.3273
3602.28	66.813
3604.24	65.2692
3606.2	64.6455
3608.16	64.709
3610.11	65.1025
3612.07	65.1759
3614.03	65.558
3615.98	65.8
3617.94	64.7276
3619.89	62.5646
3621.85	61.0653
3623.8	59.6546
3625.75	59.1181
3627.71	58.9433
3629.66	59.0757
3631.61	59.0484
3633.56	58.6229
3635.51	58.6662
3637.46	59.4299
3639.41	60.2107
3641.35	61.027
3643.3	61.8393
3645.25	62.1725
3647.19	61.6855
3649.14	61.3352
3651.08	61.1492
3653.03	61.0462
3654.97	60.8783
3656.91	60.218
3658.85	59.8807
3660.8	59.7769
3662.74	59.8568
3664.68	59.6536
3666.62	59.2822
3668.56	59.3207
3670.49	59.1013
3672.43	58.8933
3674.37	58.8852
3676.3	59.084
3678.24	57.7936
3680.18	55.8874
3682.11	55.0221
3684.04	55.455
3685.98	55.4066
3687.91	56.2025
3689.84	56.5482
3691.77	56.4018
3693.7	56.3566
3695.63	56.5359
3697.56	56.3909
3699.49	55.6727
3701.42	55.4319
3703.35	55.2339
3705.28	55.0832
3707.2	55.6835
3709.13	57.0346
3711.05	56.6957
3712.98	55.7827
3714.9	54.7251
3716.82	53.657
3718.75	52.7756
3720.67	52.0596
3722.59	51.6402
3724.51	51.4291
3726.43	51.4384
3728.35	51.6498
3730.27	52.0521
3732.19	52.6387
3734.11	53.4085
3736.02	54.3514
3737.94	55.4151
3739.86	56.2156
3741.77	56.4798
3743.69	56.1107
3745.6	55.5988
3747.51	54.9307
3749.43	54.4504
3751.34	52.6263
3753.25	52.9934
3755.16	52.9659
3757.07	52.9165
3758.98	52.9981
3760.89	52.7406
3762.8	52.4703
3764.71	52.3418
3766.61	52.2219
3768.52	52.5977
3770.43	53.0726
3772.33	53.5148
3774.24	53.6785
3776.14	53.8757
3778.05	53.8124
3779.95	53.6008
3781.85	53.568
3783.75	53.7727
3785.65	53.9465
3787.55	53.3685
3789.45	51.0139
3791.35	48.4437
3793.25	47.5717
3795.15	48.8075
3797.05	50.4791
3798.95	51.6745
3800.84	52.7849
3802.74	53.1235
3804.63	52.8467
3806.53	51.7418
3808.42	50.4143
3810.31	50.4832
3812.21	50.819
3814.1	51.4978
3815.99	52.2894
3817.88	53.0289
3819.77	53.5063
3821.66	53.9901
3823.55	54.2021
3825.44	54.2181
3827.33	54.0507
3829.21	53.7186
3831.1	53.2044
3832.99	52.253
3834.87	51.1755
3836.76	50.2474
3838.64	48.8426
3840.52	49.0582
3842.41	49.4435
3844.29	49.8816
3846.17	50.442
3848.05	50.9989
3849.93	51.4278
3851.81	51.7896
3853.69	51.9024
3855.57	51.6829
3857.45	51.1871
3859.33	51.397
3861.21	51.5557
3863.08	51.2136
3864.96	51.0086
3866.83	51.0755
3868.71	51.139
3870.58	50.3704
3872.46	49.694
3874.33	49.0307
3876.2	48.9048
3878.07	49.5627
3879.94	48.7288
3881.81	48.8262
3883.68	49.51
3885.55	50.0751
3887.42	50.0904
3889.29	50.3178
3891.16	50.4989
3893.02	50.098
3894.89	49.7406
3896.76	49.3956
3898.62	49.4221
3900.49	49.65
3902.35	49.7565
3904.21	49.391
3906.08	48.7363
3907.94	49.4517
3909.8	49.9027
3911.66	49.9752
3913.52	49.8574
3915.38	48.8618
3917.24	48.3001
3919.1	47.9096
3920.96	48.2247
3922.82	48.7622
3924.67	49.6173
3926.53	49.2368
3928.38	48.9976
3930.24	48.9099
3932.09	49.9375
3933.95	50.0598
3935.8	50.1347
3937.65	50.068
3939.51	49.8904
3941.36	49.6859
3943.21	49.4014
3945.06	49.4637
3946.91	49.351
3948.76	48.9473
3950.61	48.5214
3952.46	47.4538
3954.3	47.0175
3956.15	46.9822
3958	47.9386
3959.84	48.3439
3961.69	48.4919
3963.53	49.1483
3965.38	48.3015
3967.22	47.1687
3969.06	47.077
3970.91	47.5971
3972.75	46.7009
3974.59	47.0333
3976.43	49.3485
3978.27	49.072
3980.11	48.5304
3981.95	47.5741
3983.78	45.4354
3985.62	44.1908
3987.46	43.7869
3989.3	47.396
3991.13	48.3774
3992.97	47.2563
3994.8	45.0285
3996.64	43.4834
3998.47	47.69
