#Acq. time (s)=	20
#Accumulations=	3
#Range (cm-¹)=	100...4000
#Windows=	1
#Auto scanning=	Off
#Autofocus=	Off
#Macrospot=	Off
#AutoExposure=	Off
#Spike filter=	Multiple accum.
#Delay time (s)=	0
#Binning=	1
#Readout mode=	Signal
#DeNoise=	Lite
#ICS correction=	Off
#Dark correction=	Off
#Inst. Process=	Off
#Detector temperature (°C)=	-60.09
#Instrument=	LabRAM HR Evol
#Detector=	SIN-EM FIVIS
#Objective=	x50_VIS_LWD
#Grating=	150 (500nm)
#ND Filter=	100%
#Laser=	633nm_Edge
#Hole=	30.0125
#Temperature=	0
#Range=	Visible
#StageXY=	75x50mm Scan+
#StageZ=	Z motor
#X (µm)=	7297.3
#Y (µm)=	4547.7
#Z (µm)=	-30.3
#Full time(mm:ss)=	1:02
#Project=	Buranga
#Sample=	BU18FA20_C
#Site=	C_Bertoss1
#Title=	20-C_brt1_FI04
#Remark=	
#Date=	30.07.2019 14:41
#Acquired=	30.07.2019 14:41:13
100.38	761.956
103.641	664.389
106.898	602.148
110.156	539.871
113.411	489.269
116.666	445.185
119.918	408.011
123.17	374.884
126.419	345.556
129.669	319.682
132.916	297.482
136.163	278.782
139.407	263.831
142.651	252.117
145.892	243.443
149.134	235.27
152.372	226.07
155.611	216.849
158.847	208.012
162.083	201.313
165.316	194.55
168.548	193.854
171.781	191.444
175.01	189.136
178.239	184.38
181.466	175.234
184.693	167.892
187.917	168.945
191.139	167.362
194.362	165.697
197.582	163.686
200.802	161.451
204.02	158.899
207.236	155.942
210.452	152.706
213.665	149.564
216.877	147.292
220.089	147.746
223.299	151.911
226.508	156.277
229.715	167.673
232.92	181.191
236.126	211.444
239.329	236.291
242.53	291.931
245.732	289.203
248.931	256.402
252.128	232.298
255.326	214.347
258.521	202.897
261.714	196.489
264.906	194.884
268.099	198.028
271.288	205.011
274.477	217.104
277.665	230.516
280.851	248.953
284.035	281.46
287.218	307.553
290.402	342.721
293.582	317.039
296.761	281.249
299.939	246.666
303.117	219.364
306.293	197.673
309.466	185.31
312.639	178.555
315.811	179.959
318.982	188.08
322.151	206.215
325.318	231.486
328.484	275.268
331.651	333.903
334.814	348.362
337.977	315.236
341.138	269.791
344.297	232.322
347.456	210.492
350.614	196.609
353.77	188.873
356.925	189.539
360.078	194.681
363.23	201.795
366.381	211.623
369.53	216.077
372.68	216.007
375.827	211.353
378.972	202.558
382.116	190.689
385.259	179.467
388.401	167.476
391.541	158.354
394.681	155.531
397.818	153.001
400.956	151.92
404.092	152.154
407.226	153.541
410.359	156.609
413.49	158.516
416.62	161.273
419.749	163.301
422.877	166.24
426.003	173.496
429.128	186.196
432.252	204.423
435.375	222.354
438.496	241.239
441.616	254.645
444.735	266.658
447.852	266.202
450.969	264.587
454.084	256.093
457.197	249.907
460.31	248.388
463.421	243.213
466.531	233.194
469.64	219.802
472.747	203.907
475.853	193.212
478.958	182.173
482.062	175.885
485.164	171.218
488.265	168.293
491.365	166.434
494.464	165.78
497.561	165.223
500.657	161.161
503.752	160.513
506.844	161.165
509.937	162.397
513.028	164.004
516.117	167.529
519.206	168.765
522.293	166.695
525.38	162.393
528.464	159.126
531.548	157.086
534.63	156.877
537.71	157.283
540.79	157.813
543.869	158.243
546.946	158.375
550.022	158.669
553.097	158.419
556.169	157.87
559.242	155.826
562.313	153.675
565.383	151.341
568.452	149.323
571.519	147.926
574.584	146.004
577.649	144.661
580.713	144.506
583.775	147.044
586.837	151.869
589.895	159.871
592.954	172.085
596.012	185.143
599.068	204.941
602.122	234.157
605.176	257.484
608.229	255.965
611.28	247.161
614.329	237.226
617.378	228.091
620.426	222.678
623.473	221.691
626.517	222.442
629.561	223.816
632.604	228.779
635.644	230.757
638.684	230.831
641.724	228.476
644.76	219.799
647.797	206.227
650.833	207.161
653.867	212
656.899	221.811
659.931	231.18
662.96	233.281
665.99	230.679
669.018	223.576
672.044	212.335
675.07	197.262
678.095	182.467
681.117	169.721
684.139	159.734
687.16	152.584
690.179	147.639
693.197	144.216
696.213	142.565
699.23	140.383
702.245	136.736
705.257	132.849
708.27	131.077
711.28	129.821
714.29	128.901
717.298	128.131
720.306	127.374
723.312	126.725
726.316	127.543
729.321	127.696
732.322	127.515
735.324	126.992
738.323	126.747
741.323	127.203
744.32	128.414
747.317	129.739
750.311	130.788
753.306	131.459
756.298	131.591
759.291	131.168
762.28	130.101
765.27	129.471
768.258	129.784
771.245	128.554
774.23	127.365
777.215	126.84
780.198	125.587
783.179	124.971
786.161	125.564
789.14	126.437
792.119	127.259
795.096	127.941
798.073	128.103
801.047	127.946
804.021	127.432
806.994	126.545
809.965	127.087
812.936	127.851
815.904	127.479
818.871	127.331
821.839	127.738
824.804	129.205
827.769	130.671
830.732	132.427
833.693	134.113
836.655	135.032
839.614	135.231
842.572	133.6
845.53	131.704
848.485	130.176
851.44	129.048
854.394	128.267
857.346	127.928
860.297	127.769
863.248	127.735
866.197	127.685
869.144	128.216
872.091	128.392
875.037	131.662
877.981	133.331
880.924	134.335
883.867	135.627
886.807	136.66
889.746	137.98
892.685	138.132
895.623	137.53
898.559	136.723
901.493	136.147
904.427	135.781
907.359	135.522
910.292	135.521
913.222	135.456
916.151	135.594
919.078	136.023
922.006	136.889
924.932	138.909
927.856	141.616
930.779	144.926
933.701	148.845
936.622	153.194
939.543	157.49
942.461	162.775
945.379	168.93
948.295	176.904
951.21	186.129
954.124	196.253
957.037	207.622
959.95	215.89
962.861	223.041
965.77	231.01
968.678	232.18
971.585	236.023
974.491	246.28
977.396	263.325
980.3	289.005
983.202	327.38
986.104	368.568
989.005	432.675
991.904	492.905
994.802	545.568
997.699	531.677
1000.6	475.981
1003.49	428.996
1006.38	389.584
1009.28	364.914
1012.17	347.473
1015.06	339.792
1017.95	341.186
1020.83	351.694
1023.72	371.21
1026.61	399.138
1029.49	443.461
1032.37	439.827
1035.26	395.584
1038.14	344.047
1041.02	296.049
1043.9	265.002
1046.77	238.317
1049.65	223.58
1052.53	213.343
1055.4	205.192
1058.27	198.6
1061.15	192.072
1064.02	180.752
1066.88	171.606
1069.75	167.336
1072.62	165.836
1075.49	168.438
1078.35	168.355
1081.22	181.736
1084.08	193.542
1086.94	203.907
1089.8	212.03
1092.66	217.341
1095.52	220.312
1098.38	226.638
1101.23	231.326
1104.09	236.197
1106.94	232.812
1109.8	222.752
1112.65	204.105
1115.5	187.038
1118.35	172.09
1121.2	160.979
1124.05	152.334
1126.89	147.65
1129.74	146.872
1132.58	148.161
1135.42	150.973
1138.27	154.393
1141.11	158.357
1143.95	163.261
1146.78	169.001
1149.62	175.723
1152.46	183.687
1155.29	190.908
1158.13	197.329
1160.96	198.083
1163.79	185.03
1166.62	169.421
1169.45	153.221
1172.28	141.757
1175.11	139.025
1177.93	135.635
1180.76	133.212
1183.59	131.256
1186.41	129.227
1189.23	127.097
1192.05	125.148
1194.87	123.6
1197.69	122.357
1200.51	121.36
1203.32	120.51
1206.14	119.876
1208.95	118.208
1211.77	117.136
1214.58	116.473
1217.39	116.187
1220.2	116.478
1223.01	118.673
1225.82	120.024
1228.62	120.677
1231.43	121.052
1234.23	120.318
1237.04	118.566
1239.84	117.153
1242.64	116.193
1245.44	116.476
1248.24	118.181
1251.04	121.714
1253.83	125.968
1256.63	130.864
1259.42	136.243
1262.22	141.759
1265.01	146.433
1267.8	143.442
1270.59	136.961
1273.38	129.611
1276.17	136.858
1278.96	147.227
1281.74	340
1284.53	645
1287.31	343
1290.1	164.516
1292.88	143.874
1295.66	139.188
1298.44	134.242
1301.22	130.046
1303.99	126.496
1306.77	123.418
1309.55	121.008
1312.32	119.181
1315.09	117.864
1317.87	117.25
1320.64	117.028
1323.41	117.911
1326.18	121.304
1328.94	121.627
1331.71	121.088
1334.48	118.817
1337.24	115.799
1340	112.51
1342.77	110.337
1345.53	111.916
1348.29	112.937
1351.05	113.729
1353.81	114.504
1356.56	115.185
1359.32	115.821
1362.08	117.02
1364.83	119.019
1367.58	120.623
1370.33	125.694
1373.09	130.303
1375.84	136.139
1378.58	138.335
1381.33	147.404
1384.08	203.79
1386.82	747
1389.57	870
1392.31	284
1395.06	155
1397.8	129
1400.54	130.286
1403.28	133.4
1406.02	142.683
1408.75	153.315
1411.49	148.275
1414.22	133.156
1416.96	121.254
1419.69	116.387
1422.42	112.492
1425.15	110.206
1427.88	108.731
1430.61	107.577
1433.34	106.569
1436.07	104.319
1438.79	104.351
1441.52	104.326
1444.24	104.101
1446.96	103.544
1449.69	102.591
1452.41	100.552
1455.13	98.2618
1457.84	97.1161
1460.56	99.0184
1463.28	102.319
1465.99	103.739
1468.71	103.159
1471.42	103.38
1474.13	102.886
1476.84	102.821
1479.55	101.926
1482.26	101.38
1484.97	100.535
1487.68	99.903
1490.39	99.3544
1493.09	99.3316
1495.79	99.7367
1498.5	100.423
1501.2	102.078
1503.9	101.919
1506.6	99.1825
1509.3	97.3984
1512	96.974
1514.69	96.8366
1517.39	96.7197
1520.08	96.5416
1522.78	96.6659
1525.47	96.8326
1528.16	97.0906
1530.85	97.4532
1533.54	97.9136
1536.23	98.3912
1538.92	99.5693
1541.61	100.647
1544.29	101.465
1546.98	101.842
1549.66	101.859
1552.34	101.984
1555.02	100.879
1557.7	99.7749
1560.38	98.5632
1563.06	98.5772
1565.74	99.0134
1568.42	100.701
1571.09	102.133
1573.77	102.18
1576.44	101.743
1579.11	100.976
1581.78	100.35
1584.45	99.7161
1587.12	99.2733
1589.79	99.4315
1592.46	100.503
1595.12	101.536
1597.79	101.515
1600.45	100.829
1603.12	99.2443
1605.78	97.3153
1608.44	96.68
1611.1	96.2285
1613.76	96.4639
1616.42	98.2614
1619.08	99.1665
1621.73	99.5016
1624.39	98.957
1627.04	97.6035
1629.7	95.906
1632.35	94.8208
1635	95.142
1637.65	96.4038
1640.3	97.8136
1642.95	98.2168
1645.59	97.8397
1648.24	97.4709
1650.88	97.0425
1653.53	96.6085
1656.17	96.2609
1658.82	97.0967
1661.46	98.6437
1664.1	99.8812
1666.74	100.914
1669.37	101.33
1672.01	100.282
1674.65	98.9522
1677.28	97.8477
1679.92	96.9753
1682.55	96.3029
1685.18	98.1557
1687.82	99.3734
1690.44	100.083
1693.07	102.923
1695.7	98.961
1698.33	96.41
1700.96	95.6912
1703.58	96.4732
1706.21	96.9308
1708.83	96.9435
1711.45	97.0515
1714.07	97.109
1716.69	97.3416
1719.31	97.6216
1721.93	97.0008
1724.55	96.6883
1727.17	96.5943
1729.78	95.8256
1732.4	95.4541
1735.01	95.3975
1737.62	95.6179
1740.23	96.249
1742.85	97.0954
1745.46	97.79
1748.07	97.9823
1750.67	97.6577
1753.28	97.0667
1755.89	96.6649
1758.49	96.3912
1761.09	96.3568
1763.7	96.5338
1766.3	96.9907
1768.9	96.9795
1771.5	96.7812
1774.1	96.4861
1776.7	96.2082
1779.29	96.0614
1781.89	96.0011
1784.49	96.0527
1787.08	96.223
1789.67	96.5766
1792.27	97.1851
1794.86	98.286
1797.45	99.4633
1800.04	100.488
1802.62	100.88
1805.21	101.333
1807.8	101.051
1810.38	96.7788
1812.97	99.3571
1815.55	104.006
1818.14	96.0503
1820.72	95.4238
1823.3	94.4048
1825.88	95.0039
1828.46	96.1596
1831.03	97.8542
1833.61	99.1184
1836.19	97.665
1838.76	95.5275
1841.34	94.5803
1843.91	94.0191
1846.48	93.64
1849.05	93.1783
1851.62	92.7094
1854.19	92.6081
1856.76	92.7384
1859.33	93.7602
1861.89	95.4419
1864.46	97.1802
1867.02	98.5653
1869.59	99.1624
1872.15	98.8994
1874.71	97.9848
1877.27	96.6846
1879.83	94.9604
1882.39	91.7948
1884.95	95.8687
1887.51	96.9118
1890.06	98.011
1892.62	98.2707
1895.17	96.2365
1897.72	94.0582
1900.27	93.4328
1902.83	94.1006
1905.38	95.6626
1907.93	96.539
1910.47	96.8965
1913.02	96.23
1915.57	94.8927
1918.11	93.8572
1920.66	93.4439
1923.2	93.5329
1925.74	93.0799
1928.29	92.9341
1930.83	97.836
1933.37	96.086
1935.91	96.3679
1938.44	96.8544
1940.98	97.2532
1943.52	97.3987
1946.05	96.8471
1948.59	95.9693
1951.12	94.9886
1953.65	93.9321
1956.18	93.3243
1958.72	93.4999
1961.25	93.9163
1963.77	94.3785
1966.3	95.0602
1968.83	95.475
1971.35	95.7619
1973.88	96.7919
1976.4	97.9277
1978.93	98.6197
1981.45	98.7865
1983.97	98.1396
1986.49	97.1936
1989.01	96.8051
1991.53	95.76
1994.05	93.8894
1996.56	90.2359
1999.08	91.9882
2001.59	92.2124
2004.11	92.9451
2006.62	94.4839
2009.13	95.3861
2011.64	94.9219
2014.15	94.6239
2016.66	94.392
2019.17	94.2063
2021.68	94.0143
2024.18	93.8816
2026.69	93.6937
2029.19	93.6881
2031.7	94.0065
2034.2	94.8933
2036.7	96.5364
2039.2	97.9803
2041.7	97.5451
2044.2	96.6829
2046.7	96.8663
2049.2	96.429
2051.7	95.5157
2054.19	95.0695
2056.69	94.6235
2059.18	94.6345
2061.67	94.4149
2064.16	94.1378
2066.65	90.8572
2069.15	91.0553
2071.63	93.0603
2074.12	94.4599
2076.61	94.992
2079.1	95.2664
2081.58	95.3138
2084.07	96.8927
2086.55	97.1005
2089.03	97.0198
2091.51	96.7104
2094	96.2461
2096.47	95.4445
2098.95	94.5713
2101.43	93.9241
2103.91	93.7916
2106.39	94.4431
2108.86	96.6496
2111.34	98.2125
2113.81	96.2385
2116.28	92.4485
2118.76	94.7914
2121.23	94.5992
2123.7	94.2639
2126.17	93.8676
2128.63	93.6797
2131.1	93.8067
2133.57	93.8798
2136.03	93.7064
2138.5	93.373
2140.96	92.9361
2143.43	93.2599
2145.89	93.8089
2148.35	94.3735
2150.81	94.922
2153.27	95.2864
2155.73	95.5191
2158.18	95.4389
2160.64	95.2146
2163.1	94.9081
2165.55	94.5237
2168	94.4504
2170.46	95.4921
2172.91	95.6364
2175.36	89.4261
2177.81	85.9867
2180.26	85.7712
2182.71	89.6245
2185.16	93.8244
2187.6	95.7702
2190.05	96.9843
2192.5	97.7765
2194.94	98.2389
2197.38	98.2689
2199.83	97.8092
2202.27	96.8553
2204.71	95.8529
2207.15	94.9052
2209.59	95.6808
2212.02	96.7465
2214.46	98.084
2216.9	99.5847
2219.33	98.6827
2221.77	97.0948
2224.2	95.9278
2226.64	95.1173
2229.07	95.7052
2231.5	96.0846
2233.93	97.5213
2236.36	98.5572
2238.79	99.1934
2241.21	99.1252
2243.64	98.3894
2246.06	96.6104
2248.49	93.973
2250.91	92.9721
2253.34	92.619
2255.76	93.9406
2258.18	95.2374
2260.6	95.7406
2263.02	95.6108
2265.44	94.808
2267.86	93.3856
2270.27	94.4484
2272.69	93.3621
2275.11	92.7261
2277.52	93.0278
2279.93	93.6621
2282.35	94.2045
2284.76	95.6826
2287.17	97.0173
2289.58	98.142
2291.99	98.8222
2294.4	98.5009
2296.8	97.0631
2299.21	96.021
2301.62	95.4803
2304.02	95.6594
2306.43	95.9036
2308.83	95.3521
2311.23	94.7829
2313.63	94.1393
2316.03	93.7077
2318.43	91.1032
2320.83	92.3635
2323.23	97.9869
2325.63	101.232
2328.02	104.37
2330.42	106.447
2332.81	105.813
2335.21	99.8074
2337.6	95.2076
2339.99	95.3361
2342.38	96.6793
2344.77	96.1429
2347.16	95.5836
2349.55	95.5639
2351.94	95.811
2354.32	96.263
2356.71	96.7852
2359.1	96.3595
2361.48	95.235
2363.86	95.8565
2366.25	96.3382
2368.63	96.4607
2371.01	94.879
2373.39	92.8982
2375.77	91.1268
2378.15	89.9866
2380.52	89.2286
2382.9	90.5771
2385.28	92.788
2387.65	95.2584
2390.03	96.5241
2392.4	97.3032
2394.77	97.6508
2397.14	97.7466
2399.51	96.171
2401.88	94.0488
2404.25	93.0567
2406.62	92.5858
2408.99	92.5281
2411.35	92.5952
2413.72	94.738
2416.08	96.4896
2418.45	96.143
2420.81	95.8603
2423.17	95.8003
2425.53	95.9811
2427.89	95.3912
2430.25	94.6947
2432.61	94.3501
2434.97	94.7394
2437.33	95.1265
2439.69	95.5154
2442.04	94.1829
2444.4	92.4492
2446.75	90.7152
2449.1	89.7436
2451.45	89.6602
2453.81	91.2662
2456.16	91.6721
2458.51	92.4945
2460.85	93.8963
2463.2	95.7507
2465.55	97.783
2467.9	98.728
2470.24	99.2102
2472.59	98.8095
2474.93	97.3955
2477.27	95.9572
2479.62	94.6566
2481.96	93.6392
2484.3	92.8615
2486.64	92.4114
2488.98	92.3005
2491.31	92.511
2493.65	92.7587
2495.99	93.4435
2498.32	92.5596
2500.66	90.8385
2502.99	90.2862
2505.32	90.317
2507.66	90.6197
2509.99	91.1097
2512.32	91.6943
2514.65	92.4377
2516.98	93.2573
2519.31	94.0753
2521.63	95.1929
2523.96	95.4478
2526.28	95.0588
2528.61	94.6511
2530.93	94.6788
2533.26	95.3484
2535.58	96.5782
2537.9	97.1923
2540.22	96.2516
2542.54	94.0185
2544.86	90.7276
2547.18	88.5059
2549.5	91.0293
2551.81	91.9597
2554.13	89.5564
2556.44	88.0278
2558.76	86.6476
2561.07	89.4076
2563.38	92.8083
2565.69	92.9868
2568.01	92.2355
2570.32	90.524
2572.62	90.6623
2574.93	91.2162
2577.24	91.6329
2579.55	92.2841
2581.85	92.8157
2584.16	93.2535
2586.46	93.3575
2588.77	92.9571
2591.07	92.3093
2593.37	91.5249
2595.67	90.9113
2597.97	90.3369
2600.27	89.9894
2602.57	93.3848
2604.87	92.9248
2607.17	92.3314
2609.46	91.7873
2611.76	90.9385
2614.05	90.132
2616.35	89.8549
2618.64	89.8897
2620.93	90.2744
2623.22	91.5603
2625.51	93.4541
2627.8	94.8248
2630.09	94.4323
2632.38	93.9323
2634.67	94.2443
2636.96	93.7478
2639.24	91.6303
2641.53	88.3903
2643.81	87.5848
2646.09	87.4896
2648.38	87.6527
2650.66	88.174
2652.94	88.988
2655.22	89.9059
2657.5	89.6882
2659.78	90.79
2662.06	93.0384
2664.33	95.0609
2666.61	93.4832
2668.88	92.3477
2671.16	91.1769
2673.43	89.5286
2675.71	92.7849
2677.98	93.2618
2680.25	93.0816
2682.52	92.5025
2684.79	90.8396
2687.06	90.9108
2689.33	91.7751
2691.6	92.7815
2693.86	93.4428
2696.13	94.2028
2698.39	94.3425
2700.66	92.562
2702.92	90.8276
2705.18	89.5383
2707.45	88.8001
2709.71	88.7538
2711.97	89.3556
2714.23	90.5112
2716.49	90.9325
2718.74	91.5946
2721	89.7152
2723.26	89.7746
2725.51	88.8605
2727.77	88.0816
2730.02	87.3139
2732.28	86.5608
2734.53	86.2143
2736.78	86.0913
2739.03	87.7348
2741.28	89.3894
2743.53	90.0087
2745.78	90.5964
2748.03	90.5674
2750.27	89.8486
2752.52	89.0766
2754.77	88.4133
2757.01	88.2835
2759.26	89.3103
2761.5	90.5315
2763.74	91.3268
2765.98	91.7579
2768.22	92.7447
2770.46	92.3039
2772.7	90.9454
2774.94	89.5904
2777.18	88.4456
2779.42	87.6422
2781.65	87.1148
2783.89	86.9506
2786.12	86.9534
2788.36	87.4869
2790.59	88.4064
2792.82	89.381
2795.05	90.4897
2797.28	91.3452
2799.51	91.8578
2801.74	90.8907
2803.97	90.0007
2806.2	89.1296
2808.43	89.0149
2810.65	89.8349
2812.88	90.1085
2815.1	89.1811
2817.33	88.5984
2819.55	89.9502
2821.77	91.1151
2823.99	90.5984
2826.21	90.2774
2828.43	90.3386
2830.65	89.4729
2832.87	88.9941
2835.09	88.551
2837.3	89.0624
2839.52	89.9069
2841.74	90.9246
2843.95	91.2971
2846.17	91.7738
2848.38	91.1592
2850.59	90.6583
2852.8	90.1318
2855.01	89.561
2857.22	89.2117
2859.43	89.9445
2861.64	91.2671
2863.85	92.0674
2866.06	92.1578
2868.26	91.1669
2870.47	90.0984
2872.67	88.671
2874.88	87.8591
2877.08	87.3737
2879.28	87.0813
2881.48	86.8137
2883.68	87.1251
2885.89	87.6291
2888.08	87.483
2890.28	87.3064
2892.48	87.0331
2894.68	86.8506
2896.87	86.7587
2899.07	86.7688
2901.26	86.9464
2903.46	87.44
2905.65	87.8576
2907.85	87.9639
2910.04	87.7705
2912.23	87.4867
2914.42	87.1158
2916.61	86.8406
2918.8	86.651
2920.98	85.6728
2923.17	84.491
2925.36	84.3232
2927.54	84.3507
2929.73	84.8192
2931.91	85.7923
2934.1	87.0492
2936.28	88.4204
2938.46	89.4719
2940.64	90.3532
2942.82	90.8938
2945	90.9493
2947.18	90.2127
2949.36	90.263
2951.54	88.2633
2953.72	86.5925
2955.89	85.4352
2958.07	85.2204
2960.24	85.595
2962.42	86.3645
2964.59	87.1412
2966.76	87.6427
2968.93	87.6288
2971.1	87.0824
2973.27	86.9029
2975.44	86.8154
2977.61	86.7987
2979.78	86.8004
2981.95	86.817
2984.11	86.9004
2986.28	87.3697
2988.45	88.6408
2990.61	89.6269
2992.77	90.351
2994.94	90.8561
2997.1	89.6286
2999.26	88.7175
3001.42	88.4417
3003.58	88.2534
3005.74	88.6191
3007.9	88.1908
3010.06	87.3429
3012.21	86.7963
3014.37	86.3797
3016.52	86.1132
3018.68	85.7373
3020.83	85.6225
3022.99	85.7184
3025.14	85.7634
3027.29	85.7756
3029.44	85.539
3031.59	84.7866
3033.74	84.1544
3035.89	84.2307
3038.04	84.476
3040.19	85.146
3042.33	85.9284
3044.48	86.6869
3046.62	87.5351
3048.77	88.1863
3050.91	87.6462
3053.05	86.5684
3055.2	85.593
3057.34	85.5264
3059.48	85.6062
3061.62	86.4177
3063.76	86.9054
3065.9	85.1393
3068.03	84.9531
3070.17	85.8098
3072.31	88.4821
3074.44	88.3691
3076.58	86.6963
3078.71	85.5864
3080.85	84.5045
3082.98	84.1756
3085.11	84.3192
3087.24	84.7609
3089.37	85.3356
3091.5	85.4878
3093.63	85.8173
3095.76	86.2433
3097.89	86.7806
3100.02	87.272
3102.14	87.708
3104.27	88.0377
3106.39	88.1928
3108.52	88.2937
3110.64	87.9975
3112.76	87.3932
3114.89	86.8264
3117.01	89.1889
3119.13	88.7772
3121.25	87.6418
3123.37	87.8383
3125.49	86.5646
3127.6	84.9083
3129.72	83.7217
3131.84	83.1895
3133.95	83.6528
3136.07	84.9922
3138.18	85.2053
3140.29	85.4589
3142.41	85.973
3144.52	85.5674
3146.63	85.3312
3148.74	84.9155
3150.85	84.5454
3152.96	84.4055
3155.07	84.4849
3157.18	84.7995
3159.28	85.3348
3161.39	86.0435
3163.5	86.9419
3165.6	88.5469
3167.71	87.829
3169.81	87.7829
3171.91	88.1043
3174.01	89.0124
3176.12	90.2105
3178.22	89.9443
3180.32	88.7342
3182.42	86.1323
3184.51	86.0855
3186.61	86.2759
3188.71	86.6581
3190.8	87.1372
3192.9	88.0403
3195	89.0176
3197.09	90.0519
3199.18	91.0239
3201.28	91.0498
3203.37	90.7785
3205.46	90.2306
3207.55	90.0417
3209.64	90.928
3211.73	86.4876
3213.82	86.8067
3215.91	87.3652
3218	87.7761
3220.08	88.0331
3222.17	87.551
3224.25	87.1163
3226.34	86.7661
3228.42	86.5956
3230.5	86.9151
3232.59	86.5603
3234.67	86.9973
3236.75	87.8614
3238.83	89.1796
3240.91	90.1248
3242.99	88.6961
3245.07	86.9965
3247.14	84.9915
3249.22	83.0643
3251.3	81.538
3253.37	80.4192
3255.45	80.5129
3257.52	80.757
3259.6	81.4131
3261.67	82.184
3263.74	82.7895
3265.81	83.102
3267.88	83.7901
3269.95	84.5171
3272.02	83.6534
3274.09	81.9763
3276.16	80.6586
3278.22	79.6451
3280.29	78.9626
3282.36	78.3722
3284.42	78.0407
3286.49	78.0053
3288.55	78.4957
3290.61	79.2113
3292.68	79.636
3294.74	79.6633
3296.8	78.7374
3298.86	76.7075
3300.92	76.0922
3302.98	75.961
3305.04	78.1807
3307.09	79.0516
3309.15	79.1225
3311.21	79.0431
3313.26	79.1379
3315.32	79.3857
3317.37	79.509
3319.42	79.0082
3321.48	78.7237
3323.53	78.712
3325.58	77.9792
3327.63	77.7451
3329.68	77.556
3331.73	78.0898
3333.78	79.4263
3335.83	79.8149
3337.87	79.7434
3339.92	77.9753
3341.97	76.5957
3344.01	76.0903
3346.06	76.4933
3348.1	77.172
3350.14	75.5197
3352.19	75.4077
3354.23	76.3475
3356.27	77.3097
3358.31	78.5113
3360.35	78.3388
3362.39	78.193
3364.43	77.0175
3366.47	76.2653
3368.5	75.2927
3370.54	75.2288
3372.58	76.8987
3374.61	77.3537
3376.65	77.7051
3378.68	78.7156
3380.71	79.938
3382.74	81.1268
3384.78	81.5484
3386.81	81.6782
3388.84	80.8129
3390.87	80.6599
3392.9	80.6475
3394.93	80.8068
3396.95	79.27
3398.98	78.4194
3401.01	80.3376
3403.03	80.5804
3405.06	81.0516
3407.08	80.3854
3409.1	79.765
3411.13	78.8411
3413.15	78.221
3415.17	78.2531
3417.19	80.6224
3419.21	82.4981
3421.23	82.3449
3423.25	81.7036
3425.27	80.8699
3427.29	79.6957
3429.31	78.1077
3431.32	76.0491
3433.34	74.3601
3435.35	75.0543
3437.37	76.7743
3439.38	78.0396
3441.39	79.8261
3443.41	78.8237
3445.42	77.2921
3447.43	74.7479
3449.44	71.7979
3451.45	69.8441
3453.46	71.6292
3455.47	73.2113
3457.47	75.0752
3459.48	75.28
3461.49	75.7995
3463.49	75.1242
3465.5	73.6955
3467.5	70.0322
3469.51	67.945
3471.51	68.7834
3473.51	70.9318
3475.51	72.125
3477.52	72.4346
3479.52	72.8865
3481.52	73.3302
3483.52	73.754
3485.51	73.7351
3487.51	73.0657
3489.51	73.1306
3491.51	73.8016
3493.5	73.8586
3495.5	73.7747
3497.49	73.7991
3499.49	73.9689
3501.48	74.003
3503.47	73.4852
3505.46	72.4546
3507.45	70.8747
3509.45	70.0114
3511.44	70.0339
3513.43	69.797
3515.41	69.8591
3517.4	70.0203
3519.39	70.9112
3521.38	72.0943
3523.36	73.3072
3525.35	74.3163
3527.33	74.8542
3529.32	74.3695
3531.3	73.7622
3533.28	74.0704
3535.27	73.5967
3537.25	71.573
3539.23	70.4351
3541.21	71.4253
3543.19	72.2136
3545.17	72.0754
3547.15	72.0231
3549.12	71.693
3551.1	71.0677
3553.08	71.5859
3555.05	71.5454
3557.03	70.5542
3559	71.0405
3560.98	71.1377
3562.95	71.6729
3564.92	72.8708
3566.89	74.6791
3568.87	76.3949
3570.84	78.581
3572.81	81.5993
3574.78	84.8445
3576.74	86.129
3578.71	87.9301
3580.68	89.7056
3582.65	90.9162
3584.61	92.305
3586.58	93.8531
3588.54	94.3167
3590.51	93.5331
3592.47	90.9972
3594.43	88.5894
3596.4	81.1919
3598.36	82.0604
3600.32	80.0737
3602.28	79.3129
3604.24	79.0004
3606.2	72.5677
3608.16	69.2418
3610.11	66.6785
3612.07	65.9152
3614.03	65.8504
3615.98	66.3058
3617.94	66.8784
3619.89	67.0632
3621.85	66.7401
3623.8	65.9973
3625.75	65.1847
3627.71	64.1193
3629.66	64.3347
3631.61	66.4209
3633.56	68.4834
3635.51	67.2204
3637.46	65.8183
3639.41	64.413
3641.35	62.87
3643.3	61.1806
3645.25	60.4287
3647.19	60.7497
3649.14	61.6221
3651.08	62.0583
3653.03	62.4351
3654.97	63.1798
3656.91	64.1476
3658.85	64.761
3660.8	65.1776
3662.74	65.4575
3664.68	64.2125
3666.62	64.6217
3668.56	64.2556
3670.49	64.0775
3672.43	64.0697
3674.37	64.9369
3676.3	65.4764
3678.24	65.4939
3680.18	65.6161
3682.11	65.5095
3684.04	65.3953
3685.98	64.7763
3687.91	65.6594
3689.84	66.0262
3691.77	65.8592
3693.7	64.0294
3695.63	63.9915
3697.56	63.7109
3699.49	64.3963
3701.42	64.2319
3703.35	64.305
3705.28	64.4788
3707.2	64.9756
3709.13	65.9649
3711.05	66.3169
3712.98	61.9805
3714.9	62.1813
3716.82	63.5877
3718.75	64.599
3720.67	63.9575
3722.59	63.2294
3724.51	62.4407
3726.43	61.5151
3728.35	60.5589
3730.27	60.0086
3732.19	59.9438
3734.11	60.5773
3736.02	61.3937
3737.94	62.8132
3739.86	63.3374
3741.77	63.3172
3743.69	63.2291
3745.6	63.0675
3747.51	62.6563
3749.43	62.4871
3751.34	62.2319
3753.25	63.2508
3755.16	63.0471
3757.07	62.419
3758.98	61.438
3760.89	60.492
3762.8	59.7732
3764.71	59.2901
3766.61	59.0722
3768.52	59.1086
3770.43	59.4124
3772.33	59.9495
3774.24	60.792
3776.14	61.747
3778.05	61.1395
3779.95	61.0091
3781.85	62.4646
3783.75	62.7543
3785.65	61.8277
3787.55	60.5704
3789.45	59.7446
3791.35	59.1551
3793.25	59.5514
3795.15	60.2586
3797.05	60.9868
3798.95	61.6186
3800.84	61.7578
3802.74	61.9737
3804.63	61.9766
3806.53	62.0527
3808.42	62.3884
3810.31	62.8008
3812.21	63.4009
3814.1	63.2052
3815.99	62.7657
3817.88	62.1334
3819.77	60.4517
3821.66	60.1794
3823.55	60.603
3825.44	61.1937
3827.33	61.6365
3829.21	61.0213
3831.1	59.2031
3832.99	56.6586
3834.87	59.6535
3836.76	62.2539
3838.64	59.479
3840.52	58.4144
3842.41	58.3804
3844.29	59.0865
3846.17	59.2554
3848.05	59.0956
3849.93	59.4996
3851.81	59.8255
3853.69	59.7851
3855.57	59.2021
3857.45	58.5692
3859.33	58.8127
3861.21	59.3173
3863.08	58.8267
3864.96	58.0659
3866.83	58.2086
3868.71	58.7546
3870.58	59.8763
3872.46	59.4447
3874.33	58.8179
3876.2	58.4671
3878.07	58.2167
3879.94	57.9554
3881.81	57.6519
3883.68	57.3361
3885.55	56.9651
3887.42	56.5642
3889.29	56.2158
3891.16	55.9417
3893.02	55.7219
3894.89	56.171
3896.76	56.8968
3898.62	58.5983
3900.49	58.3457
3902.35	57.57
3904.21	56.3149
3906.08	56.8959
3907.94	57.3879
3909.8	58.1724
3911.66	57.3311
3913.52	57.1583
3915.38	57.7432
3917.24	58.8925
3919.1	58.2377
3920.96	57.3487
3922.82	56.3711
3924.67	55.3893
3926.53	54.3558
3928.38	53.5638
3930.24	53.0813
3932.09	53.0085
3933.95	53.3079
3935.8	53.8841
3937.65	54.3328
3939.51	54.493
3941.36	54.9529
3943.21	55.5313
3945.06	56.3096
3946.91	57.1393
3948.76	57.5758
3950.61	57.4841
3952.46	57.7684
3954.3	57.9971
3956.15	58.012
3958	58.3839
3959.84	59.2615
3961.69	59.5301
3963.53	58.7882
3965.38	58.208
3967.22	57.0794
3969.06	56.3079
3970.91	55.9287
3972.75	56.0087
3974.59	55.8842
3976.43	55.6431
3978.27	55.5336
3980.11	55.665
3981.95	56.0746
3983.78	56.6814
3985.62	55.9252
3987.46	55.1818
3989.3	55.056
3991.13	55.3148
3992.97	55.8661
3994.8	55.9407
3996.64	56.6229
3998.47	54.2727
