#Acq. time (s)=	15
#Accumulations=	2
#Range (cm-¹)=	50...5000
#Windows=	2
#Auto scanning=	Off
#Autofocus=	Off
#Macrospot=	Off
#AutoExposure=	Off
#Spike filter=	Multiple accum.
#Delay time (s)=	0
#Binning=	1
#Readout mode=	Signal
#DeNoise=	Lite
#ICS correction=	Off
#Dark correction=	Off
#Inst. Process=	Off
#Detector temperature (°C)=	-60.09
#Instrument=	LabRAM HR Evol
#Detector=	SIN-EM FIVIS
#Objective=	x50_VIS_LWD
#Grating=	150 (500nm)
#ND Filter=	100%
#Laser=	633nm_Edge
#Hole=	30.0125
#Temperature=	0
#Range=	Visible
#StageXY=	75x50mm Scan+
#StageZ=	Z motor
#X (µm)=	7344.5
#Y (µm)=	4274.6
#Z (µm)=	-23.7
#Full time(mm:ss)=	1:37
#Project=	Buranga
#Sample=	BU18FA20_C
#Site=	C_Bertoss1
#Title=	20-C_brt1_FI01_150
#Remark=	
#Date=	30.07.2019 14:13
#Acquired=	30.07.2019 14:13:00
53.2466	2609
56.5266	3335
59.8037	3600.33
63.081	3226.25
66.3553	2828.03
69.6298	2467.76
72.903	2149.76
76.1733	1863.64
79.4437	1620.6
82.7113	1408.27
85.979	1226
89.2438	1071.12
92.5088	938.973
95.771	827.466
99.0332	741.476
102.293	675.753
105.552	623.691
108.809	579.164
112.066	529.241
115.32	486.633
118.574	445.192
121.825	410.927
125.077	380.774
128.325	363.574
131.574	349.139
134.82	336.262
138.066	324.936
141.309	313.718
144.551	304.088
147.793	295.271
151.033	287.894
154.272	280.281
157.509	272.004
160.745	286.427
163.979	283.935
167.212	280.526
170.444	272.708
173.674	260.675
176.904	254.291
180.131	248.598
183.357	245.569
186.583	245.472
189.806	247.961
193.03	251.161
196.25	254.079
199.469	256.921
202.689	259.88
205.905	255.698
209.121	252.609
212.336	250.961
215.549	250.659
218.76	251.623
221.971	253.854
225.18	258.052
228.387	263.468
231.595	270.311
234.799	278.125
238.002	288.85
241.206	291.907
244.407	290.363
247.606	284.063
250.806	271.376
254.002	266.995
257.198	265.063
260.392	269.742
263.586	275.368
266.778	280.889
269.968	285.938
273.157	291.445
276.346	294.053
279.532	293.316
282.717	297.561
285.9	301.544
289.084	304.764
292.265	304.341
295.445	304.822
298.623	301.303
301.802	297.062
304.978	293.341
308.152	289.028
311.325	287.682
314.497	288.754
317.669	290.984
320.839	292.239
324.007	302.023
327.173	321.096
330.339	328.692
333.503	332.848
336.667	328.713
339.829	321.183
342.989	311.533
346.148	306.962
349.306	305.193
352.462	302.853
355.617	303.883
358.772	307.639
361.925	308.234
365.076	307.355
368.226	306.118
371.375	303.982
374.522	300.892
377.668	296.763
380.813	299.234
383.956	302.08
387.099	302.873
390.24	300.721
393.381	298.85
396.519	299.739
399.656	306.485
402.792	312.684
405.927	318.561
409.06	323.046
412.192	323.263
415.323	319.915
418.452	314.795
421.58	311.227
424.707	309.385
427.833	310.108
430.957	314.029
434.08	322.361
437.202	329.665
440.323	334.466
443.442	336.538
446.56	335.314
449.677	335.077
452.792	340.246
455.907	346.602
459.02	350.302
462.131	350.783
465.242	348.455
468.351	343.099
471.459	334.862
474.566	328.51
477.671	324.018
480.774	320.716
483.877	320.11
486.978	321.313
490.079	322.401
493.178	323.953
496.276	325.537
499.372	327.322
502.468	329.66
505.562	333
508.655	336.097
511.745	336.48
514.835	337.045
517.924	334.743
521.012	330.387
524.099	326.814
527.184	323.389
530.268	323.026
533.35	322.61
536.431	322.39
539.512	322.086
542.591	321.788
545.669	321.556
548.746	321.423
551.82	321.371
554.894	321.594
557.967	321.675
561.038	322.642
564.109	324.954
567.177	327.001
570.245	326.094
573.312	325.998
576.377	324.435
579.44	323.656
582.503	323.84
585.565	324.879
588.625	326.814
591.685	329.567
594.742	336.211
597.799	343.226
600.854	351.086
603.907	357.582
606.96	360.365
610.012	361.4
613.063	360.985
616.111	359.329
619.16	356.657
622.207	353.863
625.251	351.347
628.296	348.604
631.339	346.858
634.38	345.88
637.421	345.377
640.461	345.343
643.498	345.509
646.536	345.728
649.572	345.792
652.605	345.928
655.639	346.357
658.671	346.77
661.701	346.889
664.731	346.647
667.759	345.84
670.786	344.382
673.813	342.471
676.837	340.374
679.861	337.457
682.882	337.709
685.904	338.06
688.924	336.644
691.942	334.902
694.96	332.989
697.975	330.579
700.991	328.181
704.004	325.873
707.017	323.859
710.029	322.137
713.038	320.919
716.048	319.9
719.055	318.981
722.062	318.128
725.066	317.146
728.071	316.036
731.073	314.907
734.076	313.734
737.075	312.502
740.075	311.461
743.073	311.157
746.07	311.998
749.065	310.874
752.06	305.605
755.053	308.509
758.046	322.603
761.036	323.365
764.025	320.344
767.014	316.346
770.001	313.001
772.988	310.719
775.972	309.004
778.957	308.107
781.939	308.193
784.919	309.924
787.9	312.978
790.879	318.361
793.857	318.559
796.833	317.176
799.808	316.061
802.783	315.843
805.756	316.298
808.727	316.667
811.699	319.382
814.668	322.559
817.637	324.614
820.603	325.566
823.569	325.199
826.534	323.867
829.497	321.422
832.459	318.134
835.422	314.039
838.381	308.248
841.339	304.511
844.298	304.552
847.254	305.747
850.209	307.082
853.163	308.225
856.117	309.625
859.068	310.61
862.018	310.921
864.967	310.467
867.917	309.689
870.863	308.652
873.809	307.739
876.755	306.923
879.698	306.139
882.64	305.921
885.581	305.996
888.521	306.247
891.461	306.008
894.398	305.625
897.334	305.375
900.269	305.213
903.203	305.779
906.138	305.91
909.069	305.029
912	303.861
914.929	301.836
917.857	297.914
920.786	293.347
923.712	290.332
926.636	290.2
929.56	294.355
932.482	299.21
935.404	302.961
938.324	306.246
941.244	309.631
944.162	310.308
947.079	310.306
949.995	310.333
952.909	310.464
955.822	310.917
958.734	312.189
961.645	313.665
964.555	315.614
967.464	318.058
970.372	320.892
973.279	323.232
976.185	327.83
979.089	334.203
981.992	341.976
984.894	351.863
987.794	377.912
990.694	385.034
993.593	383.429
996.49	377.641
999.386	366.384
1002.28	353.499
1005.18	345.418
1008.07	340.399
1010.96	338.489
1013.85	339.008
1016.74	341.906
1019.63	346.759
1022.52	349.27
1025.4	350.666
1028.29	350.265
1031.17	348.064
1034.05	343.781
1036.93	335.039
1039.81	327.134
1042.69	319.401
1045.57	309.582
1048.45	299.665
1051.32	290.666
1054.2	286.364
1057.07	281.817
1059.94	282.035
1062.82	282.951
1065.69	286.664
1068.56	288.467
1071.42	287.59
1074.29	285.08
1077.16	282.25
1080.02	280.049
1082.88	279.205
1085.75	279.668
1088.61	281.695
1091.47	285.49
1094.33	290.095
1097.18	295.161
1100.04	299.299
1102.9	302.661
1105.75	304.958
1108.6	303.997
1111.46	294.298
1114.31	286.557
1117.16	280.036
1120.01	274.916
1122.85	271.988
1125.7	270.974
1128.55	271.173
1131.39	272.158
1134.23	272.753
1137.08	274.049
1139.92	275.317
1142.76	276.591
1145.6	277.613
1148.43	278.421
1151.27	278.4
1154.11	277.904
1156.94	276.678
1159.78	275.033
1162.61	272.983
1165.44	270.447
1168.27	267.853
1171.1	265.38
1173.92	263.361
1176.75	261.231
1179.58	260.284
1182.4	259.437
1185.23	258.852
1188.05	258.426
1190.87	257.999
1193.69	257.528
1196.51	257.068
1199.33	257.128
1202.14	257.462
1204.96	256.398
1207.77	255.631
1210.59	251.904
1213.4	249.82
1216.21	248.324
1219.02	247.224
1221.83	246.57
1224.64	246.904
1227.45	247.102
1230.25	246.849
1233.06	244.959
1235.86	242.306
1238.66	238.211
1241.47	234.687
1244.27	234.428
1247.07	237.475
1249.87	241.561
1252.66	246.142
1255.46	250.466
1258.25	254.808
1261.05	258.698
1263.84	262.853
1266.63	262.882
1269.42	267.878
1272.21	266.97
1275	274.699
1277.79	303.017
1280.58	475
1283.36	739
1286.15	459
1288.93	285
1291.71	253
1294.49	253
1297.27	239
1300.05	253
1302.83	267
1305.61	221.507
1308.38	225.296
1311.16	229.517
1313.93	234.306
1316.7	239.199
1319.47	244.19
1322.24	243.834
1325.01	238.578
1327.78	235.607
1330.55	231.127
1333.32	233.08
1336.08	234.756
1338.84	237.413
1341.61	236.743
1344.37	234.635
1347.13	232.634
1349.89	230.98
1352.65	230.314
1355.41	230.382
1358.16	231.237
1360.92	233.039
1363.67	236.786
1366.43	240.746
1369.18	253.305
1371.93	241.317
1374.68	240.913
1377.43	236.542
1380.18	255.062
1382.93	347
1385.67	845
1388.42	875
1391.16	381
1393.9	265
1396.65	229.27
1399.39	234.135
1402.13	248.371
1404.87	262.971
1407.6	267.088
1410.34	257.624
1413.07	247.427
1415.81	233.744
1418.54	222.591
1421.28	215.507
1424.01	211.041
1426.74	208.614
1429.47	208.226
1432.19	210.025
1434.92	212.253
1437.65	214.145
1440.37	214.347
1443.1	213.413
1445.82	211.275
1448.54	208.19
1451.26	204.75
1453.98	202.681
1456.7	200.363
1459.42	200.056
1462.14	203.026
1464.85	205.168
1467.57	204.313
1470.28	203.12
1472.99	202.191
1475.7	201.56
1478.42	201.164
1481.12	201.656
1483.83	204.008
1486.54	206.356
1489.25	208.307
1491.95	209.705
1494.66	210.337
1497.36	210.497
1500.06	209.98
1502.76	209.02
1505.46	207.47
1508.16	205.162
1510.86	202.325
1513.56	199.148
1516.26	196.696
1518.95	194.105
1521.64	192.678
1524.34	191.784
1527.03	193.609
1529.72	195.114
1532.41	194.067
1535.1	191.64
1537.79	190.442
1540.47	190.132
1543.16	190.886
1545.85	190.287
1548.53	194.163
1551.21	199.207
1553.89	202.97
1556.57	203.816
1559.25	199.565
1561.93	194.133
1564.61	189.936
1567.29	187.207
1569.96	185.874
1572.64	185.736
1575.31	188.37
1577.99	191.102
1580.66	192.367
1583.33	191.122
1586	190.43
1588.67	189.548
1591.33	188.734
1594	186.755
1596.67	186.076
1599.33	186.559
1601.99	187.598
1604.66	188.539
1607.32	190.047
1609.98	189.784
1612.64	188.74
1615.3	187.307
1617.96	185.581
1620.61	183.922
1623.27	182.268
1625.92	181.01
1628.58	179.903
1631.23	178.385
1633.88	177.223
1636.53	176.81
1639.18	176.743
1641.83	178.756
1644.48	182.817
1647.12	184.743
1649.77	184.778
1652.41	180.905
1655.06	177.281
1657.7	174.586
1660.34	172.547
1662.98	172.907
1665.62	175.419
1668.26	179.273
1670.9	183.297
1673.53	188.634
1676.17	192.522
1678.81	194.357
1681.44	194.998
1684.07	195.346
1686.7	192.398
1689.33	187.892
1691.96	183.989
1694.59	180.778
1697.22	178.29
1699.85	176.276
1702.47	175.01
1705.1	174.723
1707.72	175.265
1710.35	176.294
1712.97	178.564
1715.59	179.482
1718.21	178.737
1720.83	177.28
1723.45	176.512
1726.06	173.797
1728.68	174.553
1731.29	176.643
1733.91	179.196
1736.52	182.765
1739.13	184.571
1741.74	184.899
1744.35	183.668
1746.96	180.144
1749.57	175.339
1752.18	170.849
1754.78	171.516
1757.39	172.413
1759.99	173.196
1762.6	173.703
1765.2	173.731
1767.8	173.487
1770.4	172.672
1773	171.788
1775.6	171.264
1778.2	170.724
1780.79	170.128
1783.39	172.111
1785.98	171.821
1788.58	170.305
1791.17	168.742
1793.76	167.35
1796.35	166.242
1798.94	165.584
1801.53	165.221
1804.12	165.249
1806.71	165.709
1809.29	166.782
1811.88	166.899
1814.46	166.777
1817.04	166.989
1819.62	164.963
1822.21	163.95
1824.79	165.4
1827.37	167.259
1829.94	168.649
1832.52	169.607
1835.1	170.128
1837.67	170.278
1840.25	169.927
1842.82	169.257
1845.39	168.274
1847.96	167.11
1850.53	165.859
1853.1	164.455
1855.67	162.798
1858.24	160.839
1860.81	158.346
1863.37	157.574
1865.94	157.648
1868.5	158.53
1871.06	159.651
1873.63	160.584
1876.19	161.582
1878.75	162.561
1881.31	163.667
1883.86	164.809
1886.42	163.455
1888.98	161.295
1891.53	159.135
1894.09	157.615
1896.64	156.419
1899.19	153.881
1901.75	154.719
1904.3	156.245
1906.85	157.339
1909.39	158.079
1911.94	158.321
1914.49	158.411
1917.04	157.437
1919.58	156.486
1922.12	155.659
1924.67	154.897
1927.21	154.389
1929.75	153.946
1932.29	153.495
1934.83	152.913
1937.37	152.502
1939.91	152.42
1942.44	152.721
1944.98	153.095
1947.51	154.097
1950.05	154.411
1952.58	154.88
1955.11	156.226
1957.64	155.755
1960.17	154.081
1962.7	151.925
1965.23	147.722
1967.76	148.066
1970.28	149.996
1972.81	152.045
1975.33	154.192
1977.86	156.571
1980.38	158.427
1982.9	158.269
1985.42	156.023
1987.94	153.653
1990.46	151.717
1992.98	150.916
1995.49	150.51
1998.01	151.283
2000.53	152.91
2003.04	155.499
2005.55	157.621
2008.06	159.046
2010.58	159.804
2013.09	159.864
2015.6	159.29
2018.1	158
2020.61	155.682
2023.12	153.252
2025.63	149.601
2028.13	148.003
2030.63	148.446
2033.14	148.696
2035.64	149.17
2038.14	149.7
2040.64	149.893
2043.14	149.985
2045.64	150.655
2048.14	150.82
2050.63	152.481
2053.13	154.755
2055.63	156.957
2058.12	156.243
2060.61	154.226
2063.1	151.069
2065.6	147.787
2068.09	143.381
2070.57	140.444
2073.06	140.032
2075.55	141.771
2078.04	145.099
2080.52	148.179
2083.01	149.717
2085.49	150.681
2087.98	150.694
2090.46	150.225
2092.94	149.285
2095.42	147.861
2097.9	146.287
2100.38	144.574
2102.86	143.109
2105.33	141.803
2107.81	140.868
2110.28	140.338
2112.76	140.221
2115.23	140.251
2117.7	140.24
2120.17	140.236
2122.64	140.185
2125.11	140.101
2127.58	139.973
2130.05	139.775
2132.52	139.523
2134.98	139.216
2137.45	138.825
2139.91	138.344
2142.38	137.591
2144.84	137.221
2147.3	138.065
2149.76	139.612
2152.22	140.022
2154.68	139.304
2157.14	138.163
2159.59	136.934
2162.05	135.972
2164.5	135.617
2166.96	136.08
2169.41	136.904
2171.86	137.642
2174.32	138.249
2176.77	138.69
2179.22	138.916
2181.67	138.979
2184.11	138.896
2186.56	138.46
2189.01	137.845
2191.45	137.072
2193.9	136.268
2196.34	135.43
2198.78	134.656
2201.23	134.071
2203.67	133.772
2206.11	133.753
2208.55	133.861
2210.99	134.518
2213.42	135.669
2215.86	137.966
2218.29	139.167
2220.73	138.758
2223.16	137.405
2225.6	135.716
2228.03	133.797
2230.46	132.737
2232.89	132.123
2235.32	131.892
2237.75	131.899
2240.18	131.919
2242.6	132.12
2245.03	132.648
2247.45	133.224
2249.88	133.697
2252.3	134.119
2254.73	134.764
2257.15	133.961
2259.57	132.525
2261.99	131.054
2264.41	129.661
2266.82	129.235
2269.24	130.113
2271.66	131.042
2274.07	131.784
2276.49	132.193
2278.9	132.354
2281.32	131.596
2283.73	130.249
2286.14	128.813
2288.55	126.645
2290.96	124.555
2293.37	126.017
2295.78	128.999
2298.18	133.358
2300.59	136.577
2302.99	133.317
2305.4	131.786
2307.8	129.948
2310.2	128.859
2312.61	128.356
2315.01	128.628
2317.41	127.129
2319.81	131.669
2322.2	135.481
2324.6	138.65
2327	140.919
2329.39	142.157
2331.79	119.064
2334.18	128.797
2336.58	122.076
2338.97	119.501
2341.36	122.012
2343.75	125.361
2346.14	127.952
2348.53	129.643
2350.92	130.564
2353.3	130.882
2355.69	130.457
2358.07	129.488
2360.46	127.925
2362.84	126.154
2365.23	126.175
2367.61	128.322
2369.99	128.878
2372.37	128.579
2374.75	127.468
2377.13	125.56
2379.51	123.533
2381.88	121.901
2384.26	121.682
2386.63	122.108
2389.01	122.434
2391.38	121.198
2393.75	119.846
2396.13	118.786
2398.5	118.274
2400.87	118.125
2403.24	118.81
2405.61	119.758
2407.97	120.669
2410.34	121.589
2412.71	121.912
2415.07	122
2417.43	121.944
2419.8	122.251
2422.16	122.539
2424.52	122.673
2426.88	122.894
2429.24	122.629
2431.6	121.617
2433.96	120.6
2436.32	119.062
2438.68	117.529
2441.03	116.141
2443.39	116.208
2445.74	116.963
2448.09	118.217
2450.44	120.231
2452.8	122.385
2455.15	124.15
2457.5	125.29
2459.85	125.639
2462.19	125.059
2464.54	123.619
2466.89	121.286
2469.24	118.061
2471.58	113.777
2473.92	112.015
2476.27	115.766
2478.61	115.985
2480.95	115.168
2483.29	113.596
2485.63	112.955
2487.97	111.902
2490.31	113.497
2492.65	115.881
2494.98	114.736
2497.32	115.552
2499.65	116.897
2501.99	118.48
2504.32	119.643
2506.65	120.633
2508.99	121.659
2511.32	122.912
2513.65	106.632
2515.98	106.6
2518.3	107.73
2520.63	109.21
2522.96	110.936
2525.29	111.963
2527.61	113.11
2529.93	113.677
2532.26	117.546
2534.58	121.902
2536.9	121.731
2539.22	114.615
2541.54	108.847
2543.86	106.68
2546.18	107.776
2548.5	107.486
2550.82	107.367
2553.13	107.308
2555.45	107.355
2557.76	107.409
2560.08	107.983
2562.39	108.571
2564.7	109.222
2567.01	109.876
2569.32	110.354
2571.63	110.224
2573.94	110.272
2576.25	111.776
2578.55	113.151
2580.86	112.308
2583.17	110.287
2585.47	106.916
2587.78	104.803
2590.08	104.312
2592.38	105.669
2594.68	109.257
2596.98	111.162
2599.28	114.071
2601.58	115.724
2603.88	115.055
2606.18	112.362
2608.47	107.133
2610.77	103.674
2613.06	104.486
2615.36	106.658
2617.65	108.141
2619.94	110.099
2622.24	111.266
2624.53	110.307
2626.82	107.882
2629.11	106.154
2631.39	104.847
2633.68	105.156
2635.97	106.159
2638.26	107.598
2640.54	108.811
2642.83	109.556
2645.11	109.973
2647.39	109.209
2649.67	109.745
2651.96	109.045
2654.24	108.062
2656.52	106.737
2658.8	105.121
2661.07	103.674
2663.35	102.406
2665.63	102.652
2667.9	103.696
2670.18	104.778
2672.45	105.717
2674.73	106.488
2677	107.042
2679.27	107.359
2681.54	107.557
2683.81	107.628
2686.08	107.415
2688.35	106.561
2690.62	104.66
2692.88	102.078
2695.15	98.8064
2697.41	95.8188
2699.68	94.938
2701.94	95.5261
2704.21	96.013
2706.47	96.7797
2708.73	97.4874
2710.99	98.7793
2713.25	100.335
2715.51	101.721
2717.77	102.714
2720.03	103.244
2722.28	102.909
2724.54	101.898
2726.79	99.5556
2729.05	97.3048
2731.3	95.8171
2733.55	95.9377
2735.81	97.8378
2738.06	100.676
2740.31	103.957
2742.56	105.55
2744.81	102.188
2747.06	100.04
2749.3	97.9193
2751.55	96.4257
2753.8	95.0581
2756.04	94.3478
2758.28	95.3077
2760.53	97.4932
2762.77	97.3932
2765.01	96.5719
2767.25	95.0829
2769.49	94.3562
2771.73	94.5066
2773.97	94.8964
2776.21	95.5895
2778.45	96.1576
2780.68	96.5759
2782.92	96.8683
2785.15	95.7333
2787.39	94.3877
2789.62	93.3247
2791.85	94.3065
2794.09	95.9583
2796.32	98.4633
2798.55	101.605
2800.78	102.763
2803.01	102.783
2805.23	101.213
2807.46	99.0694
2809.69	95.9793
2811.91	94.0642
2814.14	94.2341
2816.36	95.5054
2818.59	97.7712
2820.81	99.9882
2823.03	99.0008
2825.25	98.1297
2827.47	97.2762
2829.69	95.3883
2831.91	95.0416
2834.13	95.8367
2836.34	96.8922
2838.56	97.8509
2840.78	98.4608
2842.99	98.7695
2845.21	98.6489
2847.42	98.2815
2849.63	97.71
2851.84	96.603
2854.05	94.3719
2856.27	92.148
2858.47	90.1492
2860.68	88.8833
2862.89	88.5593
2865.1	88.3439
2867.3	89.2767
2869.51	90.988
2871.72	92.3615
2873.92	93.9164
2876.12	94.5477
2878.33	94.9289
2880.53	95.0507
2882.73	94.9909
2884.93	94.7939
2887.13	94.4441
2889.33	94.2353
2891.53	93.8387
2893.72	92.7555
2895.92	92.4654
2898.12	92.901
2900.31	93.8385
2902.51	94.4913
2904.7	93.5059
2906.89	93.1487
2909.08	93.363
2911.28	92.5637
2913.47	90.5551
2915.66	88.4057
2917.84	87.7524
2920.03	88.855
2922.22	91.3889
2924.41	92.3782
2926.59	91.7993
2928.78	90.757
2930.96	89.015
2933.15	87.2013
2935.33	86.4145
2937.51	86.5276
2939.7	87.1613
2941.88	88.0002
2944.06	88.9404
2946.24	89.4215
2948.41	89.7527
2950.59	90.0753
2952.77	90.3319
2954.95	90.5608
2957.12	90.7192
2959.3	90.874
2961.47	90.942
2963.64	90.96
2965.82	91.0367
2967.99	90.5724
2970.16	89.8393
2972.33	89.3196
2974.5	90.1316
2976.67	91.4699
2978.84	92.6905
2981	93.3354
2983.17	93.5459
2985.34	92.9288
2987.5	92.0584
2989.67	90.7056
2991.83	88.1445
2993.99	86.1401
2996.16	86.3102
2998.32	86.8487
3000.48	88.0122
3002.64	88.8945
3004.8	90.0755
3006.96	90.749
3009.12	89.6968
3011.27	87.7117
3013.43	84.5958
3015.58	81.3372
3017.74	80.0041
3019.89	79.3337
3022.05	79.9121
3024.2	83.0606
3026.35	87.5933
3028.5	90.3677
3030.65	92.4121
3032.8	93.3996
3034.95	91.7909
3037.1	90.1593
3039.25	87.0627
3041.4	84.7344
3043.54	83.1788
3045.69	82.2384
3047.83	81.8572
3049.98	82.1406
3052.12	82.8472
3054.26	83.5889
3056.4	83.8879
3058.54	83.8819
3060.69	83.4611
3062.82	82.9113
3064.96	82.6931
3067.1	83.3051
3069.24	84.4343
3071.38	85.5218
3073.51	86.4218
3075.65	87.1284
3077.78	87.5414
3079.91	87.6679
3082.05	87.5168
3084.18	87.1497
3086.31	86.5071
3088.44	85.6246
3090.57	84.6627
3092.7	83.6795
3094.83	82.2043
3096.96	80.9838
3099.09	81.4604
3101.21	82.2553
3103.34	83.314
3105.47	84.2912
3107.59	84.7533
3109.71	85.1531
3111.84	85.4043
3113.96	85.5363
3116.08	85.3004
3118.2	85.3081
3120.32	85.8597
3122.44	86.0917
3124.56	86.2901
3126.68	88.4491
3128.79	69.9468
3130.91	72.5298
3133.03	73.7445
3135.14	76.8344
3137.26	80.7173
3139.37	82.5732
3141.48	83.9802
3143.6	84.8371
3145.71	85.2474
3147.82	84.7809
3149.93	85.7093
3152.04	86.7824
3154.15	87.8394
3156.25	88.7005
3158.36	86.9803
3160.47	81.242
3162.57	79.1614
3164.68	79.3766
3166.78	79.8307
3168.89	80.4992
3170.99	81.2706
3173.09	81.2733
3175.19	80.6998
3177.3	80.759
3179.4	81.2595
3181.49	82.0713
3183.59	83.4349
3185.69	84.2427
3187.79	84.7086
3189.89	85.2011
3191.98	85.6264
3194.08	85.604
3196.17	84.1476
3198.27	82.3495
3200.36	80.7927
3202.45	79.6687
3204.54	79.1088
3206.63	79.0234
3208.72	79.4537
3210.81	80.2224
3212.9	81.082
3214.99	81.869
3217.08	84.8462
3219.17	85.2277
3221.25	82.7637
3223.34	80.1283
3225.42	76.7133
3227.51	74.5889
3229.59	73.4145
3231.67	73.1671
3233.75	73.6829
3235.84	75.096
3237.92	77.0329
3240	78.6562
3242.08	79.8583
3244.15	80.4713
3246.23	80.4116
3248.31	79.6717
3250.39	78.3087
3252.46	75.9468
3254.54	74.227
3256.61	74.0614
3258.68	75.3769
3260.76	75.7359
3262.83	74.2908
3264.9	73.6323
3266.97	71.9452
3269.04	72.35
3271.11	72.6961
3273.18	73.0034
3275.25	73.3251
3277.32	73.7883
3279.38	74.1791
3281.45	74.3672
3283.51	73.6408
3285.58	73.1117
3287.64	72.4746
3289.71	73.7565
3291.77	75.3326
3293.83	75.9858
3295.89	76.6845
3297.95	77.8213
3300.01	78.879
3302.07	79.5771
3304.13	79.6589
3306.19	76.5265
3308.25	73.8874
3310.3	71.9803
3312.36	70.8014
3314.41	70.4704
3316.47	70.9536
3318.52	72.1823
3320.57	74.0303
3322.63	76.4726
3324.68	76.7932
3326.73	75.7197
3328.78	74.4786
3330.83	72.7958
3332.88	71.9486
3334.92	72.425
3336.97	72.8284
3339.02	71.7529
3341.07	71.9164
3343.11	72.9882
3345.16	73.8749
3347.2	74.3636
3349.24	73.4532
3351.29	72.3216
3353.33	71.1185
3355.37	70.1007
3357.41	69.8097
3359.45	69.8899
3361.49	70.4146
3363.53	71.0133
3365.57	71.6339
3367.6	72.4411
3369.64	72.4375
3371.68	72.4796
3373.71	72.4387
3375.75	72.3814
3377.78	72.4625
3379.81	72.8756
3381.85	73.5507
3383.88	74.2024
3385.91	74.588
3387.94	74.7799
3389.97	74.8028
3392	74.6653
3394.03	74.4583
3396.06	74.1606
3398.08	73.7817
3400.11	72.8157
3402.14	72.594
3404.16	72.8181
3406.19	71.2673
3408.21	69.1842
3410.23	67.201
3412.26	66.3375
3414.28	70.6202
3416.3	71.2101
3418.32	70.7156
3420.34	70.4502
3422.36	70.3654
3424.38	70.493
3426.4	70.7466
3428.41	71.4261
3430.43	72.098
3432.45	72.6486
3434.46	72.8009
3436.48	72.8221
3438.49	72.7054
3440.5	72.4396
3442.52	72.345
3444.53	72.5032
3446.54	72.8688
3448.55	71.737
3450.56	70.3187
3452.57	69.2189
3454.58	68.6707
3456.59	69.3429
3458.59	69.653
3460.6	68.496
3462.61	68.0512
3464.61	73.7746
3466.62	71.7618
3468.62	69.4496
3470.62	67.7402
3472.63	66.4147
3474.63	65.6455
3476.63	65.1064
3478.63	64.6907
3480.63	64.4745
3482.63	64.2109
3484.63	64.0758
3486.63	64.0564
3488.62	64.1691
3490.62	64.4421
3492.62	64.8421
3494.61	65.4693
3496.61	66.2109
3498.6	66.9745
3500.6	67.7716
3502.59	68.3863
3504.58	69.6379
3506.57	69.1323
3508.56	68.2671
3510.55	66.4123
3512.54	64.9397
3514.53	64.2088
3516.52	64.1152
3518.51	64.6637
3520.49	66.1218
3522.48	68.1287
3524.47	69.6537
3526.45	69.6021
3528.44	69.3464
3530.42	68.9043
3532.4	68.3939
3534.39	67.4882
3536.37	66.2766
3538.35	65.207
3540.33	64.7058
3542.31	63.6248
3544.29	62.7514
3546.27	62.0628
3548.25	61.4885
3550.22	61.5352
3552.2	62.5703
3554.18	63.6237
3556.15	64.9306
3558.13	66.6958
3560.1	67.8247
3562.07	68.3776
3564.05	67.8189
3566.02	66.6162
3567.99	65.4009
3569.96	64.6677
3571.93	64.1361
3573.9	63.6568
3575.87	64.7638
3577.84	65.5557
3579.8	66.0606
3581.77	66.4358
3583.74	66.7259
3585.7	66.9222
3587.67	67.0381
3589.63	67.0003
3591.6	66.7655
3593.56	65.9868
3595.52	65.2059
3597.48	64.491
3599.45	64.0269
3601.41	63.9913
3603.37	63.0793
3605.33	62.1819
3607.28	61.3202
3609.24	61.2178
3611.2	61.709
3613.16	62.3126
3615.11	62.9066
3617.07	63.3987
3619.02	63.7418
3620.98	64.0181
3622.93	64.217
3624.88	64.1865
3626.84	63.7819
3628.79	63.2749
3630.74	62.9377
3632.69	62.5683
3634.64	63.3602
3636.59	63.4821
3638.54	63.7161
3640.49	62.6949
3642.43	61.2708
3644.38	60.695
3646.33	60.9152
3648.27	61.8291
3650.22	63.0809
3652.16	62.2454
3654.1	61.2546
3656.05	60.3745
3657.99	60.1208
3659.93	60.136
3661.87	60.4697
3663.81	59.9272
3665.75	59.9081
3667.69	60.6016
3669.63	57.2222
3671.57	61.3072
3673.5	64.2778
3675.44	65.3061
3677.38	64.4705
3679.31	61.5432
3681.25	57.2127
3683.18	55.1184
3685.11	55.0637
3687.05	55.1998
3688.98	56.3524
3690.91	56.6784
3692.84	56.8404
3694.77	57.5519
3696.7	58.075
3698.63	56.5691
3700.56	55.6916
3702.49	55.3708
3704.41	55.0885
3706.34	55.8667
3708.27	56.6682
3710.19	57.7932
3712.12	58.8399
3714.04	59.6814
3715.96	60.0521
3717.89	59.2443
3719.81	59.2857
3721.73	59.6132
3723.65	60.1286
3725.57	60.5023
3727.49	60.2085
3729.41	58.8966
3731.33	57.9496
3733.25	57.2092
3735.17	56.7035
3737.08	56.4249
3739	56.3159
3740.91	55.9337
3742.83	55.7321
3744.74	56.3729
3746.66	56.267
3748.57	56.1242
3750.48	55.8459
3752.39	55.4467
3754.31	54.9816
3756.22	54.4805
3758.13	54.1647
3760.04	54.2294
3761.94	54.6354
3763.85	55.1474
3765.76	56.1365
3767.67	56.9748
3769.57	57.0646
3771.48	57.6327
3773.38	57.7904
3775.29	57.778
3777.19	57.7343
3779.1	57.6464
3781	57.6107
3782.9	57.7238
3784.8	57.7113
3786.7	57.5385
3788.6	57.2148
3790.5	56.7765
3792.4	56.2811
3794.3	55.8069
3796.2	55.4624
3798.09	55.2678
3799.99	55.1796
3801.89	55.2073
3803.78	55.3108
3805.68	55.4785
3807.57	55.7533
3809.46	56.6858
3811.36	56.6873
3813.25	56.1873
3815.14	55.6778
3817.03	55.2699
3818.92	55.0881
3820.81	54.9249
3822.7	54.6847
3824.59	54.5085
3826.48	54.4138
3828.37	54.5627
3830.25	55.6297
3832.14	55.8354
3834.03	54.5848
3835.91	53.0106
3837.79	51.8601
3839.68	51.5097
3841.56	51.641
3843.45	52.3584
3845.33	53.7505
3847.21	54.2343
3849.09	54.5434
3850.97	53.7612
3852.85	52.7901
3854.73	51.7952
3856.61	51.2343
3858.48	50.9403
3860.36	50.8484
3862.24	50.9671
3864.11	51.3497
3865.99	51.4504
3867.86	51.2865
3869.74	51.4125
3871.61	51.6869
3873.49	52.0116
3875.36	52.439
3877.23	52.8964
3879.1	52.513
3880.97	52.1671
3882.84	52.1291
3884.71	52.2783
3886.58	52.539
3888.45	52.3373
3890.32	51.1492
3892.18	50.4468
3894.05	50.4507
3895.92	51.5468
3897.78	52.1836
3899.65	52.5804
3901.51	52.8069
3903.38	52.738
3905.24	52.2384
3907.1	51.3657
3908.96	50.5675
3910.82	49.9141
3912.68	49.3652
3914.54	49.1001
3916.4	49.3052
3918.26	49.1806
3920.12	49.7995
3921.98	50.6484
3923.83	50.969
3925.69	50.4083
3927.55	49.56
3929.4	49.3288
3931.26	50.1371
3933.11	50.989
3934.97	51.4896
3936.82	51.6216
3938.67	51.4099
3940.52	50.6175
3942.37	49.6954
3944.22	48.7666
3946.07	47.8378
3947.92	46.9575
3949.77	46.6255
3951.62	46.9004
3953.47	47.4371
3955.32	48.2707
3957.16	48.8705
3959.01	48.5022
3960.85	47.9775
3962.7	48.1323
3964.54	48.527
3966.39	49.2168
3968.23	49.2025
3970.07	48.9087
3971.91	46.914
3973.76	48.4849
3975.6	48.5752
3977.44	48.7074
3979.28	48.944
3979.39	48.9371
3981.24	49.1628
3983.08	49.3263
3984.92	49.3807
3986.76	49.4096
3988.6	49.0815
3990.45	48.494
3992.29	47.7675
3994.13	47.5603
3995.96	47.685
3997.8	47.2534
3999.64	47.2807
4001.48	47.6611
4003.32	48.2856
4005.15	48.9914
4006.99	49.5494
4008.82	49.5788
4010.66	49.3454
4012.49	48.0165
4014.32	46.285
4016.16	45.3435
4017.99	44.6463
4019.82	45.2842
4021.65	45.0091
4023.48	42.5712
4025.31	43.7281
4027.14	45.5156
4028.97	47.8397
4030.8	47.9525
4032.62	47.6231
4034.45	46.9297
4036.28	45.399
4038.1	45.1497
4039.93	46.0779
4041.75	47.6074
4043.58	48.9658
4045.4	49.8617
4047.22	49.6439
4049.05	48.8251
4050.87	47.687
4052.69	46.6734
4054.51	45.978
4056.33	45.6846
4058.15	45.7265
4059.97	45.9292
4061.79	46.1563
4063.61	46.6068
4065.42	47.2106
4067.24	47.722
4069.06	48.1262
4070.87	48.3857
4072.69	48.4611
4074.5	48.4218
4076.31	48.2292
4078.13	47.943
4079.94	46.587
4081.75	47.1813
4083.56	46.9883
4085.38	46.6559
4087.19	46.7659
4089	47.2659
4090.81	47.7509
4092.61	48.0616
4094.42	47.5903
4096.23	47.515
4098.04	47.7531
4099.84	47.9315
4101.65	47.4495
4103.46	46.6042
4105.26	45.9302
4107.06	46.3644
4108.87	47.3219
4110.67	46.6331
4112.47	43.8726
4114.28	41.585
4116.08	41.3119
4117.88	43.2735
4119.68	45.2784
4121.48	46.686
4123.28	47.8563
4125.08	47.6344
4126.88	47.5156
4128.67	47.6866
4130.47	47.3569
4132.27	46.0736
4134.06	43.6316
4135.86	39.4524
4137.65	37.9206
4139.45	42.4546
4141.24	43.6263
4143.03	44.0194
4144.83	43.6877
4146.62	43.6
4148.41	45.6366
4150.2	46.4986
4151.99	46.0714
4153.78	45.5917
4155.57	44.9892
4157.36	44.3876
4159.15	46.5699
4160.93	46.8825
4162.72	46.1268
4164.51	45.5316
4166.29	45.0189
4168.08	44.6023
4169.86	44.1386
4171.65	43.5656
4173.43	43.3691
4175.21	43.4809
4177	43.745
4178.78	43.7906
4180.56	43.7586
4182.34	43.3974
4184.12	43.1138
4185.9	42.7769
4187.68	42.4792
4189.46	41.8483
4191.24	41.1016
4193.02	40.9376
4194.79	41.2002
4196.57	41.6678
4198.35	42.6861
4200.12	43.2041
4201.9	42.614
4203.67	42.5056
4205.44	42.5482
4207.22	43.2939
4208.99	44.1361
4210.76	44.705
4212.53	44.9862
4214.31	44.5488
4216.08	43.82
4217.85	43.1871
4219.62	42.693
4221.38	42.3662
4223.15	42.1658
4224.92	42.1227
4226.69	41.6047
4228.45	40.9794
4230.22	41.2006
4231.99	41.6817
4233.75	42.0515
4235.52	42.6409
4237.28	42.2824
4239.04	44.0424
4240.81	43.245
4242.57	42.2543
4244.33	41.421
4246.09	39.5009
4247.85	38.2284
4249.61	38.3129
4251.37	38.8775
4253.13	39.5212
4254.89	40.1772
4256.65	40.8692
4258.41	41.5926
4260.16	42.3278
4261.92	43.076
4263.67	43.8666
4265.43	43.9887
4267.19	43.1845
4268.94	42.4527
4270.69	41.8284
4272.45	41.4262
4274.2	39.7343
4275.95	39.9482
4277.7	40.7325
4279.45	42.07
4281.2	41.3911
4282.95	40.9132
4284.7	40.6163
4286.45	40.3474
4288.2	40.5545
4289.95	40.6098
4291.7	41.0232
4293.44	42.1377
4295.19	43.1699
4296.93	43.2046
4298.68	42.4529
4300.42	42.2903
4302.17	42.4887
4303.91	42.7154
4305.65	42.7721
4307.4	42.0078
4309.14	40.5704
4310.88	40.1128
4312.62	40.8758
4314.36	41.1116
4316.1	41.1481
4317.84	41.4368
4319.58	41.7275
4321.32	42.1176
4323.06	42.3973
4324.79	42.3498
4326.53	41.7144
4328.27	41.2036
4330	40.8738
4331.74	40.6777
4333.47	40.2491
4335.2	39.9938
4336.94	39.8278
4338.67	39.5767
4340.4	39.3279
4342.14	39.5773
4343.87	40.3585
4345.6	41.3804
4347.33	42.2521
4349.06	42.0601
4350.79	40.9617
4352.52	38.6703
4354.24	36.9841
4355.97	36.587
4357.7	36.4152
4359.42	37.959
4361.15	38.7071
4362.88	38.7268
4364.6	39.003
4366.33	38.4447
4368.05	37.1224
4369.77	36.4627
4371.5	36.3873
4373.22	37.287
4374.94	37.9315
4376.66	38.8334
4378.38	39.0232
4380.1	38.6635
4381.82	38.1295
4383.54	37.6044
4385.26	37.2294
4386.98	36.9505
4388.7	36.8017
4390.41	36.7802
4392.13	36.9275
4393.85	37.1962
4395.56	37.5542
4397.28	37.9786
4398.99	38.4704
4400.71	38.9711
4402.42	39.5544
4404.13	39.2846
4405.84	38.5891
4407.56	37.678
4409.27	37.3846
4410.98	37.6945
4412.69	39.3669
4414.4	41.8858
4416.11	40.9797
4417.82	40.6123
4419.53	41.0715
4421.23	41.3398
4422.94	41.6276
4424.65	41.5875
4426.35	40.9334
4428.06	39.8035
4429.77	38.5896
4431.47	37.6584
4433.17	36.8034
4434.88	36.4562
4436.58	36.4196
4438.28	37.1745
4439.99	38.0044
4441.69	38.089
4443.39	38.076
4445.09	37.5565
4446.79	36.9735
4448.49	36.8166
4450.19	37.1934
4451.89	37.7285
4453.58	38.3768
4455.28	38.7993
4456.98	37.5661
4458.68	38.2779
4460.37	38.3303
4462.07	39.3298
4463.76	39.0099
4465.46	38.4895
4467.15	37.9893
4468.84	37.543
4470.54	37.1297
4472.23	36.773
4473.92	36.4252
4475.61	36.0703
4477.3	35.6501
4478.99	35.628
4480.68	36.3515
4482.37	37.6836
4484.06	37.9505
4485.75	38.1605
4487.44	38.8369
4489.12	39.7605
4490.81	39.1818
4492.5	38.6512
4494.18	38.2187
4495.87	37.914
4497.55	37.5082
4499.24	36.8341
4500.92	36.3378
4502.6	36.0051
4504.29	35.8009
4505.97	35.7041
4507.65	35.7314
4509.33	35.8276
4511.01	36.0102
4512.69	36.3629
4514.37	36.5662
4516.05	35.5048
4517.73	34.3427
4519.41	33.7145
4521.09	32.9486
4522.76	32.5458
4524.44	33.018
4526.12	35.1022
4527.79	35.5536
4529.47	35.8504
4531.14	36.0167
4532.82	36.0136
4534.49	35.8273
4536.16	35.5737
4537.84	35.1173
4539.51	34.5157
4541.18	33.7693
4542.85	33.4916
4544.52	33.8382
4546.19	35.2101
4547.86	36.568
4549.53	37.0707
4551.2	36.6242
4552.87	35.5718
4554.54	34.6378
4556.2	33.9655
4557.87	33.5127
4559.54	33.0306
4561.2	33.2276
4562.87	33.7223
4564.53	35.3857
4566.2	35.3895
4567.86	35.4798
4569.52	35.7088
4571.18	36.087
4572.85	36.5476
4574.51	36.9897
4576.17	37.2129
4577.83	36.2904
4579.49	34.7683
4581.15	33.0892
4582.81	34.2334
4584.47	34.4499
4586.13	34.2857
4587.78	34.3859
4589.44	34.5256
4591.1	34.4544
4592.75	32.7394
4594.41	31.481
4596.06	36.0919
4597.72	36.3107
4599.37	36.0262
4601.03	35.6507
4602.68	35.1515
4604.33	34.4987
4605.99	33.5506
4607.64	32.7403
4609.29	31.8098
4610.94	30.929
4612.59	30.4954
4614.24	30.4213
4615.89	31.4171
4617.54	32.8006
4619.19	34.4014
4620.83	35.7495
4622.48	35.2624
4624.13	33.9194
4625.77	32.8337
4627.42	31.9967
4629.07	31.3756
4630.71	31.439
4632.36	33.5794
4634	34.3488
4635.64	33.7741
4637.29	33.5266
4638.93	33.7862
4640.57	33.8488
4642.21	32.4087
4643.85	31.1553
4645.49	31.0252
4647.13	31.6298
4648.77	32.6018
4650.41	33.9097
4652.05	34.3879
4653.69	34.0741
4655.33	33.8193
4656.96	33.7245
4658.6	34.0889
4660.24	34.4058
4661.87	33.7654
4663.51	32.8402
4665.14	32.2645
4666.78	31.9245
4668.41	32.0076
4670.04	32.1902
4671.68	32.3711
4673.31	32.5793
4674.94	32.8624
4676.57	33.1472
4678.2	33.4139
4679.83	33.6553
4681.46	33.8023
4683.09	33.914
4684.72	33.9848
4686.35	33.4389
4687.98	32.177
4689.6	31.2545
4691.23	31.6034
4692.86	32.9436
4694.48	32.8479
4696.11	32.1986
4697.73	31.7605
4699.36	31.6915
4700.98	31.5915
4702.61	31.6801
4704.23	32.1771
4705.85	32.6934
4707.47	33.1453
4709.1	33.471
4710.72	33.0124
4712.34	32.285
4713.96	32.1518
4715.58	32.026
4717.2	32.028
4718.82	32.0346
4720.43	31.1055
4722.05	29.988
4723.67	29.0961
4725.29	28.9609
4726.9	30.4401
4728.52	31.5986
4730.13	32.5071
4731.75	32.7892
4733.36	32.73
4734.98	32.5702
4736.59	32.2935
4738.2	32.1567
4739.82	32.2802
4741.43	32.7064
4743.04	33.1306
4744.65	33.2954
4746.26	33.0333
4747.87	32.6841
4749.48	32.2146
4751.09	31.6879
4752.7	31.1903
4754.31	29.9848
4755.92	30.5316
4757.52	31.0188
4759.13	31.4107
4760.74	31.6952
4762.34	31.9386
4763.95	32.0265
4765.55	32.0263
4767.16	31.8943
4768.76	31.7496
4770.37	30.6465
4771.97	28.0836
4773.57	28.3653
4775.17	29.1108
4776.78	31.1119
4778.38	32.1713
4779.98	33.092
4781.58	33.4424
4783.18	32.4558
4784.78	31.0139
4786.38	28.821
4787.97	27.4387
4789.57	27.027
4791.17	28.5395
4792.77	30.076
4794.36	30.52
4795.96	31.0282
4797.56	30.9524
4799.15	30.5828
4800.75	31.4072
4802.34	31.9182
4803.93	32.3539
4805.53	32.7062
4807.12	32.9542
4808.71	33.2609
4810.3	32.5074
4811.9	31.2916
4813.49	30.5282
4815.08	30.5774
4816.67	30.4203
4818.26	29.3806
4819.85	31.8045
4821.43	31.79
4823.02	31.5103
4824.61	30.8507
4826.2	30.095
4827.78	29.1376
4829.37	29.0327
4830.96	29.1467
4832.54	29.3891
4834.13	29.703
4835.71	30.0573
4837.29	30.4961
4838.88	30.6493
4840.46	30.5484
4842.04	30.3724
4843.63	30.1434
4845.21	29.7059
4846.79	28.8541
4848.37	27.1133
4849.95	26.8733
4851.53	27.0203
4853.11	27.3409
4854.69	27.8187
4856.27	28.4259
4857.84	29.135
4859.42	29.9421
4861	30.8656
4862.58	31.6358
4864.15	30.5534
4865.73	29.0822
4867.3	28.4347
4868.88	28.5881
4870.45	29.6869
4872.03	29.3331
4873.6	29.5771
4875.17	29.2655
4876.74	28.2866
4878.32	27.0775
4879.89	26.8797
4881.46	27.4146
4883.03	26.8254
4884.6	26.564
4886.17	27.0968
4887.74	28.012
4889.31	28.676
4890.88	28.7917
4892.44	28.3602
4894.01	27.9854
4895.58	27.7073
4897.15	27.468
4898.71	27.3043
4900.28	27.1912
4901.84	27.1889
4903.41	27.3317
4904.97	27.6184
4906.54	28.1465
4908.1	28.7444
4909.66	29.4104
4911.22	29.9821
4912.79	29.574
4914.35	28.8331
4915.91	28.3524
4917.47	28.2068
4919.03	28.3982
4920.59	29.0703
4922.15	29.7764
4923.71	28.5862
4925.27	26.4635
4926.82	26.1303
4928.38	26.0441
4929.94	26.375
4931.5	26.9889
4933.05	28.8697
4934.61	29.8214
4936.16	27.986
4937.72	26.8373
4939.27	26.7924
4940.83	26.8786
4942.38	27.1051
4943.93	27.859
4945.48	28.7188
4947.04	29.4645
4948.59	29.9686
4950.14	30.4408
4951.69	30.8616
4953.24	30.7645
4954.79	30.4062
4956.34	29.9773
4957.89	29.4771
4959.44	26.1998
4960.98	24.9172
4962.53	25.648
4964.08	27.3882
4965.63	26.647
4967.17	25.9306
4968.72	25.6539
4970.26	25.704
4971.81	26.1339
4973.35	26.6813
4974.9	27.0224
4976.44	26.5077
4977.98	26.1652
4979.53	25.9221
4981.07	25.9196
4982.61	26.8426
4984.15	28.2031
4985.69	28.4861
4987.23	28.5216
4988.77	28.4116
4990.31	27.5421
4991.85	26.5295
4993.39	25.5315
4994.93	25.5225
4996.47	23.5116
4998.01	26.2415
4999.54	28.9376
