#Acq. time (s)=	30
#Accumulations=	2
#Range (cm-¹)=	1200...2365
#Windows=	3
#Auto scanning=	Off
#Autofocus=	Off
#Macrospot=	Off
#AutoExposure=	Off
#Spike filter=	Multiple accum.
#Delay time (s)=	2
#Binning=	1
#Readout mode=	Signal
#DeNoise=	Off
#ICS correction=	On
#Dark correction=	Off
#Inst. Process=	Off
#Detector Gain=	Best Dynamic
#Detector ADC=	50 kHz HS
#Detector temperature (°C)=	-60.09
#Instrument=	LabRAM HR Evol
#Detector=	SIN-EM FIVIS
#Objective=	x100_VIS_LWD
#Grating=	1800 (450-850nm)
#ND Filter=	100%
#Laser=	532nm_Edge
#Hole=	100.021
#Temperature=	0
#Range=	Visible
#StageXY=	75x50mm Scan+
#StageZ=	Z motor
#X (µm)=	0
#Y (µm)=	0
#Z (µm)=	-11.5
#Full time(mm:ss)=	3:13
#Project=	21_11_26
#Sample=	BU02Aw
#Site=	
#Title=	BU02aW-A-FF1-FI03-V_1800 (450-850nm)_532nm_Edge_100%_x100_VIS_LWD_H100um_30sX2
#Remark=	
#Date=	26.11.2021 11:11
#Acquired=	26.11.2021 11:11:48
1202.72	86.5712
1203	81.3079
1203.28	85.6406
1203.56	83.4324
1203.84	81.2132
1204.11	77.9444
1204.39	81.135
1204.67	86.5101
1204.95	76.8406
1205.23	83.2714
1205.5	88.6084
1205.78	79.9758
1206.06	81.0084
1206.34	85.258
1206.61	76.634
1206.89	77.6663
1207.17	79.7689
1207.45	87.232
1207.73	79.7102
1208	79.6872
1208.28	80.741
1208.56	87.1419
1208.84	78.5531
1209.11	74.2496
1209.39	82.781
1209.67	87.044
1209.95	75.2763
1210.23	84.8871
1210.5	78.4532
1210.78	81.6219
1211.06	80.5176
1211.34	85.826
1211.61	83.6553
1211.89	76.1584
1212.17	83.5893
1212.45	85.6856
1212.72	79.264
1213	85.6299
1213.28	86.6656
1213.56	81.3199
1213.83	74.9172
1214.11	80.2203
1214.39	75.9619
1214.67	81.2842
1214.94	79.1522
1215.22	74.8892
1215.5	86.5933
1215.78	72.7459
1216.05	75.9296
1216.33	80.1632
1216.61	85.45
1216.89	83.2825
1217.16	85.3715
1217.44	82.1536
1217.72	71.5031
1218	83.1607
1218.27	85.2611
1218.55	78.8692
1218.83	75.665
1219.1	87.3252
1219.38	72.46
1219.66	83.0594
1219.94	79.8626
1220.21	68.1772
1220.49	74.5352
1220.77	73.471
1221.04	75.5844
1221.32	78.7544
1221.6	75.5557
1221.88	79.7788
1222.15	78.692
1222.43	89.2513
1222.71	76.4999
1222.98	79.6328
1223.26	83.8226
1223.54	77.4363
1223.81	78.4572
1224.09	83.7088
1224.37	82.6193
1224.65	76.2595
1224.92	74.1295
1225.2	74.1158
1225.48	74.1099
1225.76	76.2267
1226.03	83.6217
1226.31	81.5169
1226.59	78.3409
1226.86	83.6105
1227.14	77.2572
1227.42	70.9075
1227.69	83.5257
1227.97	80.2798
1228.25	77.0676
1228.52	80.1777
1228.8	73.7876
1229.08	74.7781
1229.35	82.1236
1229.63	73.897
1229.91	75.1066
1230.18	71.868
1230.46	78.1176
1230.74	72.8198
1231.01	81.2508
1231.29	83.3044
1231.57	76.8324
1231.84	82.097
1232.12	82.0916
1232.4	82.085
1232.67	79.9701
1232.95	73.6606
1233.23	78.9055
1233.5	78.894
1233.78	80.9891
1234.06	79.9393
1234.33	73.6392
1234.61	78.8964
1234.89	82.0568
1235.16	79.9646
1235.44	77.865
1235.71	82.0734
1235.99	76.823
1236.27	79.9799
1236.54	78.9234
1236.82	81.0123
1237.1	76.7913
1237.37	76.7706
1237.65	71.4882
1237.93	81.9602
1238.2	75.6283
1238.48	74.5477
1238.76	78.7131
1239.03	78.6874
1239.31	88.1068
1239.58	83.8973
1239.86	73.4018
1240.14	70.2485
1240.41	79.6761
1240.69	73.3829
1240.97	70.2365
1241.24	82.8157
1241.52	79.6701
1241.79	84.9002
1242.07	82.7849
1242.35	79.6279
1242.62	77.5297
1242.9	80.6748
1243.18	81.7306
1243.45	78.593
1243.73	78.5881
1244	72.2954
1244.28	79.6349
1244.56	81.7268
1244.83	75.4281
1245.11	81.7058
1245.39	73.3009
1245.66	78.5169
1245.94	74.2965
1246.21	79.5026
1246.49	76.3471
1246.76	84.711
1247.04	87.8479
1247.32	81.5621
1247.59	81.5514
1247.87	88.8722
1248.14	77.3475
1248.42	94.0524
1248.7	86.709
1248.97	85.6551
1249.25	82.5189
1249.52	82.5213
1249.8	80.4202
1250.08	84.5972
1250.35	81.4568
1250.63	76.2075
1250.9	83.5016
1251.18	79.2984
1251.45	82.4138
1251.73	79.2612
1252.01	79.2436
1252.28	81.3141
1252.56	77.1184
1252.83	75.0121
1253.11	79.1675
1253.39	83.323
1253.66	77.05
1253.94	85.3946
1254.21	82.2736
1254.49	81.2416
1254.76	83.3438
1255.04	82.3031
1255.31	86.4761
1255.59	79.1693
1255.87	83.3426
1256.14	82.2905
1256.42	89.6004
1256.69	85.4264
1256.97	87.5242
1257.24	81.2575
1257.52	95.8723
1257.79	86.4557
1258.07	87.4885
1258.35	88.5222
1258.62	96.8636
1258.9	104.157
1259.17	94.7347
1259.45	104.122
1259.72	90.5607
1260	92.6583
1260.27	97.9151
1260.55	93.7094
1260.82	100.99
1261.1	97.8191
1261.37	100.921
1261.65	100.901
1261.92	107.171
1262.2	104.13
1262.48	120.992
1262.75	128.388
1263.02	134.44
1263.3	144.706
1263.58	166.533
1263.85	165.65
1264.13	190.842
1264.4	206.702
1264.68	196.342
1264.95	198.305
1265.23	184.666
1265.5	148.081
1265.78	134.479
1266.05	131.316
1266.33	114.594
1266.6	115.643
1266.88	111.475
1267.15	95.813
1267.43	90.6041
1267.7	100.037
1267.98	100.063
1268.25	103.231
1268.53	88.6172
1268.8	94.9297
1269.08	92.8498
1269.35	101.243
1269.63	90.7738
1269.9	97.051
1270.18	94.9307
1270.45	103.275
1270.73	99.0615
1271	94.8468
1271.28	101.106
1271.55	95.8629
1271.83	100.032
1272.1	105.268
1272.38	96.9153
1272.65	88.5637
1272.93	95.9256
1273.2	99.0899
1273.47	93.873
1273.75	92.8466
1274.03	94.9644
1274.3	93.9374
1274.57	90.8026
1274.85	101.293
1275.12	97.0893
1275.4	97.086
1275.67	97.0931
1275.95	105.499
1276.22	95.0202
1276.5	100.288
1276.77	94.0036
1277.05	101.369
1277.32	99.2788
1277.6	102.451
1277.87	105.625
1278.14	111.952
1278.42	104.613
1278.69	103.578
1278.97	104.656
1279.24	112.032
1279.52	106.787
1279.79	116.245
1280.07	123.595
1280.34	127.783
1280.61	130.93
1280.89	139.351
1281.16	155.139
1281.44	168.852
1281.71	186.794
1281.99	218.394
1282.26	260.49
1282.53	317.357
1282.81	427.936
1283.08	564.706
1283.36	748.548
1283.63	1014.9
1283.91	1351.84
1284.18	1776.33
1284.45	2127.38
1284.73	2154.95
1285	1853.97
1285.28	1304.95
1285.55	838.801
1285.83	559.507
1286.1	372.106
1286.37	274.246
1286.65	225.798
1286.92	185.743
1287.2	165.732
1287.47	161.507
1287.75	147.795
1288.02	139.345
1288.29	135.117
1288.57	128.798
1288.84	122.484
1289.12	115.122
1289.39	113.031
1289.66	104.625
1289.94	117.277
1290.21	96.2334
1290.49	103.621
1290.76	96.2426
1291.03	94.1218
1291.31	90.9532
1291.58	101.48
1291.86	101.476
1292.13	100.415
1292.4	96.1997
1292.68	104.628
1292.95	91.9804
1293.22	93.0227
1293.5	96.1834
1293.77	98.3186
1294.05	93.0862
1294.32	95.2315
1294.59	93.1301
1294.87	83.636
1295.14	91.0077
1295.42	87.8568
1295.69	83.6703
1295.96	90.0471
1296.24	85.883
1296.51	92.2567
1296.79	83.8071
1297.06	90.1479
1297.33	89.0776
1297.61	89.0584
1297.88	89.0365
1298.15	92.1813
1298.43	83.7052
1298.7	85.8238
1298.97	88.9815
1299.25	90.0189
1299.52	78.3899
1299.79	82.5958
1300.07	83.6469
1300.34	84.714
1300.62	88.9426
1300.89	87.8857
1301.16	81.543
1301.44	89.9828
1301.71	93.1513
1301.98	83.6594
1302.25	78.388
1302.53	81.5602
1302.8	83.6717
1303.08	81.5544
1303.35	80.4892
1303.62	87.8697
1303.9	81.5144
1304.17	78.3401
1304.44	84.674
1304.72	81.5028
1304.99	75.1626
1305.26	79.3729
1305.54	79.3552
1305.81	82.4995
1306.08	79.3118
1306.35	79.2886
1306.63	80.3238
1306.9	79.2584
1307.18	81.3638
1307.45	80.3128
1307.72	79.257
1308	78.1975
1308.27	90.85
1308.54	84.5228
1308.81	81.3499
1309.09	67.6387
1309.36	82.4152
1309.63	78.2031
1309.91	81.3768
1310.18	80.3257
1310.45	83.486
1310.73	79.2559
1311	77.1419
1311.27	84.5289
1311.55	79.2531
1311.82	82.4195
1312.09	85.5893
1312.37	83.4893
1312.64	86.6658
1312.91	81.3887
1313.18	84.5491
1313.46	84.5321
1313.73	82.4141
1314	81.3474
1314.28	77.1157
1314.55	77.112
1314.82	80.2798
1315.09	81.3401
1315.37	77.1235
1315.64	83.4651
1315.91	83.4727
1316.18	80.3115
1316.46	78.1921
1316.73	77.1273
1317	84.513
1317.28	77.1147
1317.55	77.111
1317.82	83.456
1318.09	84.517
1318.37	72.8986
1318.64	79.2367
1318.91	81.3479
1319.18	71.8364
1319.46	78.1694
1319.73	79.219
1320	73.9307
1320.28	84.4965
1320.55	83.4376
1320.82	80.2602
1321.09	82.3573
1321.37	71.7749
1321.64	71.7506
1321.91	74.8901
1322.18	79.0936
1322.46	79.0673
1322.73	76.9432
1323	85.3658
1323.27	77.968
1323.55	81.1119
1323.82	82.1723
1324.09	81.1179
1324.36	84.2791
1324.64	80.0552
1324.91	73.7262
1325.18	80.0469
1325.45	77.9396
1325.73	78.9699
1326	85.2526
1326.27	69.402
1326.54	75.6625
1326.81	81.949
1327.09	78.783
1327.36	71.4395
1327.63	76.7492
1327.9	71.5061
1328.18	78.9048
1328.45	76.8238
1328.72	76.8508
1328.99	83.2019
1329.27	82.1512
1329.54	75.8076
1329.81	73.702
1330.08	80.0253
1330.35	84.2348
1330.63	82.1105
1330.9	76.8185
1331.17	85.2312
1331.44	78.8774
1331.71	79.8963
1331.99	78.804
1332.26	72.4557
1332.53	77.6942
1332.8	81.8755
1333.07	82.8951
1333.35	76.5525
1333.62	77.5745
1333.89	79.6486
1334.16	78.5712
1334.43	80.6459
1334.71	82.7205
1334.98	77.4478
1335.25	72.1801
1335.52	78.458
1335.79	78.4394
1336.07	78.4217
1336.34	77.3559
1336.61	78.3892
1336.88	76.2778
1337.15	79.4102
1337.43	71.013
1337.7	79.3884
1337.97	82.52
1338.24	78.3045
1338.51	74.0922
1338.78	77.2197
1339.06	76.1558
1339.33	82.4264
1339.6	81.3732
1339.87	78.2313
1340.14	70.9018
1340.42	78.2301
1340.69	74.0406
1340.96	82.4177
1341.23	78.2233
1341.5	75.0744
1341.77	79.2539
1342.04	83.4294
1342.32	78.1778
1342.59	80.2503
1342.86	67.6686
1343.13	77.0617
1343.4	82.2769
1343.67	75.9916
1343.95	77.0312
1344.22	67.6143
1344.49	72.8413
1344.76	77.021
1345.03	75.9645
1345.3	70.7201
1345.58	73.8363
1345.85	68.5836
1346.12	83.1891
1346.39	82.1123
1346.66	73.7157
1346.93	73.688
1347.2	73.6617
1347.47	79.8922
1347.75	69.4394
1348.02	75.6775
1348.29	73.5793
1348.56	87.1182
1348.83	76.6864
1349.1	73.5445
1349.37	77.6941
1349.65	81.8413
1349.92	76.6152
1350.19	83.8861
1350.46	83.8674
1350.73	82.8071
1351	76.5391
1351.27	79.6367
1351.54	80.66
1351.81	79.5953
1352.09	73.3463
1352.36	82.6999
1352.63	78.5462
1352.9	77.5197
1353.17	80.6617
1353.44	87.9558
1353.71	78.6542
1353.98	77.6829
1354.25	76.5631
1354.53	80.6021
1354.8	72.2028
1355.07	77.4025
1355.34	78.4446
1355.61	82.5679
1355.88	80.4718
1356.15	78.4181
1356.42	77.3818
1356.69	75.2836
1356.96	80.4657
1357.24	83.5708
1357.51	78.3662
1357.78	76.2754
1358.05	81.4506
1358.32	80.3946
1358.59	77.2625
1358.86	78.2832
1359.13	79.3007
1359.4	85.505
1359.67	80.3032
1359.94	82.363
1360.22	76.1173
1360.49	75.0541
1360.76	81.2458
1361.03	77.0828
1361.3	76.037
1361.57	79.1396
1361.84	85.3477
1362.11	86.3748
1362.38	83.2537
1362.65	82.2055
1362.92	81.1582
1363.19	80.1163
1363.46	82.1887
1363.73	89.4488
1364	87.3851
1364.28	94.6438
1364.55	96.7108
1364.82	96.7006
1365.09	96.6865
1365.36	102.878
1365.63	95.6044
1365.9	101.788
1366.17	87.2735
1366.44	89.319
1366.71	87.2253
1366.98	88.2299
1367.25	91.2962
1367.52	86.1104
1367.79	81.9644
1368.06	95.4081
1368.33	85.0755
1368.6	88.1783
1368.87	84.0451
1369.15	102.656
1369.41	127.475
1369.68	156.432
1369.95	188.46
1370.23	159.489
1370.5	123.29
1370.77	93.2859
1371.04	103.602
1371.31	99.4471
1371.58	89.0875
1371.85	91.1185
1372.12	92.1101
1372.39	95.1655
1372.66	89.9716
1372.93	94.0677
1373.2	98.1711
1373.47	96.0927
1373.74	88.8629
1374.01	90.9108
1374.28	97.0816
1374.55	101.192
1374.82	103.242
1375.09	104.261
1375.36	107.334
1375.63	108.365
1375.9	111.465
1376.17	107.338
1376.44	103.22
1376.71	105.249
1376.98	106.249
1377.25	113.416
1377.52	114.393
1377.79	107.2
1378.06	114.43
1378.33	106.235
1378.6	112.466
1378.87	115.618
1379.14	111.51
1379.41	122.843
1379.68	118.7
1379.95	128.986
1380.22	137.199
1380.49	133.016
1380.76	141.138
1381.03	143.126
1381.3	136.898
1381.57	147.203
1381.84	152.302
1382.11	156.338
1382.38	149.065
1382.65	154.132
1382.92	159.205
1383.19	161.192
1383.46	170.375
1383.73	171.347
1384	170.287
1384.27	185.637
1384.54	196.918
1384.81	219.489
1385.08	233.883
1385.34	257.538
1385.61	292.527
1385.88	338.794
1386.15	397.388
1386.42	503.203
1386.69	735.418
1386.96	1036.44
1387.23	1679.41
1387.5	2739.3
1387.77	4047.26
1388.04	4722.51
1388.31	3783.59
1388.58	2408.7
1388.85	1339.44
1389.12	794.178
1389.39	511.304
1389.66	370.672
1389.93	280.345
1390.2	241.237
1390.46	201.04
1390.73	189.683
1391	173.267
1391.27	158.843
1391.54	138.328
1391.81	134.213
1392.08	130.08
1392.35	125.945
1392.62	112.601
1392.89	127.936
1393.16	118.701
1393.43	114.589
1393.7	112.526
1393.97	107.395
1394.23	112.5
1394.5	114.535
1394.77	104.292
1395.04	109.4
1395.31	97.1286
1395.58	105.329
1395.85	89.9848
1396.12	104.317
1396.39	98.1682
1396.66	100.203
1396.93	94.0471
1397.2	90.9614
1397.46	96.0558
1397.73	89.8967
1398	105.227
1398.27	93.9711
1398.54	93.9741
1398.81	86.8208
1399.08	98.0775
1399.35	96.033
1399.62	85.813
1399.89	92.9831
1400.16	85.824
1400.42	89.9137
1400.69	96.0651
1400.96	90.9668
1401.23	89.9503
1401.5	87.8953
1401.77	96.0957
1402.04	88.9226
1402.31	81.7786
1402.58	87.973
1402.84	89.0505
1403.11	96.2703
1403.38	96.2983
1403.65	91.1768
1403.92	97.3342
1404.19	88.0724
1404.46	90.0698
1404.73	91.106
1404.99	86.9906
1405.26	88.0023
1405.53	98.2394
1405.8	104.37
1406.07	101.272
1406.34	100.227
1406.61	110.463
1406.87	102.251
1407.14	113.527
1407.41	125.833
1407.68	143.268
1407.95	149.425
1408.22	177.113
1408.49	193.526
1408.76	219.169
1409.02	249.947
1409.29	270.479
1409.56	304.346
1409.83	274.62
1410.1	232.575
1410.37	189.488
1410.63	155.602
1410.9	137.099
1411.17	113.477
1411.44	106.273
1411.71	100.103
1411.98	102.135
1412.25	87.7857
1412.51	84.7212
1412.78	87.8175
1413.05	87.8706
1413.32	87.9751
1413.59	75.698
1413.86	79.7412
1414.12	79.6296
1414.39	84.772
1414.66	80.7221
1414.93	77.6775
1415.2	78.6954
1415.47	75.615
1415.73	75.612
1416	81.7712
1416.27	71.5068
1416.54	75.6178
1416.81	75.6221
1417.07	76.654
1417.34	75.6328
1417.61	76.6661
1417.88	74.6163
1418.15	70.5072
1418.42	65.3674
1418.68	69.4773
1418.95	74.6157
1419.22	75.6411
1419.49	65.3621
1419.76	65.3515
1420.02	77.6646
1420.29	69.4274
1420.56	67.3565
1420.83	67.3389
1421.1	74.5068
1421.36	73.4628
1421.63	70.3735
1421.9	67.2951
1422.17	68.3371
1422.44	66.3034
1422.7	72.4877
1422.97	79.7204
1423.24	74.6434
1423.51	65.4405
1423.77	70.4132
1424.04	74.3581
1424.31	78.4775
1424.58	74.2981
1424.85	72.2463
1425.11	76.3638
1425.38	75.3896
1425.65	75.3964
1425.92	84.6119
1426.19	70.2762
1426.45	65.1384
1426.72	68.2
1426.99	73.3053
1427.26	66.1053
1427.52	67.1067
1427.79	68.0993
1428.06	70.1209
1428.33	66.0101
1428.59	64.9785
1428.86	73.1672
1429.13	66.0006
1429.4	70.0992
1429.67	67.0318
1429.93	69.0879
1430.2	68.0754
1430.47	70.1406
1430.74	65.0275
1431	72.2224
1431.27	70.2003
1431.54	64.0649
1431.81	63.0467
1432.07	65.0963
1432.34	68.1591
1432.61	69.165
1432.87	62.996
1433.14	60.9216
1433.41	67.0452
1433.68	65.9876
1433.95	64.9328
1434.21	61.8407
1434.48	58.7589
1434.75	62.8819
1435.01	65.9663
1435.28	59.8175
1435.55	68.0124
1435.82	65.958
1436.08	61.8528
1436.35	64.9192
1436.62	62.8621
1436.89	61.8282
1437.15	62.8429
1437.42	63.8582
1437.69	58.7316
1437.95	59.7455
1438.22	67.9319
1438.49	67.9321
1438.76	64.8666
1439.02	66.9184
1439.29	65.8928
1439.56	62.8195
1439.82	66.9251
1440.09	62.8379
1440.36	58.7521
1440.63	61.8325
1440.89	56.7059
1441.16	64.9071
1441.43	60.8055
1441.69	60.7973
1441.96	56.6822
1442.23	63.85
1442.49	59.7587
1442.76	61.8078
1443.03	61.8174
1443.3	58.7292
1443.56	59.7406
1443.83	63.8292
1444.1	55.6181
1444.36	62.7882
1444.63	61.7637
1444.9	57.6771
1445.16	62.817
1445.43	54.6263
1445.7	63.8518
1445.97	57.6869
1446.23	60.7557
1446.5	61.7727
1446.77	59.7131
1447.03	60.7304
1447.3	58.671
1447.57	58.6614
1447.83	61.726
1448.1	54.5399
1448.37	55.5612
1448.63	59.6694
1448.9	58.6545
1449.17	58.6549
1449.43	53.5223
1449.7	58.642
1449.97	53.5033
1450.23	57.5918
1450.5	57.5784
1450.77	64.7452
1451.03	48.3369
1451.3	60.6281
1451.57	58.5696
1451.83	59.5847
1452.1	59.5752
1452.37	58.5424
1452.63	63.6589
1452.9	57.5092
1453.17	55.4595
1453.43	57.5122
1453.7	60.589
1453.97	54.4371
1454.23	58.5287
1454.5	56.4724
1454.77	59.5431
1455.03	53.3914
1455.3	58.5098
1455.56	52.3545
1455.83	58.5001
1456.1	57.4825
1456.36	57.4848
1456.63	54.4064
1456.9	57.4727
1457.16	58.4837
1457.43	61.544
1457.7	66.658
1457.96	46.1619
1458.23	57.4245
1458.49	63.5677
1458.76	51.2729
1459.03	66.6396
1459.29	56.3942
1459.56	58.4419
1459.82	56.3906
1460.09	63.5568
1460.36	59.4511
1460.62	60.4675
1460.89	61.4831
1461.16	56.3515
1461.42	59.4126
1461.69	52.2331
1461.95	58.3647
1462.22	54.2562
1462.49	57.3127
1462.75	60.367
1463.02	61.3728
1463.28	56.2402
1463.55	57.2451
1463.82	56.2064
1464.08	54.1561
1464.35	55.1931
1464.61	59.3092
1464.88	56.2574
1465.15	64.4739
1465.41	64.4187
1465.68	61.2285
1465.94	58.1107
1466.21	52.9987
1466.48	51.9917
1466.74	46.8794
1467.01	60.1173
1467.27	62.1456
1467.54	61.1281
1467.8	52.9591
1468.07	54.9917
1468.34	58.0458
1468.6	58.0412
1468.87	63.1364
1469.13	48.8493
1469.4	52.9201
1469.67	60.048
1469.93	60.0324
1470.2	53.8979
1470.46	58.9793
1470.73	53.8721
1470.99	59.9753
1471.26	53.8541
1471.53	59.9549
1471.79	56.8834
1472.06	62.9818
1472.32	60.9369
1472.59	56.8578
1472.85	58.8891
1473.12	60.92
1473.39	45.6397
1473.65	52.7548
1473.92	52.7429
1474.18	56.8034
1474.45	55.7779
1474.71	61.88
1474.98	58.8291
1475.24	56.794
1475.51	56.7912
1475.78	52.7145
1476.04	56.7767
1476.31	53.7123
1476.57	54.7206
1476.84	43.5205
1477.1	53.6818
1477.37	55.7031
1477.63	59.7625
1477.9	58.7397
1478.16	53.6498
1478.43	46.5219
1478.69	53.6249
1478.96	57.679
1479.22	57.6663
1479.49	48.5068
1479.76	47.4774
1480.02	52.5417
1480.29	53.5418
1480.55	51.4875
1480.82	55.5277
1481.08	52.4683
1481.35	59.562
1481.61	55.4898
1481.88	47.3752
1482.14	60.571
1482.41	60.579
1482.67	57.5432
1482.94	54.5033
1483.2	55.5148
1483.47	48.4106
1483.73	51.4568
1484	55.5152
1484.26	50.4324
1484.53	58.5273
1484.79	53.4169
1485.06	59.4331
1485.32	53.2724
1485.59	53.2413
1485.85	51.1724
1486.12	58.3869
1486.38	54.3472
1486.65	55.3792
1486.91	55.3134
1487.18	59.3927
1487.44	52.3048
1487.71	57.3502
1487.97	52.2683
1488.24	57.3205
1488.5	53.2567
1488.77	49.1912
1489.03	56.2596
1489.3	60.2926
1489.56	59.2701
1489.83	57.2376
1490.09	52.1714
1490.36	56.214
1490.62	52.1629
1490.89	60.2448
1491.15	54.1604
1491.42	52.1232
1491.68	55.1474
1491.95	56.1521
1492.21	51.0932
1492.48	55.1362
1492.74	58.1636
1493	48.0471
1493.27	56.1291
1493.53	58.1472
1493.8	63.1935
1494.06	54.0899
1494.33	52.0653
1494.59	61.1635
1494.86	58.1323
1495.12	56.1044
1495.39	54.0695
1495.65	48.9965
1495.92	57.0551
1496.18	51.9847
1496.45	51.9708
1496.71	59.0264
1496.97	55.9867
1497.24	53.9564
1497.5	52.9429
1497.77	60.0036
1498.03	54.9503
1498.3	54.9452
1498.56	54.9421
1498.82	47.8751
1499.09	47.8731
1499.35	52.9182
1499.62	48.8808
1499.88	51.9101
1500.15	52.9208
1500.41	51.9095
1500.68	58.9725
1500.94	54.9285
1501.2	53.9135
1501.47	52.8943
1501.73	54.8981
1502	55.9
1502.26	57.9128
1502.52	57.9067
1502.79	52.8522
1503.05	54.8541
1503.32	58.8733
1503.58	53.8199
1503.85	51.7893
1504.11	59.8518
1504.37	48.7618
1504.64	59.8534
1504.9	50.7741
1505.17	53.7932
1505.43	56.8085
1505.7	56.7956
1505.96	58.7907
1506.22	53.7273
1506.49	51.7047
1506.75	51.6993
1507.02	56.7354
1507.28	53.7176
1507.54	50.6932
1507.81	48.6766
1508.07	53.7109
1508.34	53.7033
1508.6	54.7041
1508.86	51.6788
1509.13	54.7001
1509.39	54.6973
1509.66	54.6927
1509.92	54.6888
1510.18	52.6761
1510.45	49.6527
1510.71	53.6693
1510.98	63.7288
1511.24	54.6447
1511.5	50.5971
1511.77	59.6302
1512.03	56.5754
1512.29	58.5512
1512.56	50.4769
1512.82	51.4549
1513.08	59.4715
1513.35	52.4247
1513.61	51.4062
1513.88	52.4019
1514.14	57.4316
1514.4	54.4383
1514.67	58.4585
1514.93	56.4389
1515.2	58.4299
1515.46	54.3939
1515.72	50.3606
1515.99	57.3643
1516.25	56.3392
1516.51	53.3142
1516.78	56.3133
1517.04	54.2994
1517.3	53.2892
1517.57	51.2788
1517.83	56.2893
1518.09	55.2872
1518.36	55.2943
1518.62	55.2939
1518.88	55.2944
1519.15	56.2973
1519.41	54.2926
1519.67	55.2968
1519.94	49.2762
1520.2	51.2779
1520.47	58.2916
1520.73	51.2617
1520.99	54.2708
1521.26	55.2761
1521.52	56.2812
1521.78	52.266
1522.05	50.2533
1522.31	56.2645
1522.57	49.2319
1522.84	51.228
1523.1	47.2068
1523.36	52.2086
1523.62	45.1706
1523.89	59.1769
1524.15	52.1436
1524.41	49.1232
1524.68	55.119
1524.94	45.0929
1525.2	58.1134
1525.47	53.1053
1525.73	57.1098
1525.99	57.1151
1526.26	50.1099
1526.52	46.1122
1526.78	57.1443
1527.05	57.1455
1527.31	51.1262
1527.57	57.1281
1527.84	50.1053
1528.1	57.1117
1528.36	55.099
1528.63	52.0826
1528.89	53.0747
1529.15	57.0726
1529.41	54.061
1529.68	58.0628
1529.94	44.033
1530.2	59.0428
1530.47	51.0254
1530.73	53.0297
1530.99	53.0377
1531.25	56.0513
1531.52	57.0589
1531.78	49.0402
1532.04	47.029
1532.31	56.0449
1532.57	55.0313
1532.83	55.0347
1533.09	58.0535
1533.36	51.0537
1533.62	56.082
1533.88	53.0776
1534.15	53.0785
1534.41	58.0901
1534.67	53.0675
1534.94	52.0563
1535.2	57.0613
1535.46	47.0239
1535.72	59.0422
1535.99	50.9899
1536.25	53.9751
1536.51	52.9567
1536.77	54.936
1537.04	51.9075
1537.3	57.8891
1537.56	55.8758
1537.82	54.8581
1538.09	51.8543
1538.35	50.8391
1538.61	54.8172
1538.87	45.8108
1539.14	55.7977
1539.4	54.8106
1539.66	52.8398
1539.92	57.8833
1540.19	54.9061
1540.45	55.9294
1540.71	54.9495
1540.97	53.9593
1541.24	49.9508
1541.5	55.9393
1541.76	56.9351
1542.02	56.9148
1542.29	58.8997
1542.55	53.872
1542.81	51.8511
1543.07	57.8413
1543.34	56.8227
1543.6	51.8006
1543.86	54.7798
1544.12	51.756
1544.39	59.7555
1544.65	51.7546
1544.91	57.7647
1545.17	54.7778
1545.43	52.7853
1545.7	50.8019
1545.96	48.8072
1546.22	54.8201
1546.48	53.8212
1546.74	59.8241
1547.01	48.8046
1547.27	49.8088
1547.53	53.8195
1547.79	59.8343
1548.06	46.7927
1548.32	54.7731
1548.58	63.7812
1548.84	51.7646
1549.1	49.7741
1549.37	57.7266
1549.63	53.6599
1549.89	51.6444
1550.15	52.6721
1550.42	51.7267
1550.68	55.8182
1550.94	49.8583
1551.2	55.9355
1551.46	51.8752
1551.73	50.873
1551.99	57.8855
1552.25	52.8444
1552.51	57.8865
1552.77	63.935
1553.03	48.8577
1553.3	58.879
1553.56	56.8227
1553.82	56.8093
1554.08	51.7851
1554.34	51.7701
1554.61	59.771
1554.87	61.7504
1555.13	61.7233
1555.39	55.7005
1555.65	59.6997
1555.91	53.6854
1556.18	58.6943
1556.44	53.6823
1556.7	60.6812
1556.96	55.67
1557.22	60.6789
1557.48	61.6807
1557.75	60.6764
1558.01	58.6656
1558.27	53.6426
1558.53	54.6218
1558.79	53.6023
1559.06	57.5816
1559.32	57.559
1559.58	51.5381
1559.84	57.5215
1560.1	51.5086
1560.36	51.497
1560.63	56.4847
1560.89	54.4773
1561.15	49.4734
1561.41	58.4631
1561.67	60.4626
1561.93	55.4729
1562.19	50.4864
1562.46	53.4995
1562.72	54.4965
1562.98	61.4907
1563.24	48.4813
1563.5	56.4807
1563.76	53.4711
1564.02	58.4635
1564.29	46.4788
1564.55	53.4994
1564.81	53.5029
1565.07	61.5009
1565.33	57.4594
1565.59	57.347
1565.85	60.1816
1566.11	60.0961
1566.38	49.3714
1566.64	46.4326
1566.9	56.3979
1567.16	55.3551
1567.42	51.4015
1567.68	58.4514
1567.94	56.4324
1568.2	52.3875
1568.47	55.3899
1568.73	54.3947
1568.99	58.395
1569.25	48.3866
1569.51	49.3628
1569.77	56.3425
1570.03	56.3393
1570.29	59.3385
1570.55	51.3411
1570.82	58.334
1571.08	57.3297
1571.34	54.3251
1571.6	48.3205
1571.86	59.2986
1572.12	48.2952
1572.38	48.2898
1572.64	52.2745
1572.9	56.254
1573.17	57.2398
1573.43	55.2307
1573.69	57.2134
1573.95	48.2189
1574.21	57.1985
1574.47	50.2186
1574.73	48.2306
1574.99	55.2302
1575.25	55.2416
1575.51	59.2489
1575.78	55.2595
1576.04	55.2586
1576.3	52.2526
1576.56	56.245
1576.82	55.2352
1577.08	47.2216
1577.34	47.1979
1577.6	53.1642
1577.86	60.1249
1578.12	49.1283
1578.38	56.0888
1578.64	53.0828
1578.9	55.0694
1579.17	54.0682
1579.43	57.0547
1579.69	58.0484
1579.95	50.0724
1580.21	49.0795
1580.47	58.0545
1580.73	55.0602
1580.99	50.0681
1581.25	49.061
1581.51	52.0394
1581.77	60.9992
1582.03	54.0061
1582.29	53.9898
1582.55	55.9743
1582.81	57.9587
1583.07	48.9847
1583.33	45.9895
1583.59	60.9252
1583.85	53.9474
1584.11	54.9337
1584.38	50.9461
1584.64	56.9233
1584.9	55.9276
1585.16	46.9611
1585.42	56.918
1585.68	58.9029
1585.94	54.9134
1586.2	53.908
1586.46	54.8862
1586.72	59.8451
1586.98	50.8721
1587.24	57.827
1587.5	54.8314
1587.76	53.8275
1588.02	58.7954
1588.28	56.8022
1588.54	55.8085
1588.8	57.8019
1589.06	50.8405
1589.32	64.7789
1589.58	57.8154
1589.84	56.8219
1590.1	53.8334
1590.36	53.8294
1590.62	58.8089
1590.88	57.8168
1591.14	56.8229
1591.4	61.7968
1591.66	54.8214
1591.92	52.822
1592.18	57.7908
1592.44	62.7504
1592.7	54.7638
1592.96	57.7309
1593.22	53.7383
1593.48	52.7187
1593.74	54.6801
1594	55.6452
1594.26	63.5729
1594.52	59.5869
1594.78	59.5831
1595.04	57.6002
1595.3	57.6091
1595.56	56.62
1595.82	48.6667
1596.08	59.5642
1596.34	52.6065
1596.6	56.5755
1596.86	58.5587
1597.12	47.6314
1597.38	61.5379
1597.64	53.5927
1597.9	57.5679
1598.16	58.556
1598.42	54.5727
1598.68	57.5378
1598.94	57.5171
1599.2	55.5127
1599.46	56.4901
1599.72	56.4759
1599.98	58.446
1600.24	54.4634
1600.5	60.401
1600.76	53.4429
1601.02	54.4161
1601.28	58.3583
1601.54	48.4257
1601.8	55.3378
1602.06	60.2687
1602.32	54.3113
1602.58	54.296
1602.84	56.2586
1603.1	53.2719
1603.36	63.1465
1603.62	60.1631
1603.88	57.1846
1604.14	59.1531
1604.4	55.1929
1604.66	59.145
1604.92	61.1206
1605.17	54.1961
1605.43	52.2161
1605.69	54.1921
1605.95	59.1377
1606.21	62.1084
1606.47	54.2002
1606.73	55.1934
1606.99	56.1853
1607.25	54.2341
1607.51	56.1963
1607.77	61.0512
1608.03	55.1921
1608.29	55.982
1608.55	54.1634
1608.81	57.9846
1609.07	57.0841
1609.32	61.6427
1609.58	59.7579
1609.84	61.7102
1610.1	60.1356
1610.36	55.8841
1610.62	57.1835
1610.88	54.2501
1611.14	49.9678
1611.4	54.7637
1611.66	58.4303
1611.92	64.3497
1612.18	57.8142
1612.44	50.9737
1612.69	52.6422
1612.95	55.5586
1613.21	55.4253
1613.47	57.1568
1613.73	58.7885
1613.99	55.3126
1614.25	54.3308
1614.51	52.5248
1614.77	55.8575
1615.03	57.1438
1615.29	56.8489
1615.54	59.6946
1615.8	60.689
1616.06	56.9915
1616.32	56.824
1616.58	53.4448
1616.84	55.9921
1617.1	55.2127
1617.36	57.2417
1617.62	54.9684
1617.88	57.7281
1618.13	57.8286
1618.39	62.17
1618.65	56.6958
1618.91	57.6118
1619.17	58.5008
1619.43	56.3123
1619.69	59.2727
1619.95	55.2519
1620.2	52.7295
1620.46	56.0566
1620.72	56.6752
1620.98	58.2965
1621.24	57.7722
1621.5	60.8248
1621.76	58.591
1622.02	57.8197
1622.27	57.0938
1622.53	58.1288
1622.79	53.0818
1623.05	54.8259
1623.31	58.0478
1623.57	57.0505
1623.83	56.8131
1624.09	59.3209
1624.34	57.8098
1624.6	56.482
1624.86	57.2606
1625.12	54.8262
1625.38	55.6533
1625.64	54.9616
1625.9	56.2081
1626.15	56.9316
1626.41	58.7057
1626.67	59.3632
1626.93	56.85
1627.19	58.7985
1627.45	58.4749
1627.7	55.9504
1627.96	56.1981
1628.22	58.4609
1628.48	60.0451
1628.74	59.3953
1629	60.0604
1629.26	57.5605
1629.51	56.7956
1629.77	54.8711
1630.03	56.8181
1630.29	59.4383
1630.55	59.8687
1630.81	60.1094
1631.06	60.0944
1631.32	51.4315
1631.53	47.5315
1631.79	58.3719
1632.05	62.3206
1632.31	62.3278
1632.57	60.3505
1632.84	66.2781
1633.1	59.4037
1633.36	61.3516
1633.62	58.3614
1633.88	59.3371
1634.14	58.3565
1634.4	59.3479
1634.66	58.362
1634.93	61.3173
1635.19	62.2989
1635.45	55.3937
1635.71	50.4592
1635.97	59.3216
1636.23	56.3562
1636.49	60.2874
1636.75	60.2768
1637.02	59.2806
1637.28	63.2076
1637.54	57.2849
1637.8	62.1996
1638.06	53.3329
1638.32	60.2165
1638.58	57.2539
1638.84	58.2308
1639.1	62.1655
1639.37	60.1938
1639.63	57.2369
1639.89	52.3115
1640.15	60.182
1640.41	57.2238
1640.67	58.2065
1640.93	57.2295
1641.19	60.1877
1641.46	60.1868
1641.72	54.2716
1641.98	63.1234
1642.24	60.1624
1642.5	51.2962
1642.76	62.119
1643.02	54.2383
1643.28	58.1705
1643.54	56.1973
1643.8	54.224
1644.06	53.2322
1644.33	55.1914
1644.59	54.1958
1644.85	55.1694
1645.11	59.0995
1645.37	62.0522
1645.63	55.1691
1645.89	62.0584
1646.15	57.1355
1646.41	59.0947
1646.67	56.1328
1646.93	58.0914
1647.19	58.0844
1647.46	62.9934
1647.72	59.0493
1647.98	57.0739
1648.24	60.0197
1648.5	54.118
1648.76	53.1402
1649.02	63.969
1649.28	58.0911
1649.54	62.0371
1649.8	55.1363
1650.06	56.1113
1650.32	58.0763
1650.58	55.1359
1650.85	60.0699
1651.11	58.1074
1651.37	60.0855
1651.63	59.1044
1651.89	59.1044
1652.15	63.0432
1652.41	55.1564
1652.67	63.0394
1652.93	54.1613
1653.19	56.1222
1653.45	54.1455
1653.71	63.9948
1653.97	59.068
1654.23	55.1289
1654.49	55.1291
1654.75	59.0701
1655.01	59.0708
1655.27	53.1605
1655.53	56.1254
1655.8	55.1518
1656.06	61.0872
1656.32	61.0983
1656.57	60.1174
1656.84	57.1581
1657.1	63.0803
1657.36	57.1526
1657.62	59.1186
1657.88	54.1744
1658.14	59.1019
1658.4	64.0282
1658.66	53.1647
1658.92	61.0465
1659.18	56.1025
1659.44	53.1323
1659.7	55.0936
1659.96	57.0542
1660.22	54.0816
1660.48	60.9835
1660.74	53.1002
1661	56.0633
1661.26	59.0287
1661.52	54.1037
1661.78	60.0315
1662.04	59.0465
1662.3	61.0214
1662.56	57.0199
1662.82	59.0974
1663.08	59.1542
1663.34	62.0842
1663.6	55.1562
1663.86	60.0793
1664.12	55.0256
1664.38	56.0658
1664.64	58.0505
1664.9	59.0396
1665.16	56.1015
1665.42	60.0616
1665.68	59.008
1665.94	57.9649
1666.2	60.0844
1666.46	62.0715
1666.72	57.1181
1666.98	59.999
1667.24	56.861
1667.5	58.0084
1667.76	57.9928
1668.02	57.9801
1668.28	61.9179
1668.54	61.9045
1668.8	55.9831
1669.06	60.9397
1669.32	55.0445
1669.58	56.0348
1669.84	57.0205
1670.1	56.0315
1670.36	55.0348
1670.62	59.97
1670.88	61.9736
1671.14	55.0707
1671.4	61.9811
1671.66	54.066
1671.92	57.0254
1672.18	56.0362
1672.44	57.0261
1672.69	54.0591
1672.95	55.0441
1673.21	58.9946
1673.47	54.0502
1673.73	56.0263
1673.99	60.9701
1674.25	56.0292
1674.51	57.0223
1674.77	53.0697
1675.03	59.0082
1675.29	56.0477
1675.55	57.0424
1675.81	59.0232
1676.07	59.0207
1676.33	60.0062
1676.59	55.0566
1676.85	55.0561
1677.11	58.0235
1677.37	46.1425
1677.63	52.0747
1677.89	57.0148
1678.14	56.0141
1678.4	56.9895
1678.66	55.985
1678.92	50.0386
1679.18	56.9496
1679.44	56.9395
1679.7	57.92
1679.96	53.9572
1680.22	55.9251
1680.48	56.9059
1680.74	56.8969
1681	54.9117
1681.26	50.9517
1681.52	58.8494
1681.78	54.8934
1682.03	56.8653
1682.29	49.9466
1682.55	56.8591
1682.81	56.8569
1683.07	53.8876
1683.33	54.8706
1683.59	58.8181
1683.85	52.8874
1684.11	55.8461
1684.37	53.8637
1684.63	57.8029
1684.89	59.7699
1685.14	49.8884
1685.4	52.8459
1685.66	56.7913
1685.92	53.8253
1686.18	52.8349
1686.44	51.8452
1686.7	48.8833
1686.96	58.7674
1687.22	45.9275
1687.48	61.7317
1687.73	55.7967
1687.99	52.8238
1688.25	55.7774
1688.51	51.8188
1688.77	59.7092
1689.03	52.7864
1689.29	56.7203
1689.55	53.7469
1689.81	50.7741
1690.06	57.6667
1690.32	48.7739
1690.58	60.6024
1690.84	48.7751
1691.1	56.6707
1691.36	55.6856
1691.62	58.6454
1691.88	56.6744
1692.13	48.7804
1692.39	52.7249
1692.65	54.6924
1692.91	55.668
1693.17	57.6273
1693.43	53.6658
1693.69	56.6065
1693.95	51.6576
1694.2	55.5864
1694.46	58.5285
1694.72	57.528
1694.98	49.6361
1695.24	47.6619
1695.5	56.527
1695.76	55.5416
1696.01	52.5858
1696.27	51.6007
1696.53	54.5605
1696.79	47.6635
1697.05	50.6163
1697.31	51.5936
1697.57	55.5218
1697.82	47.6247
1698.08	50.5632
1698.34	52.5184
1698.6	55.4591
1698.86	51.5101
1699.12	50.5158
1699.38	49.5249
1699.63	48.5363
1699.89	48.5355
1700.15	46.5645
1700.41	55.4181
1700.67	56.3886
1700.92	51.4637
1701.18	50.4743
1701.44	49.4844
1701.7	48.493
1701.96	57.3331
1702.22	53.3855
1702.47	51.4066
1702.73	48.4445
1702.99	51.3806
1703.25	53.3396
1703.51	52.3521
1703.77	52.3453
1704.02	48.4071
1704.28	55.2778
1704.54	47.4193
1704.8	51.3526
1705.06	51.3507
1705.32	49.3797
1705.57	54.2861
1705.83	47.4047
1706.09	48.3838
1706.35	50.3379
1706.61	52.2884
1706.86	56.2008
1707.12	50.2933
1707.38	52.2407
1707.64	48.3011
1707.9	54.1711
1708.16	50.2281
1708.41	49.2288
1708.67	51.1703
1708.93	50.1689
1709.19	50.1496
1709.44	56.9891
1709.7	53.0613
1709.96	47.1805
1710.22	48.1553
1710.48	52.0686
1710.73	55.9827
1710.99	54.0257
1711.25	48.1549
1711.51	48.1559
1711.77	55.9919
1712.02	49.1362
1712.28	50.113
1712.54	55.0011
1712.8	55.9617
1713.06	53.9783
1713.31	53.9521
1713.57	48.0603
1713.83	52.9276
1714.09	50.9503
1714.34	49.9607
1714.6	49.9511
1714.86	52.8734
1715.12	54.8204
1715.38	53.8393
1715.63	54.8218
1715.89	51.899
1716.15	51.8952
1716.41	49.9335
1716.66	49.9231
1716.92	52.8392
1717.18	48.9156
1717.44	49.8714
1717.69	49.8474
1717.95	52.7451
1718.21	49.795
1718.47	52.6959
1718.72	50.7274
1718.98	53.6343
1719.24	55.5717
1719.5	47.778
1719.75	48.7477
1720.01	49.7151
1720.27	56.5308
1720.53	52.6349
1720.78	53.6
1721.04	52.6136
1721.3	46.7572
1721.56	47.717
1721.81	52.568
1722.07	50.6078
1722.33	45.7306
1722.59	48.6317
1722.84	56.3905
1723.1	56.3739
1723.36	56.3585
1723.62	44.6915
1723.87	52.4515
1724.13	54.3896
1724.39	46.6139
1724.64	50.4918
1724.9	44.6557
1725.16	50.4638
1725.42	49.4708
1725.67	48.4804
1725.93	48.4589
1726.19	53.2897
1726.45	44.5585
1726.7	55.2186
1726.96	54.2421
1727.22	51.324
1727.47	51.3027
1727.73	45.4867
1727.99	48.4003
1728.24	50.3312
1728.5	50.3195
1728.76	47.3928
1729.02	52.1594
1729.27	48.2157
1729.53	48.1856
1729.79	47.2439
1730.05	51.128
1730.3	49.2118
1730.56	47.2476
1730.82	55.9198
1731.07	49.1542
1731.33	52.1044
1731.59	48.2387
1731.84	52.102
1732.1	54.0303
1732.36	51.1246
1732.61	48.2174
1732.87	52.0736
1733.13	56.8927
1733.39	53.014
1733.64	51.0636
1733.9	54.9009
1734.16	48.1216
1734.41	50.9972
1734.67	51.9422
1734.93	52.8862
1735.18	49.0117
1735.44	50.9194
1735.7	50.9018
1735.95	54.7389
1736.21	50.8769
1736.47	47.0188
1736.72	51.8227
1736.98	50.8502
1737.24	54.6886
1737.49	52.7533
1737.75	50.8191
1738.01	53.6946
1738.26	49.8356
1738.52	50.7832
1738.78	50.7692
1739.03	50.7553
1739.29	44.9754
1739.55	55.5244
1739.8	48.7797
1740.06	52.5934
1740.32	49.6901
1740.57	46.7914
1740.83	48.6908
1741.09	48.6756
1741.34	50.5777
1741.6	45.7736
1741.86	51.5074
1742.11	50.538
1742.37	53.4018
1742.63	46.6934
1742.88	50.5157
1743.14	53.3788
1743.4	49.5434
1743.65	51.453
1743.91	52.4016
1744.16	50.4738
1744.42	51.4185
1744.68	48.5379
1744.93	48.531
1745.19	47.571
1745.45	51.3945
1745.7	50.4346
1745.96	50.4286
1746.22	48.5062
1746.47	47.5371
1746.73	49.4333
1746.98	42.726
1747.24	49.4006
1747.5	51.2935
1747.75	46.504
1748.01	51.2632
1748.27	44.572
1748.52	45.5221
1748.78	50.2922
1749.03	50.2908
1749.29	55.0642
1749.55	48.3835
1749.8	48.3879
1750.06	47.4388
1750.32	49.3568
1750.57	48.4093
1750.83	46.5045
1751.08	48.4166
1751.34	49.3748
1751.6	48.4167
1751.85	52.2308
1752.11	50.3014
1752.36	50.2829
1752.62	52.1783
1752.88	49.2991
1753.13	51.1941
1753.39	45.4525
1753.64	49.2578
1753.9	47.3378
1754.15	45.419
1754.41	53.9896
1754.67	44.4388
1754.92	53.9628
1755.18	50.1388
1755.43	44.4107
1755.69	40.5895
1755.95	50.1083
1756.2	47.2363
1756.46	47.2214
1756.71	48.1577
1756.97	50.0427
1757.23	45.2656
1757.48	45.2492
1757.74	51.8987
1757.99	49.0358
1758.25	47.1332
1758.5	47.1437
1758.76	52.8538
1759.02	46.1909
1759.27	50.9459
1759.53	50.9433
1759.78	49.0392
1760.04	47.1318
1760.3	49.0281
1760.55	48.0691
1760.81	49.9639
1761.06	42.3447
1761.32	47.0902
1761.57	48.0284
1761.83	51.8195
1762.08	51.8099
1762.34	47.0497
1762.6	47.0445
1762.85	49.9012
1763.11	47.051
1763.36	47.9994
1763.62	46.0924
1763.87	52.7464
1764.13	46.0905
1764.38	48.945
1764.64	46.0981
1764.89	50.8697
1765.15	44.2123
1765.4	50.8778
1765.66	49.9272
1765.92	46.1192
1766.17	44.2134
1766.43	48.0185
1766.68	44.2054
1766.94	47.0545
1767.19	48.9517
1767.45	47.9957
1767.7	47.0366
1767.96	55.592
1768.21	43.2102
1768.47	47.9591
1768.73	51.757
1768.98	50.7987
1769.24	43.1674
1769.49	48.8425
1769.75	47.8643
1770	44.0464
1770.26	44.9939
1770.51	48.8003
1770.77	51.6593
1771.02	47.8567
1771.28	45.9565
1771.53	48.8167
1771.79	44.0771
1772.04	46.932
1772.3	46.9313
1772.55	48.8379
1772.81	48.8445
1773.06	47.8973
1773.32	51.7061
1773.57	49.8055
1773.83	46.952
1774.08	49.8088
1774.34	53.6173
1774.59	46.0009
1774.85	50.7601
1775.1	44.0984
1775.36	45.0509
1775.61	46.9605
1775.87	44.1197
1776.12	48.8937
1776.38	47.9434
1776.63	47.9419
1776.89	43.1699
1777.14	49.8334
1777.4	49.8215
1777.65	46.9541
1777.91	46.9424
1778.16	48.8359
1778.42	47.8712
1778.67	49.7637
1778.93	50.7019
1779.18	42.1191
1779.44	42.1041
1779.69	47.8021
1779.95	48.7494
1780.2	52.5666
1780.46	47.8085
1780.71	46.8569
1780.97	53.5208
1781.22	50.667
1781.47	47.8088
1781.73	44.9515
1781.98	44.0001
1782.24	45.9074
1782.49	49.7212
1782.75	49.7296
1783	40.2058
1783.26	48.7836
1783.51	44.9735
1783.77	44.0229
1784.02	47.8386
1784.28	45.9354
1784.53	51.6621
1784.79	48.8104
1785.04	44.9986
1785.29	49.7697
1785.55	52.6288
1785.8	47.8524
1786.06	50.706
1786.31	43.0663
1786.57	46.8793
1786.82	46.88
1787.08	48.7926
1787.33	47.8454
1787.58	45.9461
1787.84	45.9602
1788.09	48.8513
1788.35	48.8794
1788.6	47.9505
1788.86	44.1386
1789.11	46.0578
1789.37	47.9806
1789.62	47.0374
1789.87	47.0461
1790.13	42.2569
1790.38	50.8859
1790.64	49.9307
1790.89	45.1345
1791.15	52.7983
1791.4	48.9494
1791.65	44.127
1791.91	43.1621
1792.16	46.9852
1792.42	47.9402
1792.67	49.8544
1792.93	49.8539
1793.18	46.0254
1793.43	45.068
1793.69	49.8561
1793.94	45.0631
1794.2	47.9403
1794.45	45.0643
1794.7	51.7676
1794.96	52.7145
1795.21	46.0178
1795.47	45.0913
1795.72	49.9094
1795.97	48.9594
1796.23	47.0439
1796.48	47.0493
1796.74	43.2134
1796.99	47.0611
1797.25	45.1458
1797.5	48.034
1797.75	48.0385
1798.01	44.1965
1798.26	49.0052
1798.51	49.9681
1798.77	49.9678
1799.02	50.9266
1799.28	51.882
1799.53	45.1431
1799.78	48.9778
1800.04	46.0816
1800.29	45.109
1800.55	50.8639
1800.8	44.1299
1801.05	47.965
1801.31	47.9588
1801.56	48.9144
1801.81	44.1086
1802.07	47.9491
1802.32	46.9884
1802.58	46.9897
1802.83	48.9143
1803.08	47.9583
1803.34	50.8482
1803.59	44.126
1803.84	48.9385
1804.1	48.9398
1804.35	50.8627
1804.61	47.9804
1804.86	48.9482
1805.11	48.9541
1805.37	45.1119
1805.62	48.9708
1805.87	48.9796
1806.13	47.0606
1806.38	49.9558
1806.64	47.07
1806.89	51.8914
1807.14	49.9653
1807.4	46.1086
1807.65	48.0334
1807.9	47.0665
1808.16	47.0637
1808.41	41.2783
1808.66	48.0231
1808.92	50.913
1809.17	52.8395
1809.42	50.9103
1809.68	49.9448
1809.93	47.0515
1810.18	46.0861
1810.44	48.0127
1810.69	56.6874
1810.94	48.0042
1811.2	48.9626
1811.45	47.9945
1811.7	44.134
1811.96	44.13
1812.21	47.0194
1812.46	42.1979
1812.72	51.8414
1812.97	50.8811
1813.22	46.0643
1813.48	47.997
1813.73	44.1377
1813.98	49.93
1814.24	45.1124
1814.49	48.9828
1814.74	47.062
1815	46.1084
1815.25	42.2494
1815.5	51.9161
1815.76	46.1187
1816.01	47.0844
1816.26	49.9829
1816.52	52.882
1816.77	41.2825
1817.02	47.0826
1817.27	47.0765
1817.53	48.0329
1817.78	49.9392
1818.03	47.9875
1818.29	47.0207
1818.54	40.2639
1818.79	48.0017
1819.05	48.006
1819.3	48.0003
1819.55	46.0676
1819.8	49.9361
1820.06	42.2053
1820.31	47.0398
1820.56	48.9759
1820.82	48.0122
1821.07	46.08
1821.32	40.2776
1821.58	53.8232
1821.83	47.0558
1822.08	47.0593
1822.33	49.965
1822.59	49.9663
1822.84	44.1587
1823.09	45.1259
1823.34	48.0291
1823.6	48.0249
1823.85	47.0494
1824.1	47.0413
1824.36	45.101
1824.61	48.9731
1824.86	50.9104
1825.11	53.8159
1825.37	46.0722
1825.62	48.0106
1825.87	48.9792
1826.12	50.9138
1826.38	47.0365
1826.63	48.971
1826.88	46.0636
1827.14	47.9985
1827.39	47.0296
1827.64	47.0309
1827.89	47.0328
1828.15	47.0342
1828.4	48.969
1828.65	45.0882
1828.9	52.8307
1829.16	41.1961
1829.41	50.8744
1829.66	47.9636
1829.91	44.0844
1830.17	43.11
1830.42	44.0699
1830.67	55.6802
1830.92	50.8303
1831.18	53.7316
1831.43	48.8931
1831.68	49.8649
1831.93	51.8056
1832.19	50.8403
1832.44	52.781
1832.69	51.8164
1832.94	50.8545
1833.2	47.9508
1833.45	51.8255
1833.7	45.0383
1833.95	46.0086
1834.2	50.8547
1834.46	49.8854
1834.71	48.8998
1834.96	45.9642
1835.21	45.938
1835.47	47.8489
1835.72	42.9936
1835.97	51.6839
1836.22	49.7453
1836.48	49.7304
1836.73	50.9016
1836.98	49.921
1837.23	49.8499
1837.48	44.9771
1837.74	49.7836
1837.99	43.942
1838.24	53.5619
1838.49	50.6268
1838.74	45.7865
1839	49.7317
1839.25	49.7649
1839.5	44.9361
1839.75	52.6911
1840	47.8494
1840.26	48.8275
1840.51	41.9996
1840.76	46.8056
1841.01	49.6758
1841.27	45.7802
1841.52	49.6201
1841.77	47.6627
1842.02	51.5017
1842.27	49.5492
1842.53	44.705
1842.78	46.6156
1843.03	45.6559
1843.28	52.3996
1843.53	48.5437
1843.78	48.5396
1844.04	45.6424
1844.29	46.5987
1844.54	51.4177
1844.79	47.5622
1845.04	48.5245
1845.3	48.513
1845.55	50.4407
1845.8	50.4378
1846.05	40.8059
1846.3	48.5438
1846.55	51.4572
1846.81	45.6917
1847.06	53.39
1847.31	45.5929
1847.56	47.4376
1847.81	42.6055
1848.07	48.3787
1848.32	50.3263
1848.57	50.3466
1848.82	56.0955
1849.07	51.263
1849.32	51.2613
1849.57	47.3971
1849.83	49.3047
1850.08	48.3237
1850.33	51.1913
1850.58	51.1685
1850.83	48.2664
1851.09	55.9375
1851.34	45.3543
1851.59	51.1053
1851.84	48.2133
1852.09	50.1255
1852.34	53.9607
1852.59	48.1954
1852.84	52.0331
1853.1	48.1887
1853.35	52.0247
1853.6	45.297
1853.85	48.1687
1854.1	45.2762
1854.35	51.9772
1854.6	52.916
1854.86	51.9384
1855.11	47.1325
1855.36	49.998
1855.61	45.1877
1855.86	48.0437
1856.11	48.0312
1856.36	47.0656
1856.61	48.0175
1856.87	52.8032
1857.12	47.0527
1857.37	48.9627
1857.62	49.9127
1857.87	47.0306
1858.12	51.8087
1858.37	47.9678
1858.63	49.8689
1858.88	54.6385
1859.13	53.6656
1859.38	51.7361
1859.63	49.8069
1859.88	52.6627
1860.13	51.7021
1860.38	49.7869
1860.63	49.7867
1860.89	53.618
1861.14	49.7984
1861.39	47.8893
1861.64	55.5493
1861.89	52.6842
1862.14	51.7267
1862.39	52.6776
1862.64	53.623
1862.9	49.7816
1863.15	51.679
1863.4	48.7947
1863.65	51.6477
1863.9	49.7216
1864.15	57.3527
1864.4	53.5172
1864.65	53.5043
1864.9	56.3563
1865.15	48.7025
1865.4	55.3686
1865.66	48.6683
1865.91	51.5104
1866.16	48.6262
1866.41	46.6957
1866.66	54.2944
1866.91	54.2679
1867.16	52.3375
1867.41	52.3123
1867.66	49.4351
1867.91	53.2209
1868.16	57.0113
1868.41	49.3958
1868.67	50.3396
1868.92	55.0904
1869.17	51.2872
1869.42	50.3326
1869.67	48.4253
1869.92	55.073
1870.17	51.2642
1870.42	56.9612
1870.67	52.2027
1870.92	51.2468
1871.17	55.9941
1871.42	51.238
1871.67	49.3302
1871.92	49.3211
1872.17	54.0594
1872.42	51.1996
1872.68	50.2412
1872.93	53.0775
1873.18	54.0125
1873.43	54.0017
1873.68	54.9452
1873.93	53.0389
1874.18	55.8752
1874.43	53.9633
1874.68	50.1528
1874.93	53.9307
1875.18	50.1203
1875.43	59.5827
1875.68	56.7192
1875.93	57.6426
1876.18	54.7662
1876.43	53.7958
1876.68	52.8295
1876.93	60.381
1877.18	54.6938
1877.43	52.7719
1877.68	48.9568
1877.93	58.3336
1878.18	54.6006
1878.44	53.8514
1878.69	53.7716
1878.93	51.8513
1879.19	54.6794
1879.44	59.4638
1879.69	58.541
1879.94	56.6252
1880.19	56.6043
1880.44	58.4917
1880.69	56.5909
1880.94	56.6005
1881.19	54.6907
1881.44	50.8978
1881.69	51.8191
1881.94	57.4647
1882.19	62.1588
1882.44	57.3973
1882.69	58.3044
1882.94	55.4287
1883.19	52.5791
1883.44	57.2501
1883.69	60.4805
1883.94	55.4864
1884.19	59.105
1884.44	53.4516
1884.69	57.2527
1884.94	57.2183
1885.19	58.1798
1885.44	57.2637
1885.69	58.2122
1885.94	54.442
1886.19	62.9628
1886.44	58.2529
1886.69	59.2034
1886.94	56.3608
1887.19	60.1093
1887.44	54.4296
1887.69	49.6955
1887.94	58.1696
1888.19	56.2649
1888.44	56.2453
1888.69	57.1618
1888.94	62.7909
1889.19	56.1744
1889.44	59.9195
1889.69	60.8472
1889.94	54.2522
1890.19	58.0115
1890.44	54.2481
1890.69	58.0238
1890.94	59.9179
1891.19	56.1512
1891.43	54.262
1891.68	53.3118
1891.94	56.1328
1892.18	58.0091
1892.43	63.6526
1892.68	52.3473
1892.93	53.2777
1893.18	55.1457
1893.43	54.1812
1893.68	56.9683
1893.93	57.8765
1894.18	64.4451
1894.43	56.9322
1894.68	59.7268
1894.93	52.1964
1895.18	57.8256
1895.43	57.824
1895.68	55.946
1895.93	56.8882
1896.18	55.0122
1896.43	56.896
1896.68	59.7224
1896.93	56.9102
1897.18	55.0361
1897.42	62.5644
1897.68	59.7453
1897.92	54.1008
1898.17	56.9193
1898.42	56.9124
1898.67	55.9618
1898.92	53.1274
1899.17	55.9321
1899.42	54.9742
1899.67	53.0808
1899.92	56.8301
1900.17	61.5168
1900.42	54.9299
1900.67	62.4394
1900.92	55.8625
1901.16	59.6229
1901.41	54.9316
1901.66	56.8197
1901.91	54.0077
1902.16	49.3146
1902.41	52.1446
1902.66	50.2715
1902.91	57.7942
1903.16	54.9641
1903.41	58.7169
1903.66	54.9448
1903.91	54.9366
1904.16	54.9296
1904.41	63.3855
1904.65	62.4401
1904.9	62.4345
1905.15	57.7273
1905.4	50.201
1905.65	54.8972
1905.9	56.7707
1906.15	58.6306
1906.4	55.7884
1906.65	59.5343
1906.9	57.6454
1907.14	54.8189
1907.39	56.6896
1907.64	51.0526
1907.89	53.8697
1908.14	49.1775
1908.39	51.0625
1908.64	52.9426
1908.89	55.761
1909.14	56.7034
1909.39	51.0705
1909.63	55.7778
1909.88	64.2512
1910.13	53.9218
1910.38	53.9368
1910.63	56.7765
1910.88	56.7912
1911.13	57.7428
1911.38	53.9814
1911.62	55.8675
1911.87	53.9826
1912.12	52.0949
1912.37	49.2622
1912.62	51.1391
1912.87	49.251
1913.12	55.8405
1913.37	53.0118
1913.61	53.0105
1913.86	47.3633
1914.11	52.0856
1914.36	50.214
1914.61	53.9941
1914.86	49.2871
1915.11	54.0111
1915.36	51.1884
1915.6	57.7978
1915.85	51.1925
1916.1	54.9625
1916.35	54.9545
1916.6	52.1177
1916.85	57.767
1917.1	57.7511
1917.34	52.0794
1917.59	55.8398
1917.84	56.7733
1918.09	56.7665
1918.34	52.051
1918.59	55.8267
1918.83	53.0069
1919.08	61.5085
1919.33	54.9187
1919.58	51.1577
1919.83	54.9538
1920.08	58.7493
1920.33	54.0332
1920.57	49.3078
1920.82	60.6365
1921.07	53.0783
1921.32	51.1987
1921.57	54.0456
1921.81	59.7241
1922.06	54.0553
1922.31	58.7858
1922.56	50.2707
1922.81	54.0462
1923.06	54.0344
1923.31	55.9139
1923.55	55.9051
1923.8	53.0614
1924.05	53.053
1924.3	53.042
1924.55	52.0841
1924.79	47.3504
1925.04	58.682
1925.29	58.6811
1925.54	55.851
1925.79	51.1343
1926.04	57.765
1926.28	54.9412
1926.53	54.0066
1926.78	52.1263
1927.03	56.8724
1927.28	49.3078
1927.52	59.7275
1927.77	55.9449
1928.02	53.1077
1928.27	51.2163
1928.52	56.9027
1928.76	56.9035
1929.01	55.0129
1929.26	56.9123
1929.51	54.075
1929.76	52.188
1930	51.2532
1930.25	52.212
1930.5	52.2251
1930.75	50.3367
1931	58.8916
1931.24	55.0952
1931.49	54.1441
1931.74	55.0859
1931.99	56.0246
1932.24	60.7593
1932.48	52.2061
1932.73	55.991
1932.98	54.0812
1933.23	53.1267
1933.47	57.859
1933.72	49.3217
1933.97	55.9756
1934.22	51.2534
1934.46	58.8848
1934.71	54.1809
1934.96	50.4186
1935.21	54.2636
1935.46	53.3416
1935.7	55.2723
1935.95	57.1958
1936.2	50.4814
1936.45	53.3321
1936.69	58.0904
1936.94	51.4093
1937.19	57.1112
1937.44	52.3313
1937.68	57.0782
1937.93	55.1584
1938.18	58.9524
1938.43	50.3713
1938.68	54.1744
1938.92	55.1425
1939.17	57.0504
1939.42	53.2469
1939.67	56.1103
1939.91	50.3989
1940.16	53.2625
1940.41	47.5446
1940.66	53.2716
1940.9	47.5621
1941.15	51.407
1941.4	58.1042
1941.64	56.1923
1941.89	55.2274
1942.14	55.2039
1942.39	55.1664
1942.63	49.4621
1942.88	48.5567
1943.13	53.3394
1943.38	53.3384
1943.62	54.2673
1943.87	50.4226
1944.12	49.4476
1944.37	55.2029
1944.61	52.3482
1944.86	48.5372
1945.11	54.2755
1945.35	54.2861
1945.6	57.1631
1945.85	51.4401
1946.1	46.6689
1946.34	50.4992
1946.59	52.4163
1946.84	57.201
1947.09	51.4627
1947.33	49.5455
1947.58	47.6251
1947.83	50.4854
1948.07	53.3496
1948.32	46.6523
1948.57	50.4734
1948.82	48.5537
1949.06	52.3776
1949.31	51.4277
1949.56	48.5656
1949.8	49.5297
1950.05	50.4965
1950.3	48.5924
1950.54	57.2296
1950.79	55.3372
1951.04	49.6034
1951.29	54.4144
1951.53	47.7196
1951.78	50.6141
1952.03	49.6668
1952.27	55.4345
1952.52	49.6783
1952.77	56.4064
1953.01	49.6781
1953.26	53.5266
1953.51	52.5766
1953.76	52.5582
1954	51.5741
1954.25	50.5769
1954.49	48.6261
1954.74	49.5547
1954.99	49.5279
1955.24	52.3912
1955.48	49.5122
1955.73	54.3054
1955.98	58.1507
1956.22	54.3384
1956.47	50.5371
1956.72	49.589
1956.96	49.6024
1957.21	47.6877
1957.46	52.4983
1957.7	46.7427
1957.95	52.5136
1958.2	51.5572
1958.44	46.7541
1958.69	43.8708
1958.94	48.676
1959.18	45.7852
1959.43	54.4211
1959.68	45.7646
1959.92	50.5636
1960.17	53.4343
1960.42	51.5011
1960.66	50.5294
1960.91	49.557
1961.16	47.6239
1961.4	46.6519
1961.65	51.4398
1961.9	47.5926
1962.14	49.5103
1962.39	47.5905
1962.63	45.6695
1962.88	49.5077
1963.13	48.5467
1963.37	50.4653
1963.62	57.1835
1963.87	52.3825
1964.11	47.5817
1964.36	54.3057
1964.61	46.6264
1964.85	52.3839
1965.1	52.3763
1965.35	48.5333
1965.59	53.329
1965.84	43.7249
1966.08	51.4086
1966.33	51.4157
1966.58	55.2673
1966.82	50.4722
1967.07	52.3993
1967.32	49.5193
1967.56	51.4369
1967.81	51.434
1968.05	51.4355
1968.3	51.4343
1968.55	45.6652
1968.79	50.4678
1969.04	53.3435
1969.29	50.4471
1969.53	49.47
1969.78	53.2927
1970.02	54.2321
1970.27	49.4141
1970.52	53.2394
1970.76	48.4298
1971.01	53.2154
1971.25	49.3661
1971.5	49.3569
1971.75	50.3078
1971.99	50.3004
1972.24	47.4233
1972.48	48.3841
1972.73	51.2616
1972.98	40.7048
1973.22	50.2905
1973.47	49.3193
1973.71	48.3457
1973.96	44.4982
1974.21	50.2403
1974.45	53.1081
1974.7	46.3932
1974.94	52.1412
1975.19	53.0984
1975.44	54.0583
1975.68	48.3098
1975.93	49.2732
1976.17	52.1538
1976.42	51.197
1976.66	48.3196
1976.91	53.1144
1977.16	54.0707
1977.4	49.2696
1977.65	49.2628
1977.89	47.3356
1978.14	44.4479
1978.39	52.107
1978.63	47.3031
1978.88	54.9627
1979.12	48.2465
1979.37	51.1185
1979.61	50.1584
1979.86	55.9065
1980.1	51.1128
1980.35	51.1104
1980.6	44.3925
1980.84	46.2975
1981.09	47.2442
1981.33	51.0689
1981.58	55.8478
1981.82	49.1332
1982.07	48.1686
1982.31	49.1212
1982.56	49.1159
1982.81	52.9348
1983.05	51.0074
1983.3	50.0344
1983.54	50.0158
1983.79	51.9144
1984.03	49.036
1984.28	50.942
1984.52	49.9771
1984.77	54.7502
1985.02	49.9606
1985.26	51.8608
1985.51	50.8875
1985.75	55.6564
1986	50.8744
1986.24	49.9186
1986.49	48.9665
1986.73	48.9718
1986.98	51.8415
1987.22	51.8361
1987.47	50.8806
1987.71	49.912
1987.96	45.1143
1988.21	48.9173
1988.45	46.9844
1988.7	50.7783
1988.94	49.812
1989.19	45.9918
1989.43	48.6916
1989.68	53.282
1989.92	47.0306
1990.17	55.1086
1990.41	50.3952
1990.66	50.3865
1990.9	49.2013
1991.15	49.0657
1991.39	45.3883
1991.64	45.811
1991.88	50.313
1992.13	48.763
1992.37	50.1439
1992.62	48.2601
1992.86	51.3003
1993.11	47.3844
1993.35	48.1759
1993.6	48.7531
1993.84	52.5814
1994.09	47.8345
1994.33	47.4275
1994.58	49.9017
1994.82	47.173
1995.07	52.4077
1995.31	49.0963
1995.56	49.3167
1995.8	45.9941
1996.05	52.8899
1996.29	48.3805
1996.54	47.4371
1996.78	48.5301
1997.03	50.8984
1997.27	46.858
1997.52	49.4116
1997.76	48.4866
1998.01	49.1669
1998.25	48.3789
1998.5	47.8546
1998.74	54.3837
1998.99	52.3721
1999.23	47.3831
1999.48	50.5692
1999.72	54.9008
1999.97	50.7981
2000.21	52.0026
2000.46	48.7185
2000.7	50.6967
2000.95	49.8981
2001.19	48.1894
2001.43	50.6437
2001.68	48.626
2001.92	48.1328
2002.17	51.4079
2002.41	52.3687
2002.66	48.566
2002.9	48.816
2003.15	51.0556
2003.39	55.8145
2003.64	51.9639
2003.88	49.3015
2004.13	49.0772
2004.37	49.2518
2004.61	48.2852
2004.86	48.8736
2005.1	47.2302
2005.35	47.7202
2005.59	50.4744
2005.84	50.5364
2006.08	54.0055
2006.33	53.556
2006.57	49.2783
2006.81	48.8619
2007.06	50.8924
2007.3	48.8387
2007.55	48.7527
2007.79	49.1488
2008.04	50.2926
2008.28	47.7836
2008.53	49.0213
2008.77	45.8066
2009.01	49.7599
2009.26	50.2745
2009.5	55.5984
2009.75	49.5464
2009.99	46.8989
2010.24	48.0921
2010.48	49.171
2010.73	54.7132
2010.97	50.1251
2011.21	49.7256
2011.46	48.2422
2011.7	56.17
2011.95	50.1657
2012.19	51.8839
2012.43	49.1906
2012.68	53.8937
2012.92	47.2979
2013.17	46.3459
2013.42	49.1522
2013.67	56.6515
2013.91	54.7539
2014.16	44.3939
2014.41	50.9503
2014.66	48.1059
2014.9	54.6529
2015.15	50.8911
2015.4	56.5233
2015.64	47.1436
2015.89	49.0282
2016.14	47.1551
2016.39	55.5984
2016.63	48.0989
2016.88	49.0724
2017.13	48.1386
2017.37	50.9542
2017.62	44.3677
2017.87	49.054
2018.11	49.0382
2018.36	50.8963
2018.61	49.9361
2018.86	52.7314
2019.1	50.836
2019.35	51.7524
2019.6	51.7329
2019.84	53.5958
2020.09	47.9671
2020.34	50.7723
2020.58	54.5167
2020.83	54.5131
2021.08	53.5735
2021.33	51.7023
2021.57	49.8312
2021.82	48.8938
2022.07	57.3201
2022.31	47.0121
2022.56	54.4957
2022.81	45.1223
2023.05	51.6624
2023.3	49.7757
2023.55	50.6997
2023.8	52.5583
2024.04	49.7407
2024.29	50.664
2024.54	52.5227
2024.78	57.1768
2025.03	47.8155
2025.27	55.269
2025.52	49.65
2025.77	50.5677
2026.02	47.7544
2026.26	51.4674
2026.51	54.2695
2026.76	50.5562
2027	53.3877
2027.25	46.8861
2027.5	51.6007
2027.74	54.4339
2027.99	49.7478
2028.23	50.6508
2028.48	47.8015
2028.73	49.5357
2028.98	49.6644
2029.22	54.53
2029.47	54.4214
2029.72	58.2165
2029.96	51.5712
2030.21	52.4487
2030.45	44.9269
2030.7	53.3178
2030.95	47.6823
2031.19	52.3785
2031.44	43.0762
2031.69	51.4663
2031.93	47.7334
2032.18	48.6669
2032.43	54.28
2032.67	49.6283
2032.92	52.4473
2033.17	55.2664
2033.41	49.672
2033.66	53.4203
2033.91	51.5647
2034.15	53.4414
2034.4	52.4783
2034.64	52.4424
2034.89	52.3887
2035.14	50.5086
2035.38	49.5955
2035.63	50.5448
2035.87	56.177
2036.12	51.5422
2036.37	50.6319
2036.61	56.2405
2036.86	49.6671
2037.11	52.472
2037.35	48.7433
2037.6	52.4821
2037.84	55.2836
2038.09	52.4725
2038.34	52.4651
2038.58	54.3261
2038.83	47.775
2039.08	49.6352
2039.32	52.4291
2039.57	54.2873
2039.81	50.5416
2040.06	50.5295
2040.31	51.4478
2040.55	51.4328
2040.8	48.6199
2041.04	51.4055
2041.29	53.259
2041.54	55.1135
2041.78	46.7177
2042.03	47.6461
2042.27	52.2991
2042.52	52.2919
2042.77	49.4848
2043.01	52.275
2043.26	50.4104
2043.5	46.6867
2043.75	51.3583
2044	48.5803
2044.24	52.3305
2044.49	49.5386
2044.73	53.2669
2044.98	50.4552
2045.23	46.7027
2045.47	54.1123
2045.72	47.6486
2045.96	56.0581
2046.21	50.5307
2046.45	54.3541
2046.7	52.4373
2046.95	57.9908
2047.19	51.414
2047.44	49.5483
2047.68	51.3991
2047.93	53.2224
2048.17	50.4137
2048.42	46.6859
2048.67	54.1454
2048.91	47.6216
2049.16	48.5579
2049.4	51.3674
2049.65	54.1759
2049.89	55.1235
2050.14	53.2755
2050.39	47.6862
2050.63	51.4348
2050.88	54.2445
2051.12	52.3778
2051.37	50.5051
2051.61	51.4281
2051.86	55.1471
2052.11	48.6096
2052.35	53.2784
2052.6	51.4177
2052.84	53.2869
2053.09	53.2922
2053.33	49.5629
2053.58	48.6373
2053.82	49.5834
2054.07	53.3461
2054.31	51.4845
2054.56	50.555
2054.8	46.8139
2055.05	51.4891
2055.3	56.1624
2055.54	57.0929
2055.79	46.7923
2056.03	51.4611
2056.28	50.5228
2056.52	57.0612
2056.77	45.8369
2057.01	54.2454
2057.26	50.5052
2057.5	53.311
2057.75	51.4445
2058	53.3198
2058.24	55.1971
2058.49	54.2693
2058.73	50.5397
2058.98	52.4215
2059.22	54.3033
2059.47	50.5665
2059.71	52.4409
2059.96	50.5705
2060.2	51.5069
2060.45	49.6273
2060.69	51.4909
2060.94	56.1638
2061.18	49.6177
2061.43	48.6878
2061.67	52.4366
2061.92	52.438
2062.16	54.3107
2062.41	50.5665
2062.65	58.0603
2062.9	55.256
2063.14	55.2629
2063.39	53.3983
2063.63	59.0281
2063.88	51.5382
2064.12	52.4802
2064.37	48.7345
2064.61	53.4244
2064.86	56.2422
2065.1	55.3119
2065.35	49.6966
2065.59	54.4014
2065.84	57.2307
2066.08	49.7344
2066.33	51.6209
2066.57	56.322
2066.82	50.6893
2067.06	52.5721
2067.31	45.063
2067.55	50.7021
2067.8	53.5262
2068.04	51.6548
2068.29	59.1792
2068.53	50.7257
2068.78	57.3074
2069.02	53.5547
2069.27	55.4347
2069.51	54.4859
2069.76	49.771
2070	58.2023
2070.25	53.4959
2070.49	57.2569
2070.73	53.5213
2070.98	55.4274
2071.22	52.6331
2071.47	57.3312
2071.71	52.612
2071.96	56.4363
2072.2	54.5747
2072.45	56.4533
2072.69	49.8569
2072.94	55.504
2073.18	52.6738
2073.43	52.6728
2073.67	48.9031
2073.92	54.5535
2074.16	50.7882
2074.4	54.5567
2074.65	52.6783
2074.89	50.8035
2075.14	55.5267
2075.38	51.7749
2075.63	53.6827
2075.87	51.823
2076.12	54.672
2076.36	52.7932
2076.6	50.9056
2076.85	49.9629
2077.09	49.0126
2077.34	50.8892
2077.58	52.7639
2077.83	48.9665
2078.07	52.732
2078.31	52.7374
2078.56	60.2944
2078.8	50.8647
2079.05	48.9813
2079.29	55.5929
2079.54	57.4928
2079.78	55.6301
2080.03	50.9177
2080.27	49.0361
2080.51	53.7673
2080.76	56.6083
2081	48.1032
2081.25	49.9872
2081.49	52.8173
2081.74	54.7045
2081.98	49.9789
2082.22	61.3135
2082.47	51.8688
2082.71	56.5965
2082.96	49.9838
2083.2	50.9289
2083.45	53.7622
2083.69	52.8141
2083.93	50.9212
2084.18	53.7552
2084.42	48.0852
2084.67	49.0287
2084.91	49.0285
2085.15	55.6441
2085.4	57.5338
2085.64	49.9726
2085.89	50.9169
2086.13	51.8646
2086.37	50.9315
2086.62	52.8381
2086.86	53.7952
2087.11	55.6916
2087.35	56.6435
2087.59	55.7057
2087.84	57.6029
2088.08	53.817
2088.32	55.7098
2088.57	54.7639
2088.81	48.1402
2089.06	44.3557
2089.3	56.6623
2089.54	52.8833
2089.79	51.9444
2090.03	53.8515
2090.28	54.8029
2090.52	53.8575
2090.76	52.9131
2091.01	51.9696
2091.25	59.555
2091.5	50.0838
2091.74	49.1404
2091.98	58.6325
2092.23	52.9586
2092.47	51.0773
2092.72	57.7354
2092.96	56.8052
2093.2	50.1725
2093.45	50.1841
2093.69	49.2458
2093.93	50.2071
2094.18	53.068
2094.42	51.1756
2094.66	60.6852
2094.91	54.029
2095.15	52.1241
2095.39	51.1688
2095.64	54.9613
2095.88	56.8509
2096.13	51.1409
2096.37	54.9345
2096.61	45.4295
2096.86	56.8265
2097.1	54.9234
2097.34	53.0155
2097.59	54.9034
2097.83	52.9927
2098.07	53.9367
2098.32	52.9836
2098.56	52.9801
2098.8	56.7681
2099.05	54.869
2099.29	52.9685
2099.53	51.0664
2099.78	51.0631
2100.02	55.8063
2100.27	56.7549
2100.51	58.6538
2100.75	59.6052
2101	52.0166
2101.24	57.725
2101.48	52.0375
2101.73	52.0431
2101.97	52.9952
2102.21	53.9441
2102.45	49.1929
2102.7	51.0918
2102.94	52.0377
2103.18	56.7764
2103.43	54.8651
2103.67	60.5539
2103.92	52.0078
2104.16	53.9023
2104.4	50.1054
2104.64	56.754
2104.89	51.0649
2105.13	54.8701
2105.37	51.0777
2105.62	49.1858
2105.86	53.9467
2106.1	57.7574
2106.35	58.7133
2106.59	51.1138
2106.83	60.6217
2107.08	55.8701
2107.32	56.8251
2107.56	49.2197
2107.8	52.0655
2108.05	52.0546
2108.29	56.7917
2108.53	51.0752
2108.78	54.8596
2109.02	54.8471
2109.26	50.0943
2109.51	57.6916
2109.75	53.9063
2109.99	50.1165
2110.23	56.7659
2110.48	54.8652
2110.72	55.8141
2110.96	57.713
2111.21	56.7622
2111.45	53.9108
2111.69	44.407
2111.93	52.9481
2112.18	60.5393
2112.42	52.9377
2112.66	53.8861
2112.91	48.192
2113.15	50.0957
2113.39	50.1006
2113.63	52.9625
2113.88	53.9227
2114.12	54.8775
2114.36	50.1211
2114.61	49.1654
2114.85	52.9648
2115.09	51.0655
2115.33	53.917
2115.58	56.7642
2115.82	57.7087
2116.06	52.002
2116.31	54.8471
2116.55	55.7851
2116.79	51.0248
2117.03	53.8681
2117.28	58.6126
2117.52	52.9117
2117.76	55.7618
2118	54.8057
2118.25	54.7962
2118.49	54.7862
2118.73	53.8219
2118.97	53.8052
2119.22	50.9466
2119.46	56.6246
2119.7	56.6118
2119.94	49.9641
2120.19	57.5357
2120.43	51.8411
2120.67	52.7849
2120.91	57.5233
2121.16	50.8977
2121.4	51.8493
2121.64	53.7559
2121.88	50.9233
2122.13	53.779
2122.37	56.6352
2122.61	58.5425
2122.85	52.8563
2123.1	54.7608
2123.34	51.9183
2123.58	52.871
2123.82	50.9733
2124.07	50.9684
2124.31	54.7586
2124.55	51.9012
2124.79	58.5286
2125.03	52.814
2125.28	56.5799
2125.52	48.0261
2125.76	55.5866
2126	52.7279
2126.25	58.3916
2126.49	52.6971
2126.73	53.6313
2126.97	53.6191
2127.21	55.4982
2127.46	59.2681
2127.7	58.3164
2127.94	53.5851
2128.18	50.7447
2128.43	53.5743
2128.67	55.4604
2128.91	51.6786
2129.15	48.8421
2129.39	55.4558
2129.64	52.6149
2129.88	46.9398
2130.12	61.1126
2130.36	49.7685
2130.6	57.3242
2130.85	46.9251
2131.09	47.8644
2131.33	53.5256
2131.57	55.4059
2131.81	52.5631
2132.06	52.5548
2132.3	58.2137
2132.54	54.4299
2132.78	53.4744
2133.02	47.8014
2133.27	50.6267
2133.51	55.343
2133.75	58.1752
2133.99	50.627
2134.23	57.2325
2134.48	50.6278
2134.72	55.3473
2134.96	55.3449
2135.2	51.5674
2135.44	52.5086
2135.68	52.505
2135.93	52.4988
2136.17	57.2058
2136.41	58.1306
2136.65	49.6269
2136.89	57.1601
2137.14	48.677
2137.38	47.7353
2137.62	55.2776
2137.86	49.6252
2138.1	58.1228
2138.34	55.2883
2138.59	57.1572
2138.83	50.5462
2139.07	49.6116
2139.31	53.3987
2139.55	55.2967
2139.79	50.5543
2140.03	55.2465
2140.28	52.4091
2140.52	52.4002
2140.76	55.2186
2141	56.1536
2141.24	53.3227
2141.49	56.1428
2141.73	49.5501
2141.97	53.3056
2142.21	52.3513
2142.45	51.4044
2142.69	54.2274
2142.93	59.8859
2143.18	47.6529
2143.42	53.3451
2143.66	51.4389
2143.9	50.3705
2144.14	57.8865
2144.38	50.3776
2144.62	57.9156
2144.87	46.6483
2145.11	50.4193
2145.35	51.3297
2145.59	54.1537
2145.83	55.0954
2146.07	55.0914
2146.31	55.0858
2146.55	49.4397
2146.8	57.8946
2147.04	53.1894
2147.28	52.2433
2147.52	56.9335
2147.76	55.0457
2148	55.9774
2148.24	56.9099
2148.48	50.3276
2148.73	54.0773
2148.97	50.3132
2149.21	52.1823
2149.45	53.1093
2149.69	56.8496
2149.93	54.0108
2150.17	52.1217
2150.42	50.2314
2150.66	53.0325
2150.9	54.9007
2151.14	54.8986
2151.38	55.8396
2151.62	53.0353
2151.86	51.1645
2152.1	53.9847
2152.34	53.0496
2152.58	52.1181
2152.83	56.7986
2153.07	45.5371
2153.31	53.9656
2153.55	49.2688
2153.79	54.8874
2154.03	50.1953
2154.27	49.2489
2154.51	51.1095
2154.75	53.9006
2154.99	53.8768
2155.24	51.0473
2155.48	63.1823
2155.72	51.9413
2155.96	50.9901
2156.2	54.7141
2156.44	57.5055
2156.68	57.4986
2156.92	52.8242
2157.16	49.0853
2157.4	50.9528
2157.64	55.6266
2157.89	54.6989
2158.13	50.9699
2158.37	50.977
2158.61	49.1088
2158.85	56.5852
2159.09	50.0389
2159.33	51.9027
2159.57	50.9607
2159.81	54.6888
2160.05	50.0061
2160.29	46.2572
2160.53	51.8467
2160.77	48.1004
2161.01	51.8232
2161.25	51.8165
2161.5	56.4783
2161.74	50.8738
2161.98	55.5327
2162.22	56.4626
2162.46	59.2601
2162.7	56.4606
2162.94	55.5257
2163.18	48.0572
2163.42	57.3769
2163.66	49.9088
2163.9	49.9027
2164.14	53.6259
2164.38	57.3477
2164.62	51.7418
2164.86	55.4547
2165.11	58.2398
2165.35	53.5824
2165.59	56.3822
2165.83	47.9954
2166.07	54.5181
2166.31	52.6539
2166.55	48.9197
2166.79	55.4351
2167.03	52.6312
2167.27	55.4137
2167.51	55.4045
2167.75	55.3907
2167.99	50.7197
2168.23	50.6942
2168.47	58.1094
2168.71	56.2399
2168.95	51.5893
2169.19	53.4506
2169.43	54.3866
2169.67	52.5366
2169.91	53.4806
2170.15	52.5674
2170.39	51.6556
2170.63	51.6662
2170.87	55.3949
2171.11	53.5276
2171.35	54.4472
2171.59	54.4413
2171.83	57.2103
2172.07	52.5196
2172.31	48.7809
2172.56	57.1354
2172.79	55.266
2173.04	46.8954
2173.28	55.2549
2173.51	56.1822
2173.76	50.6059
2174	56.1834
2174.24	50.614
2174.48	54.3352
2174.72	49.6896
2174.96	56.1952
2175.2	54.3349
2175.44	51.5448
2175.68	55.2577
2175.92	58.041
2176.16	51.5333
2176.4	53.388
2176.64	54.3117
2176.88	58.0181
2177.12	56.1556
2177.36	49.6523
2177.6	49.6526
2177.84	51.5104
2178.08	54.2952
2178.32	54.2962
2178.55	49.6456
2178.8	57.9891
2179.03	57.0481
2179.28	50.5465
2179.52	51.4762
2179.75	46.8335
2180	51.4756
2180.23	56.1169
2180.47	53.33
2180.71	52.399
2180.95	46.8242
2181.19	49.6052
2181.43	56.1012
2181.67	55.1685
2181.91	46.8074
2182.15	58.8659
2182.39	55.1497
2182.63	55.1416
2182.87	49.5685
2183.11	56.9847
2183.35	56.0451
2183.59	50.4675
2183.83	53.2331
2184.07	56.0014
2184.31	55.0649
2184.55	48.5698
2184.79	57.832
2185.03	50.4204
2185.27	52.2776
2185.51	55.0608
2185.75	54.1373
2185.99	55.0699
2186.23	59.7136
2186.47	53.2326
2186.7	56.0233
2186.95	54.1828
2187.18	53.2701
2187.42	53.2848
2187.66	57.0135
2187.9	48.666
2188.14	57.027
2188.38	56.0913
2188.62	51.4379
2188.86	53.2838
2189.1	50.4869
2189.34	55.1136
2189.58	56.9529
2189.82	49.5142
2190.06	57.8438
2190.3	56.9082
2190.54	58.7588
2190.78	52.2702
2191.01	46.7112
2191.25	54.1314
2191.49	60.6206
2191.73	54.1326
2191.97	52.2816
2192.21	55.0675
2192.45	45.7967
2192.69	51.3647
2192.93	57.8619
2193.17	53.2316
2193.41	45.8162
2193.65	52.3196
2193.89	55.1154
2194.13	56.0667
2194.36	56.0928
2194.6	57.0396
2194.84	54.2597
2195.08	50.5373
2195.32	53.319
2195.56	61.6776
2195.8	54.2327
2196.04	57.0074
2196.28	56.0616
2196.52	53.2557
2196.76	57.8788
2197	47.6558
2197.23	53.2126
2197.47	52.2751
2197.71	55.9765
2197.95	47.6282
2198.19	59.6868
2198.43	50.4157
2198.67	55.0662
2198.91	50.4386
2199.15	59.7367
2199.38	52.3265
2199.62	55.1278
2199.86	58.8624
2200.1	56.092
2200.34	63.5588
2200.58	55.2165
2200.82	54.3102
2201.06	52.4685
2201.3	50.6197
2201.54	61.8146
2201.77	54.3356
2202.01	53.3488
2202.25	56.9498
2202.49	55.0131
2202.73	54.1192
2202.97	55.1413
2203.21	56.1137
2203.45	56.097
2203.68	58.8738
2203.92	51.4791
2204.16	55.3778
2204.4	46.9167
2204.64	55.3039
2204.88	47.8517
2205.12	51.546
2205.36	58.0171
2205.59	60.7615
2205.83	56.0776
2206.07	56.0683
2206.31	54.2092
2206.55	59.8004
2206.79	50.5017
2207.03	56.9896
2207.26	58.8516
2207.5	56.9998
2207.74	54.2194
2207.98	53.2995
2208.22	52.3796
2208.46	60.7656
2208.7	57.0538
2208.93	57.0632
2209.17	50.5526
2209.41	48.6944
2209.65	56.147
2209.89	53.3526
2210.13	58.0066
2210.36	58.0078
2210.6	57.083
2210.84	57.0903
2211.08	53.3716
2211.32	59.9027
2211.56	52.4546
2211.8	58.0558
2212.03	56.2027
2212.27	50.618
2212.51	54.3559
2212.75	59.0234
2212.99	54.3546
2213.23	52.4828
2213.46	58.0727
2213.7	57.1301
2213.94	55.2546
2214.18	51.5273
2214.42	50.6041
2214.66	47.8251
2214.89	45.976
2215.13	51.5806
2215.37	59.0523
2215.61	55.3211
2215.85	54.3891
2216.08	53.456
2216.32	57.1901
2216.56	59.9894
2216.8	56.2524
2217.04	53.4482
2217.28	52.5117
2217.51	51.5772
2217.75	55.3127
2217.99	53.4471
2218.23	50.6451
2218.47	57.1793
2218.7	51.5787
2218.94	56.252
2219.18	55.3251
2219.42	57.2023
2219.66	56.2778
2219.9	51.6112
2220.13	51.6169
2220.37	62.8366
2220.61	57.2267
2220.85	53.4851
2221.09	55.3514
2221.32	54.4105
2221.56	55.3311
2221.8	57.1834
2222.04	54.3687
2222.27	52.4903
2222.51	55.2833
2222.75	50.6136
2222.99	57.1512
2223.23	54.3576
2223.46	58.1001
2223.7	51.5712
2223.94	54.3853
2224.18	54.4003
2224.42	51.6119
2224.65	60.0414
2224.89	53.5083
2225.13	52.5837
2225.37	55.4014
2225.6	54.4784
2225.84	59.1743
2226.08	50.7586
2226.32	49.8317
2226.56	51.7154
2226.79	53.5966
2227.03	60.1679
2227.27	57.3665
2227.51	52.687
2227.74	53.6302
2227.98	52.6953
2228.22	54.5687
2228.46	56.4391
2228.69	52.6837
2228.93	55.492
2229.17	51.7381
2229.41	54.547
2229.64	59.2335
2229.88	49.8662
2230.12	59.2574
2230.36	57.3947
2230.6	52.7127
2230.83	50.845
2231.07	53.6706
2231.31	49.9256
2231.55	57.4494
2231.78	52.7657
2232.02	63.1102
2232.26	58.4233
2232.5	53.7344
2232.73	53.7442
2232.97	58.4548
2233.21	55.6436
2233.45	55.6528
2233.68	55.6622
2233.92	50.0257
2234.16	57.5614
2234.39	63.2148
2234.63	56.6219
2234.87	53.7931
2235.11	53.7858
2235.34	50.9527
2235.58	52.8151
2235.82	55.6218
2236.06	53.7415
2236.29	52.8026
2236.53	55.6261
2236.77	54.6879
2237	52.8082
2237.24	54.6915
2237.48	62.2305
2237.72	51.8912
2237.95	56.6174
2238.19	50.9893
2238.43	60.4299
2238.67	59.5034
2238.9	57.6328
2239.14	57.6495
2239.38	52.9528
2239.61	52.9557
2239.85	54.837
2240.09	51.9991
2240.33	59.5277
2240.56	60.4553
2240.8	53.8489
2241.04	54.8141
2241.27	58.6078
2241.51	51.0629
2241.75	52.009
2241.99	56.7305
2242.22	52.9585
2242.46	54.8499
2242.7	55.7991
2242.93	55.8053
2243.17	52.0294
2243.41	52.0266
2243.64	55.7946
2243.88	59.5606
2244.12	50.1182
2244.36	52.0033
2244.59	56.7229
2244.83	56.7307
2245.07	56.7466
2245.3	58.6581
2245.54	55.844
2245.78	61.5271
2246.01	54.9212
2246.25	53.9865
2246.49	55.8882
2246.72	54.0051
2246.96	55.9018
2247.2	57.8018
2247.43	52.1319
2247.67	60.6543
2247.91	52.1381
2248.14	58.7618
2248.38	53.0795
2248.62	57.8073
2248.85	57.803
2249.09	55.9066
2249.33	55.9026
2249.56	51.1687
2249.8	54.9622
2250.04	48.3428
2250.27	57.8062
2250.51	55.9055
2250.75	54.9478
2250.98	57.7737
2251.22	49.2473
2251.46	53.0199
2251.69	53.957
2251.93	54.8987
2252.17	51.1181
2252.4	54.9052
2252.64	50.1844
2252.88	54.9233
2253.11	53.9938
2253.35	53.0754
2253.59	51.2007
2253.82	55.9522
2254.06	55.9647
2254.3	57.8699
2254.53	56.9324
2254.77	54.0949
2255.01	55.0433
2255.24	55.9853
2255.48	59.7799
2255.72	55.9869
2255.95	48.4026
2256.19	55.9899
2256.42	54.1019
2256.66	56.0086
2256.9	52.2224
2257.13	58.8727
2257.37	54.1364
2257.61	57.9415
2257.84	54.1521
2258.08	57.0059
2258.32	49.4116
2258.55	58.9095
2258.79	53.2143
2259.02	50.3692
2259.26	53.2255
2259.5	57.0332
2259.73	54.1874
2259.97	49.4396
2260.2	50.395
2260.44	53.2511
2260.68	55.1568
2260.91	57.0628
2261.15	56.12
2261.39	55.1859
2261.62	58.0511
2261.86	59.956
2262.1	55.2014
2262.33	55.2053
2262.57	50.4508
2262.8	57.12
2263.04	53.3232
2263.28	54.2866
2263.51	54.3002
2263.75	55.269
2263.98	52.4281
2264.22	53.4016
2264.46	54.3751
2264.69	54.3932
2264.93	59.181
2265.16	56.3302
2265.4	51.5661
2265.64	54.4401
2265.87	54.4412
2266.11	55.398
2266.34	60.1689
2266.58	58.2449
2266.81	54.4115
2267.05	56.3063
2267.29	49.6129
2267.52	56.2831
2267.76	57.2281
2267.99	57.2183
2268.23	55.2975
2268.47	55.2874
2268.7	58.1437
2268.94	58.1449
2269.17	60.0596
2269.41	61.0255
2269.65	56.2704
2269.88	61.0577
2270.12	55.3471
2270.35	59.1858
2270.59	53.4717
2270.82	60.1701
2271.06	54.4429
2271.3	57.3218
2271.53	55.4192
2271.77	56.3817
2272	58.3017
2272.24	53.5293
2272.47	56.4041
2272.71	56.4046
2272.95	50.6662
2273.18	56.4088
2273.42	51.6272
2273.65	59.2844
2273.89	58.33
2274.12	54.5044
2274.36	55.4636
2274.6	51.6369
2274.83	54.5104
2275.07	55.47
2275.3	53.5585
2275.54	49.7313
2275.77	57.3934
2276.01	50.6888
2276.24	54.5259
2276.48	53.5804
2276.72	56.4672
2276.95	57.4372
2277.18	52.6557
2277.42	59.3778
2277.66	55.5605
2277.89	55.5807
2278.13	52.7224
2278.36	51.784
2278.6	53.7118
2278.83	50.8338
2279.07	50.8336
2279.3	53.7123
2279.54	57.5496
2279.78	50.817
2280.01	52.7129
2280.24	59.4133
2280.48	55.5595
2280.72	52.6687
2280.95	54.5754
2281.19	54.5667
2281.42	57.4365
2281.66	49.7603
2281.89	55.5054
2282.13	47.8425
2282.36	54.5555
2282.6	57.4389
2282.83	58.4085
2283.07	57.4624
2283.3	51.7184
2283.54	55.5712
2283.77	55.5925
2284.01	56.5783
2284.24	47.9528
2284.48	54.7047
2284.71	51.8336
2284.95	49.9153
2285.19	52.8123
2285.42	55.7102
2285.65	57.6385
2285.89	54.7523
2286.12	55.702
2286.36	53.7565
2286.59	54.7158
2286.83	55.6811
2287.06	55.6895
2287.3	53.7899
2287.54	63.4392
2287.77	53.8176
2288	53.8228
2288.24	55.7637
2288.47	59.6124
2288.71	60.5659
2288.94	54.7776
2289.18	59.5815
2289.41	58.6
2289.65	57.615
2289.88	60.4803
2290.12	58.5313
2290.35	56.5994
2290.59	60.4383
2290.82	54.6697
2291.06	53.7088
2291.29	53.7159
2291.53	56.6148
2291.76	56.633
2292	52.7958
2292.23	51.8418
2292.47	53.7754
2292.7	48.0077
2292.94	53.7971
2293.17	57.6617
2293.41	54.7806
2293.64	59.6065
2293.88	56.7211
2294.11	57.6876
2294.34	54.7912
2294.58	50.9291
2294.81	58.6288
2295.05	56.6901
2295.28	57.6445
2295.52	58.5989
2295.75	56.6638
2295.99	57.618
2296.22	56.6477
2296.46	53.7461
2296.69	56.6096
2296.93	61.416
2297.16	57.5719
2297.39	54.6924
2297.63	53.7394
2297.86	50.8627
2298.1	52.8023
2298.33	47.0397
2298.57	48.9763
2298.8	53.801
2299.04	57.6666
2299.27	54.7883
2299.51	56.7282
2299.74	49.9858
2299.97	53.8485
2300.21	53.847
2300.44	57.7051
2300.68	54.809
2300.91	52.8852
2301.15	51.9286
2301.38	51.9346
2301.61	56.7656
2301.85	54.8383
2302.08	56.7693
2302.32	52.9057
2302.55	52.9002
2302.79	50.9656
2303.02	54.8266
2303.25	53.8595
2303.49	53.8557
2303.72	60.6095
2303.96	55.7844
2304.19	53.8588
2304.43	53.8673
2304.66	56.7717
2304.89	52.9148
2305.13	55.8191
2305.36	52.9311
2305.6	52.9364
2305.83	59.7013
2306.07	55.8406
2306.3	54.8806
2306.53	55.8532
2306.77	58.7545
2307	56.8219
2307.24	57.7869
2307.47	53.9181
2307.7	56.8117
2307.94	56.8038
2308.17	58.7313
2308.41	52.928
2308.64	56.7872
2308.87	56.7863
2309.11	52.9235
2309.34	51.9644
2309.58	59.7045
2309.81	56.8185
2310.04	50.0664
2310.28	54.9128
2310.51	62.6564
2310.75	58.7878
2310.98	57.818
2311.21	55.8765
2311.45	50.0602
2311.68	54.8633
2311.92	50.9634
2312.15	54.8068
2312.38	57.688
2312.62	54.7832
2312.85	57.6677
2313.08	55.7296
2313.32	54.7631
2313.55	54.7687
2313.79	59.6112
2314.02	53.8397
2314.25	55.7869
2314.49	58.7014
2314.72	53.8859
2314.95	60.6741
2315.19	56.8248
2315.42	54.8989
2315.66	53.9163
2315.89	61.6378
2316.12	54.857
2316.36	58.7075
2316.59	50.9466
2316.82	55.7597
2317.06	56.7166
2317.29	49.9555
2317.52	56.7168
2317.76	50.9251
2317.99	52.8698
2318.23	55.7769
2318.46	61.5519
2318.69	52.85
2318.93	49.9455
2319.16	52.8329
2319.39	58.6145
2319.63	54.7446
2319.86	57.6327
2320.09	59.5575
2320.33	64.3816
2320.56	59.5578
2320.79	59.5566
2321.03	66.317
2321.26	64.3958
2321.5	55.7175
2321.73	55.7272
2321.96	54.7728
2322.2	60.584
2322.43	58.6696
2322.66	64.484
2322.9	62.5563
2323.13	58.6859
2323.36	61.588
2323.6	61.5919
2323.83	59.661
2324.06	67.4
2324.3	64.5004
2324.53	57.7282
2324.76	68.3608
2325	70.2765
2325.23	70.2538
2325.46	67.3297
2325.7	75.0396
2325.93	79.8521
2326.16	80.8009
2326.4	86.5749
2326.63	89.4507
2326.86	99.0787
2327.09	111.597
2327.33	118.322
2327.56	139.507
2327.79	179.977
2328.03	247.419
2328.26	326.422
2328.49	394.872
2328.73	432.466
2328.96	391.031
2329.19	307.11
2329.43	226.115
2329.66	166.332
2329.89	135.494
2330.13	118.151
2330.36	110.46
2330.59	89.2613
2330.82	84.4375
2331.06	83.4658
2331.29	66.1279
2331.52	72.8732
2331.76	60.3613
2331.99	61.334
2332.22	64.239
2332.46	65.1837
2332.69	58.4276
2332.92	55.5291
2333.16	56.4834
2333.39	58.4005
2333.62	53.5789
2333.85	58.3849
2334.09	60.3035
2334.32	54.5201
2334.55	53.5478
2334.79	57.3806
2335.02	54.4856
2335.25	55.4408
2335.48	58.323
2335.72	51.5874
2335.95	60.2435
2336.18	51.5913
2336.41	58.3207
2336.65	49.6592
2336.88	61.1936
2337.11	49.6519
2337.34	55.418
2337.58	52.53
2337.81	51.5655
2338.04	54.4441
2338.28	56.3619
2338.51	60.2033
2338.74	51.549
2338.97	60.1968
2339.21	56.3535
2339.44	56.354
2339.67	56.3529
2339.91	54.4279
2340.14	49.617
2340.37	51.5319
2340.6	55.3656
2340.84	55.3551
2341.07	60.1441
2341.3	60.1263
2341.53	51.467
2341.77	56.244
2342	59.1045
2342.23	52.3793
2342.46	55.2463
2342.7	50.4431
2342.93	58.1058
2343.16	52.3498
2343.39	54.265
2343.63	56.1819
2343.86	52.3441
2344.09	56.1752
2344.32	57.1336
2344.56	55.2195
2344.79	58.0966
2345.02	56.1767
2345.25	52.3378
2345.49	53.2898
2345.72	51.3636
2345.95	54.2234
2346.18	56.1282
2346.41	48.4549
2346.65	49.4081
2346.88	53.2349
2347.11	53.2313
2347.34	52.2682
2347.58	49.3909
2347.81	58.9629
2348.04	57.0486
2348.27	57.0513
2348.5	54.1845
2348.74	57.0611
2348.97	53.2292
2349.2	52.2657
2349.43	60.873
2349.67	59.889
2349.9	54.1226
2350.13	53.1382
2350.36	51.1942
2350.59	61.6593
2350.83	55.856
2351.06	52.8811
2351.29	60.5895
2351.52	50.2774
2351.75	53.2012
2351.99	56.9125
2352.22	60.6651
2352.45	51.1251
2352.68	50.176
2352.91	53.0062
2353.15	52.0035
2353.38	51.0131
2353.61	51.9781
2353.84	56.7357
2354.07	57.6763
2354.31	54.8189
2354.54	51.0061
2354.77	53.876
2355	53.8881
2355.23	49.1211
2355.47	51.9755
2355.7	53.8754
2355.93	56.7273
2356.16	50.0519
2356.39	57.6613
2356.63	51.9293
2356.86	52.8552
2357.09	53.7853
2357.32	50.9201
2357.55	54.714
2357.79	55.6548
2358.02	52.7938
2358.25	55.6368
2358.48	52.7788
2358.71	58.4756
2358.94	54.6616
2359.18	54.6551
2359.41	48.0006
2359.64	55.5961
2359.87	52.739
2360.1	57.4771
2360.33	55.5649
2360.57	58.3986
2360.8	58.384
2361.03	61.2159
2361.26	62.149
2361.49	53.5979
2361.72	45.9989
2361.96	57.3604
2362.19	47.8684
2362.42	56.38
2362.65	58.2582
2362.88	57.2971
2363.11	48.7643
2363.34	60.1128
2363.58	61.9952
2363.81	53.4705
2364.04	57.2483
2364.27	57.2405
2364.5	58.1772
2364.73	52.4928
2364.97	50.5927
