#Acq. time (s)=	30
#Accumulations=	2
#Range (cm-¹)=	1200...2365
#Windows=	3
#Auto scanning=	Off
#Autofocus=	Off
#Macrospot=	Off
#AutoExposure=	Off
#Spike filter=	Multiple accum.
#Delay time (s)=	2
#Binning=	1
#Readout mode=	Signal
#DeNoise=	Off
#ICS correction=	On
#Dark correction=	Off
#Inst. Process=	Off
#Detector Gain=	Best Dynamic
#Detector ADC=	50 kHz HS
#Detector temperature (°C)=	-60.09
#Instrument=	LabRAM HR Evol
#Detector=	SIN-EM FIVIS
#Objective=	x100_VIS_LWD
#Grating=	1800 (450-850nm)
#ND Filter=	100%
#Laser=	532nm_Edge
#Hole=	49.98
#Temperature=	0
#Range=	Visible
#StageXY=	75x50mm Scan+
#StageZ=	Z motor
#X (µm)=	0
#Y (µm)=	0
#Z (µm)=	-10.3
#Full time(mm:ss)=	3:11
#Project=	21_11_26
#Sample=	BU02Aw
#Site=	
#Title=	BU02aW-A-FF1-FI01-V_1800 (450-850nm)_532nm_Edge_100%_x100_VIS_LWD_H50um_30sX2
#Remark=	
#Date=	26.11.2021 10:39
#Acquired=	26.11.2021 10:39:57
1202.72	25.2723
1203	29.6169
1203.28	28.5496
1203.56	25.3026
1203.84	27.4351
1204.11	27.4221
1204.39	26.3366
1204.67	29.5629
1204.95	25.2661
1205.23	27.4111
1205.5	32.7733
1205.78	24.1675
1206.06	29.5241
1206.34	27.364
1206.61	32.714
1206.89	30.5547
1207.17	30.5404
1207.45	27.3153
1207.73	27.3085
1208	31.5844
1208.28	29.4386
1208.56	30.5029
1208.84	28.3541
1209.11	29.4161
1209.39	28.3393
1209.67	30.4743
1209.95	29.4041
1210.23	28.3325
1210.5	25.1204
1210.78	26.1785
1211.06	29.372
1211.34	26.1598
1211.61	25.0829
1211.89	28.2762
1212.17	26.132
1212.45	25.0561
1212.72	29.3124
1213	28.2386
1213.28	26.1
1213.56	29.2896
1213.83	29.286
1214.11	28.2154
1214.39	26.0876
1214.67	26.0887
1214.94	27.1538
1215.22	27.1537
1215.5	27.1528
1215.78	28.2161
1216.05	23.956
1216.33	28.2068
1216.61	26.0692
1216.89	27.1215
1217.16	27.1108
1217.44	26.04
1217.72	24.9703
1218	29.2112
1218.27	26.0193
1218.55	24.9521
1218.83	24.9469
1219.1	28.1276
1219.38	23.8814
1219.66	27.0623
1219.94	24.9373
1220.21	25.9937
1220.49	27.0536
1220.77	32.357
1221.04	25.9918
1221.32	29.1708
1221.6	23.8642
1221.88	27.0403
1222.15	28.0924
1222.43	30.2004
1222.71	25.9511
1222.98	24.8798
1223.26	26.9839
1223.54	26.9717
1223.81	29.0745
1224.09	25.8947
1224.37	25.8857
1224.65	25.8795
1224.92	29.0419
1225.2	26.9269
1225.48	29.0373
1225.76	25.8739
1226.03	26.9326
1226.31	25.8802
1226.59	26.9348
1226.86	27.9888
1227.14	27.9836
1227.42	29.0343
1227.69	26.9097
1227.97	25.8301
1228.25	25.8146
1228.52	22.6421
1228.8	25.7756
1229.08	27.8578
1229.35	29.9571
1229.63	26.8712
1229.91	26.9284
1230.18	30.067
1230.46	25.8243
1230.74	24.762
1231.01	24.7648
1231.29	30.014
1231.57	26.8032
1231.84	31.0116
1232.12	25.757
1232.4	27.8578
1232.67	27.8546
1232.95	26.8034
1233.23	28.9031
1233.5	25.749
1233.78	27.8493
1234.06	26.8005
1234.33	25.7524
1234.61	29.9579
1234.89	28.9115
1235.16	33.1205
1235.44	28.9188
1235.71	24.7168
1235.99	27.8739
1236.27	25.7735
1236.54	25.7731
1236.82	28.9239
1237.1	28.9194
1237.37	25.7606
1237.65	28.9036
1237.93	27.8432
1238.2	33.0823
1238.48	28.8729
1238.76	28.8626
1239.03	27.806
1239.31	25.7042
1239.58	27.7976
1239.86	28.8431
1240.14	26.7449
1240.41	26.7441
1240.69	30.9368
1240.97	29.8896
1241.24	29.8913
1241.52	26.7475
1241.79	24.6488
1242.07	26.7405
1242.35	27.7855
1242.62	24.6423
1242.9	26.7399
1243.18	28.8401
1243.45	23.6026
1243.73	28.8437
1244	27.7958
1244.28	30.9428
1244.56	24.6526
1244.83	26.7476
1245.11	30.9377
1245.39	29.8832
1245.66	30.9235
1245.94	28.8182
1246.21	28.8088
1246.49	29.8516
1246.76	31.9428
1247.04	28.8029
1247.32	26.709
1247.59	28.8001
1247.87	29.8463
1248.14	29.8431
1248.42	32.9705
1248.7	29.8265
1248.97	24.596
1249.25	27.7353
1249.52	29.8294
1249.8	29.8275
1250.08	27.7349
1250.35	32.9648
1250.63	30.8667
1250.9	30.8588
1251.18	31.8972
1251.45	29.8011
1251.73	32.9304
1252.01	30.8356
1252.28	31.8745
1252.56	27.6919
1252.83	31.8629
1253.11	26.6373
1253.39	32.8939
1253.66	27.6733
1253.94	28.717
1254.21	26.6344
1254.49	29.7711
1254.76	26.6454
1255.04	30.8245
1255.31	33.9572
1255.59	29.7829
1255.87	28.7387
1256.14	29.7817
1256.42	35.0045
1256.69	30.83
1256.97	35.0126
1257.24	32.9253
1257.52	30.8347
1257.79	35.0078
1258.07	30.8278
1258.35	33.9581
1258.62	32.9112
1258.9	32.9077
1259.17	34.9875
1259.45	28.7245
1259.72	31.8594
1260	32.9082
1260.27	33.9663
1260.55	33.9577
1260.82	29.7741
1261.1	36.0245
1261.37	36.0158
1261.65	31.8378
1261.92	37.0585
1262.2	39.1798
1262.48	37.1401
1262.75	41.3483
1263.02	39.1919
1263.3	45.4043
1263.58	45.3836
1263.85	49.6031
1264.13	47.552
1264.4	54.9156
1264.68	58.0814
1264.95	45.5003
1265.23	55.9407
1265.5	44.4441
1265.78	42.3503
1266.05	39.2081
1266.33	45.4772
1266.6	40.2559
1266.88	32.9459
1267.15	37.1332
1267.43	38.1875
1267.7	32.9688
1267.98	40.3012
1268.25	42.4075
1268.53	38.2388
1268.8	37.2055
1269.08	31.9754
1269.35	39.3144
1269.63	39.3195
1269.9	38.2695
1270.18	37.2137
1270.45	42.4384
1270.73	34.0538
1271	41.3727
1271.28	38.2261
1271.55	36.1308
1271.83	39.265
1272.1	32.9897
1272.38	41.3706
1272.65	42.4294
1272.93	36.1617
1273.2	38.2664
1273.47	38.2766
1273.75	43.5279
1274.03	41.4425
1274.3	41.4536
1274.57	35.1672
1274.85	37.2669
1275.12	43.5589
1275.4	38.3147
1275.67	38.319
1275.95	41.4731
1276.22	37.2829
1276.5	37.292
1276.77	35.1993
1277.05	37.3063
1277.32	36.2615
1277.6	38.3714
1277.87	36.2795
1278.14	40.4921
1278.42	44.7049
1278.69	41.5593
1278.97	38.4164
1279.24	40.5264
1279.52	40.5332
1279.79	38.4272
1280.07	43.6836
1280.34	48.9372
1280.61	41.5736
1280.89	47.8877
1281.16	52.1
1281.44	53.1653
1281.71	55.287
1281.99	56.3474
1282.26	61.6093
1282.53	72.1423
1282.81	84.7846
1283.08	119.508
1283.36	135.232
1283.63	179.265
1283.91	235.944
1284.18	300.038
1284.45	362.228
1284.73	389.316
1285	396.762
1285.28	294.546
1285.55	201.721
1285.83	127.954
1286.1	101.635
1286.37	76.383
1286.65	59.5331
1286.92	57.4165
1287.2	51.0986
1287.47	47.9372
1287.75	42.6671
1288.02	38.4499
1288.29	37.3936
1288.57	41.6027
1288.84	35.2897
1289.12	37.3973
1289.39	35.2979
1289.66	43.7268
1289.94	33.205
1290.21	35.3185
1290.49	34.2714
1290.76	31.1112
1291.03	32.1612
1291.31	37.4258
1291.58	33.2125
1291.86	33.2123
1292.13	35.3176
1292.4	36.3713
1292.68	29.001
1292.95	33.2123
1293.22	32.1567
1293.5	31.1054
1293.77	34.2762
1294.05	31.1286
1294.32	31.142
1294.59	31.1458
1294.87	25.8734
1295.14	33.253
1295.42	32.2045
1295.69	32.2182
1295.96	35.4029
1296.24	29.0897
1296.51	31.2157
1296.79	25.9342
1297.06	31.2202
1297.33	28.0463
1297.61	33.3252
1297.88	31.2056
1298.15	28.0299
1298.43	29.0787
1298.7	32.2507
1298.97	32.2483
1299.25	31.1873
1299.52	33.2947
1299.79	26.9562
1300.07	31.1783
1300.34	29.0724
1300.62	34.3549
1300.89	31.1883
1301.16	32.2429
1301.44	25.9071
1301.71	30.132
1301.98	26.9691
1302.25	29.0859
1302.53	25.9197
1302.8	29.0896
1303.08	29.0894
1303.35	32.2564
1303.62	32.2531
1303.9	26.9678
1304.17	25.9111
1304.44	29.0796
1304.72	26.968
1304.99	33.3034
1305.26	29.0763
1305.54	30.127
1305.81	30.1204
1306.08	29.0587
1306.35	31.1617
1306.63	29.0463
1306.9	27.9893
1307.18	34.3171
1307.45	31.1562
1307.72	26.9383
1308	29.0476
1308.27	29.0475
1308.54	30.104
1308.81	25.8836
1309.09	30.1043
1309.36	27.9993
1309.63	31.1687
1309.91	35.3944
1310.18	34.3425
1310.45	28.0098
1310.73	29.0635
1311	29.0637
1311.27	30.1204
1311.55	26.9561
1311.82	35.4009
1312.09	29.0709
1312.37	29.0761
1312.64	28.0247
1312.91	29.0827
1313.18	30.1375
1313.46	32.2444
1313.73	29.0764
1314	32.2407
1314.28	33.2941
1314.55	29.0721
1314.82	24.8517
1315.09	30.1328
1315.37	26.9692
1315.64	25.9167
1315.91	31.2007
1316.18	32.2612
1316.46	33.3162
1316.73	26.9775
1317	28.0326
1317.28	34.3684
1317.55	29.0882
1317.82	30.1488
1318.09	26.9829
1318.37	33.3232
1318.64	31.2118
1318.91	32.2692
1319.18	30.1566
1319.46	32.2688
1319.73	28.042
1320	29.0976
1320.28	30.1561
1320.55	28.0438
1320.82	28.0424
1321.09	29.0948
1321.37	31.2006
1321.64	32.2477
1321.91	28.0162
1322.18	30.1217
1322.46	29.0585
1322.73	26.9452
1323	24.8324
1323.27	26.9379
1323.55	31.1499
1323.82	26.9361
1324.09	25.883
1324.36	31.1559
1324.64	27.9919
1324.91	30.1014
1325.18	26.9374
1325.45	26.9393
1325.73	30.0953
1326	29.0282
1326.27	29.0118
1326.54	30.0439
1326.81	28.9832
1327.09	30.0332
1327.36	28.9909
1327.63	31.1162
1327.9	30.0739
1328.18	27.977
1328.45	27.9879
1328.72	26.9443
1328.99	26.953
1329.27	29.0658
1329.54	29.0624
1329.81	33.2859
1330.08	30.1196
1330.35	29.0624
1330.63	26.9492
1330.9	30.1083
1331.17	27.9926
1331.44	29.0385
1331.71	29.0275
1331.99	34.281
1332.26	25.8468
1332.53	27.9448
1332.8	31.0932
1333.07	30.0309
1333.35	30.0204
1333.62	34.2154
1333.89	27.9003
1334.16	28.943
1334.43	29.9855
1334.71	28.9278
1334.98	31.0204
1335.25	31.0141
1335.52	28.9097
1335.79	29.9535
1336.07	26.8017
1336.34	36.2361
1336.61	28.8907
1336.88	30.9839
1337.15	27.8355
1337.43	32.026
1337.7	25.7345
1337.97	29.924
1338.24	30.9646
1338.51	33.0528
1338.78	28.8586
1339.06	28.8539
1339.33	27.8039
1339.6	27.8032
1339.87	28.8515
1340.14	30.9476
1340.42	33.0429
1340.69	29.9025
1340.96	28.8564
1341.23	33.045
1341.5	28.8548
1341.77	27.8058
1342.04	29.8969
1342.32	31.9861
1342.59	30.9327
1342.86	27.7856
1343.13	27.7785
1343.4	33.0046
1343.67	27.7729
1343.95	27.7721
1344.22	29.8637
1344.49	28.8186
1344.76	25.6812
1345.03	30.9078
1345.3	29.8573
1345.58	30.8962
1345.85	27.7515
1346.12	26.6999
1346.39	28.7799
1346.66	33.9854
1346.93	29.8004
1347.2	33.9648
1347.47	28.7397
1347.75	28.7319
1348.02	31.8542
1348.29	29.7656
1348.56	29.7632
1348.83	27.6769
1349.1	29.7567
1349.37	30.7932
1349.65	28.7041
1349.92	29.7404
1350.19	28.694
1350.46	27.6481
1350.73	30.7658
1351	32.8397
1351.27	31.7912
1351.54	30.746
1351.81	31.7783
1352.09	28.6565
1352.36	27.6163
1352.63	26.5797
1352.9	29.706
1353.17	30.7557
1353.44	27.6387
1353.71	26.6206
1353.98	30.8154
1354.25	32.8698
1354.53	27.6212
1354.8	30.71
1355.07	31.7526
1355.34	27.5988
1355.61	31.7444
1355.88	31.7388
1356.15	30.7107
1356.42	30.7133
1356.69	32.7845
1356.96	31.7427
1357.24	29.6629
1357.51	29.6602
1357.78	29.6565
1358.05	29.6521
1358.32	32.7612
1358.59	31.7176
1358.86	30.6748
1359.13	32.7437
1359.4	33.7748
1359.67	30.6588
1359.94	35.84
1360.22	31.684
1360.49	31.6748
1360.76	30.6301
1361.03	33.7323
1361.3	31.6581
1361.57	34.7653
1361.84	27.5135
1362.11	35.798
1362.38	34.7583
1362.65	35.7903
1362.92	27.5036
1363.19	33.7151
1363.46	30.611
1363.73	32.6877
1364	32.6919
1364.28	32.6961
1364.55	35.8035
1364.82	29.5864
1365.09	35.7976
1365.36	38.898
1365.63	36.819
1365.9	35.7754
1366.17	37.8371
1366.44	36.7943
1366.71	34.7171
1366.98	37.8095
1367.25	36.7629
1367.52	32.6233
1367.79	35.7205
1368.06	34.6918
1368.33	37.7956
1368.6	35.7306
1368.87	33.6654
1369.15	33.6675
1369.41	38.8401
1369.68	49.1829
1369.95	54.3465
1370.23	50.2055
1370.5	43.9981
1370.77	39.8534
1371.04	39.8484
1371.31	40.8744
1371.58	33.6338
1371.85	39.8175
1372.12	38.7699
1372.39	39.787
1372.66	37.7108
1372.93	40.7941
1373.2	38.7257
1373.47	34.5979
1373.74	41.8078
1374.01	40.7732
1374.28	43.8611
1374.55	45.9188
1374.82	40.7647
1375.09	44.8824
1375.36	41.7868
1375.63	41.7887
1375.9	40.7638
1376.17	44.8838
1376.44	50.0377
1376.71	45.9052
1376.98	52.0726
1377.25	47.9381
1377.52	53.0634
1377.79	57.1866
1378.06	57.2013
1378.33	55.1645
1378.6	61.3735
1378.87	58.3148
1379.14	60.3867
1379.41	65.5397
1379.68	61.4079
1379.95	68.6143
1380.22	67.5699
1380.49	64.4511
1380.76	73.6627
1381.03	66.4278
1381.3	78.7439
1381.57	77.7285
1381.84	78.737
1382.11	73.5618
1382.38	80.7167
1382.65	84.7908
1382.92	82.7074
1383.19	87.8067
1383.46	83.679
1383.73	81.6039
1384	83.6405
1384.27	83.6288
1384.54	84.6571
1384.81	83.6393
1385.08	83.6547
1385.34	91.8843
1385.61	104.235
1385.88	99.1302
1386.15	106.339
1386.42	122.783
1386.69	162.864
1386.96	197.803
1387.23	265.591
1387.5	415.225
1387.77	630.567
1388.04	824.824
1388.31	869.319
1388.58	612.481
1388.85	341.852
1389.12	199.645
1389.39	140.221
1389.66	109.429
1389.93	83.7693
1390.2	71.4227
1390.46	67.2645
1390.73	62.1133
1391	59.0352
1391.27	53.8868
1391.54	51.8326
1391.81	47.729
1392.08	47.7184
1392.35	48.7306
1392.62	46.6719
1392.89	45.6404
1393.16	39.4919
1393.43	43.5821
1393.7	40.5073
1393.97	38.4569
1394.23	41.5241
1394.5	40.4981
1394.77	39.4726
1395.04	35.3785
1395.31	37.429
1395.58	40.5058
1395.85	39.4872
1396.12	41.5366
1396.39	39.4883
1396.66	37.4381
1396.93	35.3871
1397.2	36.4061
1397.46	38.4457
1397.73	33.3242
1398	36.3897
1398.27	29.2299
1398.54	32.3007
1398.81	40.4887
1399.08	36.3994
1399.35	36.4015
1399.62	33.3379
1399.89	30.2714
1400.16	32.3216
1400.42	33.345
1400.69	33.3498
1400.96	38.478
1401.23	31.3144
1401.5	35.4095
1401.77	24.1484
1402.04	32.3414
1402.31	33.377
1402.58	35.4461
1402.84	37.5192
1403.11	30.3529
1403.38	35.495
1403.65	35.5007
1403.92	34.4746
1404.19	32.4149
1404.46	32.397
1404.73	32.402
1404.99	33.4253
1405.26	34.4474
1405.53	32.3904
1405.8	35.4609
1406.07	33.4044
1406.34	35.4495
1406.61	34.421
1406.87	36.4684
1407.14	38.5203
1407.41	40.5734
1407.68	44.6777
1407.95	41.605
1408.22	42.633
1408.49	44.6864
1408.76	55.9687
1409.02	61.1005
1409.29	64.1831
1409.56	66.2401
1409.83	75.4774
1410.1	60.0948
1410.37	54.9662
1410.63	46.7508
1410.9	43.6622
1411.17	40.574
1411.44	34.4161
1411.71	31.3366
1411.98	27.2347
1412.25	30.3074
1412.51	34.4103
1412.78	34.4204
1413.05	31.3653
1413.32	30.376
1413.59	29.3672
1413.86	30.3717
1414.12	29.307
1414.39	27.2627
1414.66	29.3334
1414.93	31.4006
1415.2	30.3722
1415.47	26.2668
1415.73	32.4272
1416	29.3483
1416.27	26.2706
1416.54	28.327
1416.81	23.195
1417.07	28.3332
1417.34	29.364
1417.61	30.3951
1417.88	28.3437
1418.15	28.3455
1418.42	27.3188
1418.68	30.403
1418.95	27.3217
1419.22	26.2946
1419.49	30.4063
1419.76	25.2652
1420.02	26.2882
1420.29	29.365
1420.56	30.3869
1420.83	26.2736
1421.1	30.3748
1421.36	24.2108
1421.63	29.3407
1421.9	29.3427
1422.17	31.4041
1422.44	30.3878
1422.7	27.316
1422.97	27.3308
1423.24	25.2966
1423.51	24.2892
1423.77	25.26
1424.04	26.2332
1424.31	26.2405
1424.58	24.1667
1424.85	29.2898
1425.11	30.3232
1425.38	28.2932
1425.65	26.2458
1425.92	28.2934
1426.19	23.1739
1426.45	29.3274
1426.72	27.2712
1426.99	26.2392
1427.26	32.383
1427.52	28.2746
1427.79	32.3611
1428.06	26.2064
1428.33	23.1306
1428.59	26.201
1428.86	27.2255
1429.13	28.2514
1429.4	24.1578
1429.67	29.2817
1429.93	26.2134
1430.2	26.2193
1430.47	26.2264
1430.74	25.2072
1431	21.1135
1431.27	30.3554
1431.54	21.1304
1431.81	28.3188
1432.07	28.3191
1432.34	28.3143
1432.61	24.2041
1432.87	26.2523
1433.14	24.1937
1433.41	29.3107
1433.68	24.1751
1433.95	25.1902
1434.21	28.2566
1434.48	21.0862
1434.75	24.1695
1435.01	27.2488
1435.28	24.176
1435.55	23.1517
1435.82	29.2997
1436.08	27.2493
1436.35	23.1494
1436.62	26.2218
1436.89	29.293
1437.15	28.2661
1437.42	28.264
1437.69	25.1907
1437.95	29.2848
1438.22	28.2595
1438.49	26.2128
1438.76	28.2658
1439.02	26.2197
1439.29	28.2698
1439.56	26.2225
1439.82	23.1527
1440.09	24.1831
1440.36	25.2153
1440.63	28.2947
1440.89	26.2459
1441.16	23.1702
1441.43	23.1718
1441.69	25.2212
1441.96	20.0909
1442.23	26.2405
1442.49	21.1191
1442.76	25.2216
1443.03	27.2782
1443.3	25.224
1443.56	28.296
1443.83	23.1662
1444.1	26.2395
1444.36	26.2388
1444.63	26.2407
1444.9	24.1975
1445.16	25.2293
1445.43	25.2375
1445.7	25.2357
1445.97	26.2595
1446.23	26.2576
1446.5	23.1785
1446.77	25.2283
1447.03	26.2522
1447.3	24.1994
1447.57	25.2226
1447.83	27.2703
1448.1	23.1671
1448.37	25.2175
1448.63	26.2475
1448.9	19.0744
1449.17	27.2811
1449.43	26.2554
1449.7	26.2534
1449.97	23.1739
1450.23	25.221
1450.5	25.2172
1450.77	20.09
1451.03	28.2885
1451.3	27.2616
1451.57	24.1851
1451.83	20.0841
1452.1	25.2055
1452.37	23.1547
1452.63	26.2275
1452.9	19.0564
1453.17	25.205
1453.43	27.2575
1453.7	23.1611
1453.97	21.1119
1454.23	23.1602
1454.5	24.1838
1454.77	24.1841
1455.03	22.1349
1455.3	26.2333
1455.56	20.084
1455.83	26.2326
1456.1	21.1131
1456.36	22.1402
1456.63	27.2652
1456.9	23.1637
1457.16	24.1847
1457.43	23.1566
1457.7	25.204
1457.96	24.1782
1458.23	28.2749
1458.49	25.2022
1458.76	24.1786
1459.03	24.1802
1459.29	24.1816
1459.56	21.1089
1459.82	23.1588
1460.09	27.2564
1460.36	22.1324
1460.62	26.2287
1460.89	24.1781
1461.16	26.2242
1461.42	27.2452
1461.69	25.194
1461.95	25.1906
1462.22	23.1393
1462.49	27.2293
1462.75	25.1775
1463.02	24.1493
1463.28	27.2126
1463.55	24.1385
1463.82	21.0665
1464.08	24.1331
1464.35	27.2088
1464.61	22.1056
1464.88	24.1606
1465.15	26.2201
1465.41	23.1307
1465.68	26.1537
1465.94	20.0093
1466.21	25.11
1466.48	23.0762
1466.74	21.0328
1467.01	22.0442
1467.27	20.0012
1467.54	23.064
1467.8	24.0829
1468.07	22.0412
1468.34	25.1006
1468.6	26.1204
1468.87	25.1
1469.13	21.0189
1469.4	25.0965
1469.67	24.0739
1469.93	23.05
1470.2	24.0642
1470.46	23.0407
1470.73	22.0187
1470.99	25.0731
1471.26	24.0526
1471.53	22.0122
1471.79	25.0636
1472.06	23.0236
1472.32	24.0405
1472.59	23.0215
1472.85	24.0393
1473.12	23.0206
1473.39	23.019
1473.65	21.9979
1473.92	21.9948
1474.18	24.0278
1474.45	25.044
1474.71	28.097
1474.98	24.0287
1475.24	24.0305
1475.51	23.0131
1475.78	25.0482
1476.04	24.0284
1476.31	26.0606
1476.57	23.0058
1476.84	21.9866
1477.1	23.0005
1477.37	21.9799
1477.63	26.0463
1477.9	22.9946
1478.16	24.0112
1478.43	22.9918
1478.69	24.0042
1478.96	24.0009
1479.22	20.9485
1479.49	26.026
1479.76	21.9574
1480.02	22.9687
1480.29	26.0108
1480.55	21.9409
1480.82	17.8752
1481.08	24.9749
1481.35	27.0021
1481.61	24.9688
1481.88	20.913
1482.14	25.99
1482.41	21.9353
1482.67	19.9097
1482.94	21.9434
1483.2	21.9435
1483.47	23.9771
1483.73	23.9789
1484	24.9946
1484.26	22.963
1484.53	20.924
1484.79	24.9706
1485.06	20.8908
1485.32	23.8994
1485.59	23.8881
1485.85	24.8809
1486.12	21.8985
1486.38	21.9048
1486.65	23.9407
1486.91	22.9031
1487.18	30.0075
1487.44	20.8916
1487.71	23.925
1487.97	23.9197
1488.24	20.8784
1488.5	22.9003
1488.77	22.8955
1489.03	19.8539
1489.3	23.8981
1489.56	21.872
1489.83	22.8821
1490.09	23.8923
1490.36	21.869
1490.62	21.8688
1490.89	26.924
1491.15	24.8962
1491.42	27.925
1491.68	23.8783
1491.95	22.8664
1492.21	23.8775
1492.48	22.8676
1492.74	20.845
1493	23.877
1493.27	22.8654
1493.53	22.8655
1493.8	27.9184
1494.06	20.8417
1494.33	22.8638
1494.59	24.8872
1494.86	28.9334
1495.12	23.8777
1495.39	23.8741
1495.65	26.8988
1495.92	21.8387
1496.18	22.8425
1496.45	25.8676
1496.71	22.8356
1496.97	22.833
1497.24	24.8486
1497.5	25.8578
1497.77	26.867
1498.03	23.838
1498.3	24.8468
1498.56	22.8288
1498.82	23.8386
1499.09	24.8488
1499.35	20.8128
1499.62	21.8237
1499.88	18.7973
1500.15	21.8277
1500.41	20.819
1500.68	21.8286
1500.94	20.8185
1501.2	24.856
1501.47	26.8724
1501.73	21.8213
1502	20.8109
1502.26	21.8196
1502.52	20.8098
1502.79	24.844
1503.05	21.8126
1503.32	22.8171
1503.58	21.8061
1503.85	23.819
1504.11	21.8024
1504.37	21.8046
1504.64	22.8142
1504.9	21.8061
1505.17	23.822
1505.43	23.8197
1505.7	24.8245
1505.96	24.8177
1506.22	23.8017
1506.49	20.7778
1506.75	23.7996
1507.02	24.8082
1507.28	21.7891
1507.54	25.8207
1507.81	22.7989
1508.07	21.7911
1508.34	24.8127
1508.6	17.7585
1508.86	25.8197
1509.13	26.8284
1509.39	26.829
1509.66	22.7982
1509.92	20.783
1510.18	23.8086
1510.45	22.8025
1510.71	21.7907
1510.98	23.8016
1511.24	24.8035
1511.5	27.8176
1511.77	22.7741
1512.03	23.7684
1512.29	23.7564
1512.56	21.735
1512.82	18.7124
1513.08	23.7293
1513.35	20.7118
1513.61	23.7197
1513.88	23.718
1514.14	20.7114
1514.4	22.7283
1514.67	25.7443
1514.93	20.7194
1515.2	22.7233
1515.46	23.7214
1515.72	22.7119
1515.99	22.7053
1516.25	26.7111
1516.51	25.7028
1516.78	26.7033
1517.04	25.6986
1517.3	25.6971
1517.57	25.6965
1517.83	23.6919
1518.09	24.6964
1518.36	23.6981
1518.62	24.7024
1518.88	24.7043
1519.15	21.6967
1519.41	21.6987
1519.67	22.7038
1519.94	23.7083
1520.2	24.7112
1520.47	23.706
1520.73	25.7107
1520.99	25.7124
1521.26	29.7282
1521.52	22.7073
1521.78	25.7185
1522.05	21.7041
1522.31	23.7089
1522.57	22.7033
1522.84	25.7099
1523.1	21.6956
1523.36	23.6978
1523.62	23.691
1523.89	22.6797
1524.15	26.6813
1524.41	23.671
1524.68	24.6686
1524.94	23.6636
1525.2	28.6735
1525.47	25.6706
1525.73	23.6687
1525.99	23.6722
1526.26	24.6786
1526.52	22.681
1526.78	24.6903
1527.05	21.6852
1527.31	20.6825
1527.57	24.6887
1527.84	23.6851
1528.1	21.6791
1528.36	22.6795
1528.63	24.6808
1528.89	22.6747
1529.15	23.6746
1529.41	22.6719
1529.68	26.6782
1529.94	22.6703
1530.2	23.6683
1530.47	23.6674
1530.73	24.6711
1530.99	24.6763
1531.25	20.6739
1531.52	21.6792
1531.78	22.6818
1532.04	24.6845
1532.31	24.6853
1532.57	20.6747
1532.83	25.6872
1533.09	23.6896
1533.36	20.6902
1533.62	22.7026
1533.88	21.7028
1534.15	22.7079
1534.41	24.7141
1534.67	26.7191
1534.94	25.7142
1535.2	21.7
1535.46	27.7152
1535.72	25.7049
1535.99	25.6924
1536.25	23.6811
1536.51	22.6744
1536.77	18.6617
1537.04	25.6615
1537.3	22.6515
1537.56	24.6495
1537.82	25.6442
1538.09	23.6442
1538.35	24.6396
1538.61	24.6321
1538.87	24.6298
1539.14	22.6285
1539.4	24.6344
1539.66	22.6476
1539.92	23.6652
1540.19	25.6803
1540.45	22.6851
1540.71	25.7024
1540.97	21.6985
1541.24	23.7067
1541.5	23.6972
1541.76	23.6962
1542.02	22.6879
1542.29	23.6843
1542.55	23.6786
1542.81	20.6688
1543.07	30.6758
1543.34	21.6607
1543.6	24.6577
1543.86	20.6484
1544.12	23.6418
1544.39	27.6433
1544.65	25.6448
1544.91	23.6495
1545.17	22.6561
1545.43	27.6655
1545.7	23.6714
1545.96	25.6796
1546.22	23.6798
1546.48	24.6842
1546.74	22.6796
1547.01	24.6843
1547.27	23.6853
1547.53	27.6961
1547.79	26.6971
1548.06	23.686
1548.32	23.674
1548.58	22.6727
1548.84	24.6768
1549.1	24.6841
1549.37	23.6611
1549.63	25.6366
1549.89	25.6312
1550.15	21.6451
1550.42	24.6708
1550.68	26.713
1550.94	19.7161
1551.2	23.7538
1551.46	26.7502
1551.73	24.7448
1551.99	23.7361
1552.25	24.7325
1552.51	24.7435
1552.77	24.7537
1553.03	25.755
1553.3	25.7478
1553.56	26.7328
1553.82	26.7287
1554.08	26.7267
1554.34	26.7215
1554.61	22.7037
1554.87	22.6964
1555.13	27.6981
1555.39	25.6912
1555.65	26.6914
1555.91	21.6828
1556.18	26.6932
1556.44	24.69
1556.7	25.6881
1556.96	25.6886
1557.22	26.6921
1557.48	23.6884
1557.75	25.6925
1558.01	24.6895
1558.27	23.6836
1558.53	21.6739
1558.79	21.6687
1559.06	23.663
1559.32	23.656
1559.58	29.6505
1559.84	25.6447
1560.1	24.6407
1560.36	24.6373
1560.63	23.6355
1560.89	22.6343
1561.15	25.6311
1561.41	23.6323
1561.67	23.6341
1561.93	28.6364
1562.19	24.6449
1562.46	25.6524
1562.72	25.6527
1562.98	22.6513
1563.24	23.6497
1563.5	22.6509
1563.76	24.6488
1564.02	24.6474
1564.29	28.6572
1564.55	27.6676
1564.81	23.668
1565.07	27.6694
1565.33	24.6537
1565.59	23.6128
1565.85	25.5487
1566.11	22.5327
1566.38	23.623
1566.64	23.6512
1566.9	23.6394
1567.16	23.6241
1567.42	27.6419
1567.68	27.6662
1567.94	26.6597
1568.2	25.6418
1568.47	26.6448
1568.73	26.6486
1568.99	22.6507
1569.25	26.6482
1569.51	25.6391
1569.77	23.6352
1570.03	24.6348
1570.29	21.6388
1570.55	21.6394
1570.82	25.6375
1571.08	27.6359
1571.34	25.6361
1571.6	24.6346
1571.86	24.631
1572.12	22.6289
1572.38	28.6217
1572.64	25.6219
1572.9	24.6186
1573.17	24.6151
1573.43	25.6101
1573.69	26.6042
1573.95	25.6026
1574.21	23.6073
1574.47	24.6098
1574.73	25.6139
1574.99	23.6227
1575.25	28.6233
1575.51	27.6311
1575.78	30.6342
1576.04	28.637
1576.3	26.6364
1576.56	25.6368
1576.82	27.6324
1577.08	23.6284
1577.34	27.6136
1577.6	28.602
1577.86	27.5945
1578.12	24.5936
1578.38	23.5893
1578.64	25.5791
1578.9	25.5777
1579.17	26.5745
1579.43	23.5836
1579.69	26.5748
1579.95	27.5734
1580.21	26.5803
1580.47	26.5823
1580.73	25.5857
1580.99	24.5876
1581.25	22.5908
1581.51	25.5781
1581.77	27.5684
1582.03	24.5733
1582.29	23.5719
1582.55	25.5629
1582.81	32.5348
1583.07	26.5555
1583.33	30.5385
1583.59	27.5495
1583.85	26.5528
1584.11	28.5422
1584.38	24.5585
1584.64	25.5567
1584.9	28.5468
1585.16	24.5635
1585.42	24.5634
1585.68	26.5543
1585.94	27.5498
1586.2	28.5432
1586.46	25.5496
1586.72	27.5344
1586.98	26.5344
1587.24	27.5262
1587.5	28.5184
1587.76	28.5161
1588.02	28.5148
1588.28	25.5304
1588.54	27.5225
1588.8	28.5208
1589.06	27.5298
1589.32	23.5517
1589.58	29.5278
1589.84	29.5306
1590.1	26.5449
1590.36	27.5405
1590.62	26.5471
1590.88	24.5586
1591.14	29.5405
1591.4	27.548
1591.66	26.5521
1591.92	27.5462
1592.18	27.5435
1592.44	25.5466
1592.7	23.5483
1592.96	30.5076
1593.22	27.5187
1593.48	22.5368
1593.74	27.4982
1594	25.4999
1594.26	28.4736
1594.52	25.4902
1594.78	31.4498
1595.04	27.4801
1595.3	25.4985
1595.56	29.4768
1595.82	25.5021
1596.08	29.4638
1596.34	28.47
1596.6	26.4836
1596.86	27.4772
1597.12	26.4851
1597.38	24.5003
1597.64	26.4894
1597.9	26.4917
1598.16	30.4651
1598.42	26.4888
1598.68	28.4706
1598.94	27.4702
1599.2	25.4783
1599.46	26.4662
1599.72	32.4159
1599.98	31.4184
1600.24	28.4372
1600.5	24.4653
1600.76	27.4357
1601.02	27.4292
1601.28	30.3942
1601.54	29.3936
1601.8	27.4034
1602.06	30.3668
1602.32	29.3706
1602.58	30.3549
1602.84	24.411
1603.1	28.3627
1603.36	27.3674
1603.62	30.3293
1603.88	29.3368
1604.14	28.3458
1604.4	30.3226
1604.66	27.357
1604.92	26.3691
1605.17	30.3246
1605.43	27.359
1605.69	29.3377
1605.95	33.2958
1606.21	29.3436
1606.47	28.3584
1606.73	36.2763
1606.99	26.3864
1607.25	28.37
1607.51	28.3709
1607.77	31.3315
1608.03	30.369
1608.29	31.2377
1608.55	28.5155
1608.81	28.2356
1609.07	29.4817
1609.32	29.4046
1609.58	28.6409
1609.84	27.727
1610.1	31.1893
1610.36	30.0325
1610.62	30.8886
1610.88	29.4481
1611.14	30.0901
1611.4	29.7826
1611.66	29.7983
1611.92	26.9606
1612.18	33.4544
1612.44	29.7269
1612.69	28.7286
1612.95	28.8535
1613.21	24.4256
1613.47	29.3435
1613.73	30.3304
1613.99	29.1285
1614.25	29.1729
1614.51	26.179
1614.77	28.0353
1615.03	31.9862
1615.29	27.3748
1615.54	31.8909
1615.8	29.425
1616.06	31.6874
1616.32	29.6837
1616.58	28.4416
1616.84	30.5651
1617.1	30.7324
1617.36	31.1624
1617.62	32.4404
1617.88	31.317
1618.13	29.1546
1618.39	30.0364
1618.65	29.3449
1618.91	28.7047
1619.17	29.5252
1619.43	32.2403
1619.69	28.4985
1619.95	28.3223
1620.2	29.9897
1620.46	29.1803
1620.72	30.1579
1620.98	32.0417
1621.24	27.306
1621.5	30.1792
1621.76	31.5015
1622.02	30.3744
1622.27	30.9457
1622.53	31.8018
1622.79	30.8129
1623.05	30.1918
1623.31	30.8899
1623.57	30.6133
1623.83	29.1454
1624.09	31.2218
1624.34	30.1945
1624.6	29.3627
1624.86	31.3107
1625.12	31.6813
1625.38	29.7188
1625.64	29.8495
1625.9	29.5345
1626.15	31.3314
1626.41	32.5093
1626.67	32.1294
1626.93	27.9083
1627.19	30.5775
1627.45	30.3509
1627.7	30.073
1627.96	30.6614
1628.22	31.1595
1628.48	28.4308
1628.74	30.5034
1629	30.7338
1629.26	32.3308
1629.51	31.7909
1629.77	29.565
1630.03	28.7948
1630.29	31.5854
1630.55	29.8192
1630.81	32.8238
1631.06	30.9095
1631.32	29.3421
1631.53	29.3702
1631.79	32.3302
1632.05	33.3216
1632.31	29.3853
1632.57	36.2821
1632.84	29.3919
1633.1	33.352
1633.36	32.354
1633.62	35.2934
1633.88	33.3188
1634.14	33.3235
1634.4	33.3289
1634.66	32.345
1634.93	30.3744
1635.19	32.3453
1635.45	29.3871
1635.71	33.3277
1635.97	30.3683
1636.23	34.3069
1636.49	34.3026
1636.75	32.3279
1637.02	32.3235
1637.28	30.3485
1637.54	31.3276
1637.8	29.3554
1638.06	32.3081
1638.32	36.2432
1638.58	33.2862
1638.84	32.2993
1639.1	32.2996
1639.37	35.2528
1639.63	30.3307
1639.89	35.2522
1640.15	36.2359
1640.41	28.3602
1640.67	29.3454
1640.93	31.32
1641.19	34.2783
1641.46	31.3255
1641.72	33.2925
1641.98	32.3043
1642.24	30.3331
1642.5	33.2847
1642.76	31.3145
1643.02	32.2974
1643.28	29.3433
1643.54	31.3112
1643.8	36.2317
1644.06	33.2761
1644.33	30.3201
1644.59	33.2671
1644.85	28.3436
1645.11	32.2777
1645.37	33.2641
1645.63	36.2205
1645.89	34.2552
1646.15	28.3511
1646.41	25.3962
1646.67	31.2964
1646.93	30.3092
1647.19	29.3235
1647.46	33.2549
1647.72	32.2677
1647.98	30.2978
1648.24	33.2474
1648.5	30.2983
1648.76	33.2545
1649.02	32.2771
1649.28	31.3091
1649.54	35.2534
1649.8	29.3429
1650.06	33.2769
1650.32	40.1668
1650.58	34.2711
1650.85	34.2795
1651.11	31.3307
1651.37	30.3515
1651.63	32.3262
1651.89	32.328
1652.15	34.2991
1652.41	33.3137
1652.67	31.344
1652.93	33.3116
1653.19	31.337
1653.45	29.3647
1653.71	32.3205
1653.97	34.2926
1654.23	26.4129
1654.49	33.3129
1654.75	33.3142
1655.01	29.3741
1655.27	34.3065
1655.53	31.3556
1655.8	29.3924
1656.06	33.3493
1656.32	28.4232
1656.57	34.3496
1656.84	30.4043
1657.1	34.3542
1657.36	30.4048
1657.62	32.3762
1657.88	31.3857
1658.14	28.423
1658.4	36.3151
1658.66	31.3777
1658.92	28.4136
1659.18	28.4094
1659.44	28.4051
1659.7	29.387
1659.96	30.3685
1660.22	31.3476
1660.48	30.3643
1660.74	27.4103
1661	31.359
1661.26	34.3236
1661.52	31.3705
1661.78	28.4169
1662.04	32.3665
1662.3	32.369
1662.56	29.3813
1662.82	32.4007
1663.08	31.4457
1663.34	31.4283
1663.6	27.4716
1663.86	31.4166
1664.12	33.3235
1664.38	31.3848
1664.64	29.418
1664.9	32.3827
1665.16	30.4232
1665.42	26.4771
1665.68	29.4093
1665.94	31.3538
1666.2	28.469
1666.46	32.4306
1666.72	29.4609
1666.98	31.3942
1667.24	29.3277
1667.5	29.4145
1667.76	27.4341
1668.02	32.3635
1668.28	31.3734
1668.54	30.3816
1668.8	27.4225
1669.06	30.396
1669.32	30.4133
1669.58	31.4043
1669.84	25.4785
1670.1	29.4305
1670.36	28.4398
1670.62	32.3905
1670.88	33.3956
1671.14	29.4526
1671.4	29.4495
1671.66	29.4471
1671.92	30.4341
1672.18	28.4586
1672.44	30.438
1672.69	30.439
1672.95	25.4963
1673.21	26.4846
1673.47	30.4395
1673.73	27.475
1673.99	28.4655
1674.25	31.4348
1674.51	29.4612
1674.77	29.4648
1675.03	28.4794
1675.29	25.5167
1675.55	30.4682
1675.81	29.4813
1676.07	29.4816
1676.33	31.4604
1676.59	26.5131
1676.85	30.4733
1677.11	31.4639
1677.37	30.4736
1677.63	28.4925
1677.89	30.469
1678.14	24.5279
1678.4	22.5445
1678.66	27.4848
1678.92	27.4797
1679.18	30.4421
1679.44	28.461
1679.7	32.4127
1679.96	29.444
1680.22	25.4876
1680.48	27.4621
1680.74	30.4237
1681	28.4444
1681.26	30.4177
1681.52	31.4041
1681.78	28.4397
1682.03	30.4152
1682.29	25.4756
1682.55	29.4274
1682.81	26.4641
1683.07	27.4509
1683.33	27.45
1683.59	32.389
1683.85	28.4373
1684.11	24.4851
1684.37	30.4102
1684.63	28.4301
1684.89	24.4774
1685.14	29.4136
1685.4	27.4376
1685.66	27.437
1685.92	22.4995
1686.18	25.462
1686.44	27.4375
1686.7	27.4396
1686.96	29.4207
1687.22	25.4721
1687.48	28.4364
1687.73	24.4828
1687.99	24.4798
1688.25	25.4645
1688.51	26.4496
1688.77	28.4214
1689.03	31.379
1689.29	29.3981
1689.55	28.4061
1689.81	23.4674
1690.06	29.3819
1690.32	27.4026
1690.58	28.387
1690.84	27.407
1691.1	23.4641
1691.36	28.3995
1691.62	30.3744
1691.88	24.4565
1692.13	28.4063
1692.39	26.4324
1692.65	24.457
1692.91	26.4269
1693.17	25.4351
1693.43	24.4429
1693.69	30.3527
1693.95	23.443
1694.2	24.4238
1694.46	28.3605
1694.72	29.3396
1694.98	24.41
1695.24	25.3946
1695.5	28.3513
1695.76	25.3973
1696.01	24.4135
1696.27	26.3856
1696.53	27.3746
1696.79	26.3916
1697.05	28.3623
1697.31	24.4179
1697.57	28.3541
1697.82	17.5121
1698.08	26.3698
1698.34	24.3951
1698.6	26.3594
1698.86	25.3708
1699.12	25.3672
1699.38	20.4455
1699.63	27.3324
1699.89	25.3658
1700.15	22.4139
1700.41	24.3823
1700.67	25.3615
1700.92	20.4413
1701.18	24.3753
1701.44	22.4064
1701.7	24.3715
1701.96	25.3509
1702.22	27.3123
1702.47	27.3073
1702.73	26.3189
1702.99	23.3658
1703.25	26.3123
1703.51	22.381
1703.77	26.3097
1704.02	25.3246
1704.28	22.3757
1704.54	22.3776
1704.8	20.4152
1705.06	24.3464
1705.32	24.3452
1705.57	26.3087
1705.83	24.3434
1706.09	26.3084
1706.35	24.3394
1706.61	27.2807
1706.86	26.2922
1707.12	26.2855
1707.38	26.2789
1707.64	26.2731
1707.9	24.3039
1708.16	22.3347
1708.41	23.3079
1708.67	26.2407
1708.93	22.3121
1709.19	24.2636
1709.44	22.2996
1709.7	27.1912
1709.96	23.2734
1710.22	27.1887
1710.48	24.2522
1710.73	24.2529
1710.99	26.2129
1711.25	26.2167
1711.51	22.3018
1711.77	21.3243
1712.02	23.2847
1712.28	26.2235
1712.54	25.2411
1712.8	24.2548
1713.06	26.2021
1713.31	23.2559
1713.57	25.2023
1713.83	25.193
1714.09	26.1606
1714.34	22.2477
1714.6	25.1754
1714.86	26.1497
1715.12	25.1714
1715.38	25.1708
1715.63	22.2444
1715.89	21.2721
1716.15	24.203
1716.41	21.2699
1716.66	25.1742
1716.92	24.192
1717.18	23.2087
1717.44	23.2005
1717.69	23.1906
1717.95	18.3033
1718.21	26.0928
1718.47	21.2111
1718.72	24.126
1718.98	21.1992
1719.24	22.1701
1719.5	19.2486
1719.75	26.0637
1720.01	23.1414
1720.27	24.1166
1720.53	24.1175
1720.78	22.1678
1721.04	22.1636
1721.3	22.1575
1721.56	23.1256
1721.81	22.1481
1722.07	23.1155
1722.33	22.1374
1722.59	19.2155
1722.84	23.0976
1723.1	20.1774
1723.36	25.0296
1723.62	24.054
1723.87	23.0801
1724.13	20.1665
1724.39	21.1357
1724.64	23.0763
1724.9	23.0725
1725.16	24.0368
1725.42	24.9974
1725.67	20.1395
1725.93	24.9788
1726.19	25.9417
1726.45	24.0004
1726.7	23.0329
1726.96	24.0001
1727.22	24.9653
1727.47	19.145
1727.73	22.05
1727.99	22.0551
1728.24	23.991
1728.5	22.0498
1728.76	21.0731
1729.02	20.0772
1729.27	21.0115
1729.53	22.9291
1729.79	21.9768
1730.05	22.9539
1730.3	22.9628
1730.56	22.9487
1730.82	21.0116
1731.07	21.9747
1731.33	20.0666
1731.59	24.9001
1731.84	22.0011
1732.1	22.0004
1732.36	21.999
1732.61	21.9968
1732.87	21.0281
1733.13	25.855
1733.39	21.986
1733.64	21.9793
1733.9	24.8659
1734.16	23.8907
1734.41	21.9544
1734.67	23.8757
1734.93	20.0125
1735.18	20.0059
1735.44	19.0362
1735.7	21.9196
1735.95	19.0267
1736.21	20.9489
1736.47	22.8718
1736.72	20.9446
1736.98	20.9417
1737.24	24.7873
1737.49	24.7836
1737.75	22.8564
1738.01	19.9681
1738.26	22.8493
1738.52	21.8829
1738.78	23.8006
1739.03	21.8735
1739.29	18.0252
1739.55	21.8617
1739.8	24.7338
1740.06	21.8435
1740.32	23.7526
1740.57	23.7435
1740.83	18.943
1741.09	21.8133
1741.34	21.8083
1741.6	22.7613
1741.86	18.9256
1742.11	23.7103
1742.37	18.9203
1742.63	22.7488
1742.88	24.6615
1743.14	23.7016
1743.4	21.7856
1743.65	25.6136
1743.91	19.8685
1744.16	22.735
1744.42	23.6876
1744.68	20.8143
1744.93	20.8127
1745.19	25.595
1745.45	22.7258
1745.7	21.7692
1745.96	19.855
1746.22	19.8524
1746.47	25.5853
1746.73	18.8872
1746.98	21.7483
1747.24	25.5647
1747.5	22.692
1747.75	20.7768
1748.01	23.6359
1748.27	22.6785
1748.52	18.8597
1748.78	22.6781
1749.03	20.7697
1749.29	19.8163
1749.55	19.8185
1749.8	23.6414
1750.06	21.7357
1750.32	23.6513
1750.57	20.7899
1750.83	19.8385
1751.08	24.6194
1751.34	18.8862
1751.6	20.7987
1751.85	19.84
1752.11	20.7899
1752.36	21.7388
1752.62	19.8234
1752.88	23.6388
1753.13	21.7239
1753.39	20.7645
1753.64	19.8061
1753.9	20.7568
1754.15	20.7534
1754.41	18.8411
1754.67	21.6975
1754.92	18.8339
1755.18	23.5975
1755.43	18.8289
1755.69	23.5916
1755.95	21.6818
1756.2	20.7244
1756.46	19.7667
1756.71	21.6658
1756.97	20.7068
1757.23	19.7485
1757.48	23.5479
1757.74	25.4473
1757.99	20.6887
1758.25	24.4945
1758.5	22.5988
1758.76	23.5524
1759.02	21.6497
1759.27	19.7468
1759.53	21.6501
1759.78	23.5544
1760.04	23.5539
1760.3	24.5036
1760.55	22.5985
1760.81	19.7421
1761.06	22.5936
1761.32	20.6876
1761.57	22.5852
1761.83	18.7781
1762.08	18.7757
1762.34	19.7247
1762.6	18.7733
1762.85	22.5792
1763.11	20.68
1763.36	24.4837
1763.62	21.6302
1763.87	20.68
1764.13	18.7796
1764.38	18.7815
1764.64	21.6389
1764.89	24.5017
1765.15	22.602
1765.4	22.6049
1765.66	21.6551
1765.92	21.6565
1766.17	23.5613
1766.43	20.7051
1766.68	18.8002
1766.94	22.6065
1767.19	21.653
1767.45	20.7007
1767.7	19.7471
1767.96	24.5027
1768.21	19.7412
1768.47	21.6417
1768.73	20.6884
1768.98	19.7355
1769.24	23.5309
1769.49	22.5674
1769.75	19.706
1770	20.6487
1770.26	19.6997
1770.51	22.5537
1770.77	15.9089
1771.02	20.6595
1771.28	20.6609
1771.53	19.716
1771.79	21.6245
1772.04	19.7254
1772.3	21.6283
1772.55	18.7785
1772.81	22.5875
1773.06	23.5424
1773.32	18.7874
1773.57	20.6929
1773.83	21.6468
1774.08	20.6969
1774.34	17.8425
1774.59	20.6996
1774.85	26.413
1775.1	22.6078
1775.36	19.7526
1775.61	23.566
1775.87	21.6709
1776.12	21.6764
1776.38	20.7259
1776.63	20.7266
1776.89	19.7723
1777.14	19.7697
1777.4	16.9071
1777.65	18.8111
1777.91	17.8549
1778.16	20.7094
1778.42	18.8006
1778.67	22.6061
1778.93	21.6492
1779.18	23.547
1779.44	22.5888
1779.69	18.7796
1779.95	23.536
1780.2	16.8812
1780.46	21.6409
1780.71	20.6906
1780.97	20.6924
1781.22	19.7425
1781.47	19.7428
1781.73	22.5997
1781.98	18.7932
1782.24	19.748
1782.49	20.7036
1782.75	19.7557
1783	19.7587
1783.26	21.6668
1783.51	16.904
1783.77	19.7656
1784.02	21.6747
1784.28	20.7244
1784.53	21.6817
1784.79	23.595
1785.04	18.8285
1785.29	19.7841
1785.55	20.7381
1785.8	18.8288
1786.06	20.7348
1786.31	21.6864
1786.57	20.7328
1786.82	21.6885
1787.08	19.7837
1787.33	20.7422
1787.58	18.8386
1787.84	19.8007
1788.09	17.9014
1788.35	21.7377
1788.6	20.7947
1788.86	20.8035
1789.11	19.8496
1789.37	21.7695
1789.62	22.7357
1789.87	20.8249
1790.13	21.786
1790.38	27.54
1790.64	20.8329
1790.89	22.7505
1791.15	19.8734
1791.4	25.6195
1791.65	15.0675
1791.91	20.8126
1792.16	19.8529
1792.42	21.7684
1792.67	19.8538
1792.93	20.8126
1793.18	20.8153
1793.43	22.733
1793.69	21.7755
1793.94	23.6918
1794.2	20.8204
1794.45	21.7794
1794.7	23.6953
1794.96	22.7336
1795.21	21.7817
1795.47	21.7986
1795.72	17.9714
1795.97	21.8155
1796.23	20.859
1796.48	19.9025
1796.74	20.8667
1796.99	20.8708
1797.25	21.8358
1797.5	21.8398
1797.75	22.8045
1798.01	21.8462
1798.26	19.9258
1798.51	20.8892
1798.77	20.8904
1799.02	20.8905
1799.28	18.0047
1799.53	19.9255
1799.78	20.8836
1800.04	19.9184
1800.29	21.8365
1800.55	18.951
1800.8	22.7913
1801.05	20.868
1801.31	22.7878
1801.56	19.9055
1801.81	18.9449
1802.07	20.8666
1802.32	19.9074
1802.58	22.7914
1802.83	22.7943
1803.08	20.8761
1803.34	20.8802
1803.59	21.8461
1803.84	19.9267
1804.1	18.9668
1804.35	21.853
1804.61	20.8939
1804.86	20.8978
1805.11	18.0149
1805.37	19.9438
1805.62	21.8742
1805.87	17.0647
1806.13	23.8105
1806.38	18.0346
1806.64	20.9279
1806.89	19.0034
1807.14	18.0413
1807.4	22.8608
1807.65	24.7886
1807.9	19.0058
1808.16	21.8974
1808.41	19.0062
1808.66	20.9344
1808.92	22.8628
1809.17	21.8996
1809.42	21.9004
1809.68	20.9371
1809.93	20.938
1810.18	20.9388
1810.44	20.9394
1810.69	20.9396
1810.94	19.9744
1811.2	23.8296
1811.45	20.937
1811.7	19.9724
1811.96	20.9362
1812.21	21.9004
1812.46	19.0091
1812.72	20.9395
1812.97	19.9781
1813.22	19.017
1813.48	20.9491
1813.73	22.8798
1813.98	18.0585
1814.24	19.9927
1814.49	19.998
1814.74	22.9005
1815	20.0101
1815.25	22.9125
1815.5	20.9834
1815.76	20.0187
1816.01	21.9526
1816.26	20.9871
1816.52	22.9213
1816.77	21.9561
1817.02	20.9909
1817.27	20.9896
1817.53	21.9531
1817.78	19.0445
1818.03	21.9353
1818.29	18.0731
1818.54	24.8382
1818.79	20.9798
1819.05	23.8824
1819.3	21.9483
1819.55	20.017
1819.8	22.919
1820.06	20.0216
1820.31	20.0234
1820.56	20.9926
1820.82	20.0283
1821.07	20.0305
1821.32	17.1306
1821.58	22.9371
1821.83	18.103
1822.08	20.0409
1822.33	20.0432
1822.59	21.9808
1822.84	23.9182
1823.09	19.0793
1823.34	21.0164
1823.6	20.0478
1823.85	20.0461
1824.1	21.9798
1824.36	21.0112
1824.61	23.9167
1824.86	23.9188
1825.11	20.0483
1825.37	21.9867
1825.62	22.9573
1825.87	24.8958
1826.12	21.0225
1826.38	20.0539
1826.63	18.1173
1826.88	22.9602
1827.14	23.9292
1827.39	21.0249
1827.64	21.0268
1827.89	20.0603
1828.15	19.0933
1828.4	19.0934
1828.65	19.0925
1828.9	21.0281
1829.16	17.1505
1829.41	19.0859
1829.66	20.0536
1829.91	21.9897
1830.17	20.0515
1830.42	21.9858
1830.67	25.8561
1830.92	22.9489
1831.18	21.0127
1831.43	21.9832
1831.68	23.9228
1831.93	20.052
1832.19	20.0545
1832.44	21.0258
1832.69	20.0598
1832.94	22.9711
1833.2	21.0358
1833.45	21.0361
1833.7	19.0979
1833.95	23.9466
1834.2	21.0393
1834.46	20.0712
1834.71	21.0352
1834.96	21.9928
1835.21	21.0136
1835.47	19.0682
1835.72	20.03
1835.97	20.9918
1836.22	21.9587
1836.48	22.9206
1836.73	23.0134
1836.98	21.0686
1837.23	20.0707
1837.48	21.0302
1837.74	21.0152
1837.99	20.0343
1838.24	20.9807
1838.49	22.9003
1838.74	20.9651
1839	21.0001
1839.25	22.9522
1839.5	19.0854
1839.75	22.9639
1840	19.0905
1840.26	21.0339
1840.51	21.0145
1840.76	20.032
1841.01	20.9872
1841.27	17.1097
1841.52	19.0341
1841.77	21.923
1842.02	17.0869
1842.27	18.0457
1842.53	20.9338
1842.78	19.9623
1843.03	19.9657
1843.28	18.0346
1843.53	19.0012
1843.78	21.8947
1844.04	18.0361
1844.29	19.9631
1844.54	18.9984
1844.79	20.93
1845.04	24.789
1845.3	19.9623
1845.55	19.9629
1845.8	20.9276
1846.05	17.0763
1846.3	21.9106
1846.55	23.8507
1846.81	17.1021
1847.06	21.9222
1847.31	21.8907
1847.56	21.8538
1847.81	19.9214
1848.07	18.9591
1848.32	19.9316
1848.57	21.8679
1848.82	20.8936
1849.07	20.8879
1849.32	22.8142
1849.57	21.8469
1849.83	24.7277
1850.08	19.9095
1850.33	20.8654
1850.58	22.7803
1850.83	19.8901
1851.09	21.8066
1851.34	18.9197
1851.59	19.8766
1851.84	17.9528
1852.09	19.8715
1852.34	23.7114
1852.59	20.8304
1852.84	22.7508
1853.1	23.7109
1853.35	17.9489
1853.6	21.7882
1853.85	22.7458
1854.1	21.7814
1854.35	22.7348
1854.6	22.7274
1854.86	19.8438
1855.11	17.9229
1855.36	22.7136
1855.61	19.8316
1855.86	17.9088
1856.11	18.8633
1856.36	18.8615
1856.61	19.8182
1856.87	23.6494
1857.12	20.7757
1857.37	20.7747
1857.62	21.7305
1857.87	20.7703
1858.12	19.8102
1858.37	22.6789
1858.63	20.76
1858.88	20.7552
1859.13	20.7503
1859.38	19.7887
1859.63	18.8273
1859.88	22.6481
1860.13	22.6474
1860.38	20.7354
1860.63	16.9123
1860.89	21.6967
1861.14	19.7875
1861.39	21.7035
1861.64	21.7075
1861.89	21.7109
1862.14	20.755
1862.39	18.8399
1862.64	17.8802
1862.9	19.7895
1863.15	22.6538
1863.4	20.736
1863.65	21.6871
1863.9	21.6824
1864.15	18.8115
1864.4	20.7186
1864.65	19.7597
1864.9	21.6661
1865.15	22.6164
1865.4	18.7922
1865.66	24.5122
1865.91	20.6881
1866.16	19.7265
1866.41	20.6714
1866.66	21.6152
1866.91	18.7489
1867.16	23.501
1867.41	21.588
1867.66	22.5311
1867.91	21.5734
1868.16	19.6679
1868.41	21.567
1868.67	18.7135
1868.92	20.615
1869.17	21.5667
1869.42	19.665
1869.67	17.7626
1869.92	22.5144
1870.17	21.5624
1870.42	23.4622
1870.67	22.5105
1870.92	21.5591
1871.17	17.7569
1871.42	22.5084
1871.67	20.6061
1871.92	20.6037
1872.17	18.6999
1872.42	22.4973
1872.68	17.7458
1872.93	22.4908
1873.18	18.6882
1873.43	19.6349
1873.68	25.3298
1873.93	20.5815
1874.18	18.6803
1874.43	12.9831
1874.68	21.5186
1874.93	20.5646
1875.18	23.404
1875.43	18.6576
1875.68	19.6
1875.93	23.3824
1876.18	17.6883
1876.43	21.4677
1876.68	20.5148
1876.93	17.6718
1877.18	20.5067
1877.43	18.6057
1877.68	21.4287
1877.93	23.2917
1878.18	21.4215
1878.44	24.343
1878.69	19.5759
1878.93	20.5132
1879.19	21.4566
1879.44	22.4238
1879.69	22.4341
1879.94	21.48
1880.19	22.4203
1880.44	21.4722
1880.69	23.3642
1880.94	18.6345
1881.19	27.151
1881.44	19.576
1881.69	21.4604
1881.94	23.3414
1882.19	21.4388
1882.44	20.4824
1882.69	21.4148
1882.94	22.3434
1883.19	21.3936
1883.44	19.4926
1883.69	21.5193
1883.94	20.4814
1884.19	23.2552
1884.44	22.3144
1884.69	20.4415
1884.94	21.3731
1885.19	21.381
1885.44	21.392
1885.69	20.4514
1885.94	21.3976
1886.19	18.5757
1886.44	19.5243
1886.69	19.5272
1886.94	20.4695
1887.19	18.5729
1887.44	19.5124
1887.69	20.4513
1887.94	24.2196
1888.19	18.5547
1888.44	23.2635
1888.69	19.4845
1888.94	20.4197
1889.19	17.5877
1889.44	22.2898
1889.69	21.3446
1889.94	21.3437
1890.19	20.4013
1890.44	21.3445
1890.69	24.1741
1890.94	24.1797
1891.19	23.2393
1891.43	18.5291
1891.68	21.3526
1891.94	22.2939
1892.18	23.2341
1892.43	21.3494
1892.68	21.3485
1892.93	20.4039
1893.18	20.3996
1893.43	24.156
1893.68	19.4403
1893.93	21.3107
1894.18	23.1877
1894.43	23.1914
1894.68	20.3638
1894.93	23.1787
1895.18	21.2979
1895.43	23.1774
1895.68	20.3604
1895.93	21.302
1896.18	23.184
1896.43	20.3673
1896.68	20.3705
1896.93	15.6732
1897.18	19.4374
1897.42	22.2614
1897.68	21.3228
1897.92	21.3238
1898.17	23.2049
1898.42	19.441
1898.67	22.2601
1898.92	23.1965
1899.17	26.0115
1899.42	22.2452
1899.67	22.2409
1899.92	21.2989
1900.17	24.1145
1900.42	22.2326
1900.67	22.2318
1900.92	20.3537
1901.16	20.3557
1901.41	22.2383
1901.66	19.4233
1901.91	24.1272
1902.16	22.2515
1902.41	19.4354
1902.66	18.4988
1902.91	20.3803
1903.16	22.2597
1903.41	20.3763
1903.66	21.3142
1903.91	23.1928
1904.16	21.3108
1904.41	22.2499
1904.65	19.4286
1904.9	18.4876
1905.15	22.247
1905.4	17.5457
1905.65	20.3655
1905.9	21.3043
1906.15	24.1174
1906.4	18.4725
1906.65	23.1664
1906.9	22.2244
1907.14	21.283
1907.39	18.4642
1907.64	19.4034
1907.89	21.2827
1908.14	24.1031
1908.39	22.2287
1908.64	21.291
1908.89	22.2317
1909.14	21.2943
1909.39	19.418
1909.63	19.4219
1909.88	21.3072
1910.13	19.4324
1910.38	20.3796
1910.63	18.5043
1910.88	19.4514
1911.13	21.3391
1911.38	24.1679
1911.62	21.3444
1911.87	21.3452
1912.12	22.287
1912.37	21.3435
1912.62	22.2838
1912.87	23.2251
1913.12	22.2831
1913.37	21.3413
1913.61	22.2838
1913.86	20.4031
1914.11	17.582
1914.36	20.4153
1914.61	22.3056
1914.86	20.4241
1915.11	22.315
1915.36	20.4324
1915.6	20.4353
1915.85	18.5491
1916.1	25.154
1916.35	20.4341
1916.6	25.1504
1916.85	22.3167
1917.1	18.5392
1917.34	23.2509
1917.59	23.2475
1917.84	22.3022
1918.09	20.4154
1918.34	21.3586
1918.59	21.3615
1918.83	21.3662
1919.08	23.2585
1919.33	20.4345
1919.58	22.3289
1919.83	22.3382
1920.08	22.346
1920.33	17.6258
1920.57	26.1309
1920.82	24.2382
1921.07	22.35
1921.32	23.3008
1921.57	20.4707
1921.81	22.3648
1922.06	21.4222
1922.31	22.3698
1922.56	21.424
1922.81	22.368
1923.06	22.3645
1923.31	18.5795
1923.55	21.4137
1923.8	18.5761
1924.05	21.4098
1924.3	20.4617
1924.55	21.4028
1924.79	21.4001
1925.04	19.5098
1925.29	23.2896
1925.54	19.5129
1925.79	18.5719
1926.04	20.4683
1926.28	23.3109
1926.53	20.4791
1926.78	23.3232
1927.03	23.3305
1927.28	23.3353
1927.52	25.2324
1927.77	24.289
1928.02	21.4507
1928.27	20.5059
1928.52	20.508
1928.76	24.299
1929.01	23.3546
1929.26	20.5146
1929.51	22.4135
1929.76	16.7302
1930	22.4253
1930.25	23.3795
1930.5	20.54
1930.75	19.5958
1931	23.3984
1931.24	18.6529
1931.49	20.5523
1931.74	22.4495
1931.99	23.3958
1932.24	23.3926
1932.48	24.3383
1932.73	23.386
1932.98	21.4848
1933.23	23.3812
1933.47	21.4808
1933.72	22.4307
1933.97	20.5393
1934.22	22.448
1934.46	19.6125
1934.71	19.6297
1934.96	25.3565
1935.21	21.5657
1935.46	23.4848
1935.7	19.6824
1935.95	24.4579
1936.2	24.4417
1936.45	20.6269
1936.69	20.6255
1936.94	24.4344
1937.19	23.4766
1937.44	16.8035
1937.68	22.5136
1937.93	22.5089
1938.18	21.5528
1938.43	25.3552
1938.68	21.5481
1938.92	23.4596
1939.17	20.6058
1939.42	23.4659
1939.67	23.4697
1939.91	21.5675
1940.16	22.5238
1940.41	22.5246
1940.66	21.577
1940.9	20.6289
1941.15	22.5503
1941.4	26.376
1941.64	25.4217
1941.89	15.8766
1942.14	19.6862
1942.39	24.4408
1942.63	21.5887
1942.88	23.5199
1943.13	20.6609
1943.38	19.7068
1943.62	21.6078
1943.87	22.5521
1944.12	23.498
1944.37	21.6041
1944.61	22.5633
1944.86	20.6584
1945.11	21.6181
1945.35	21.6233
1945.6	18.7622
1945.85	23.5453
1946.1	22.5945
1946.34	22.5987
1946.59	24.5146
1946.84	20.6917
1947.09	17.8236
1947.33	24.5181
1947.58	25.4723
1947.83	22.6009
1948.07	20.6878
1948.32	20.6876
1948.57	20.6874
1948.82	20.6856
1949.06	23.5552
1949.31	19.7339
1949.56	23.5641
1949.8	21.6555
1950.05	25.489
1950.3	20.7092
1950.54	20.7178
1950.79	20.7273
1951.04	20.7345
1951.29	23.6191
1951.53	21.7103
1951.78	22.6781
1952.03	21.725
1952.27	25.5697
1952.52	22.6927
1952.77	20.7755
1953.01	21.735
1953.26	22.6995
1953.51	23.666
1953.76	21.7383
1954	21.73
1954.25	20.7565
1954.49	22.6629
1954.74	22.6509
1954.99	23.5987
1955.24	23.5952
1955.48	21.6784
1955.73	18.8068
1955.98	23.6034
1956.22	23.6136
1956.47	21.7113
1956.72	24.5965
1956.96	21.7243
1957.21	20.7678
1957.46	20.7727
1957.7	22.6982
1957.95	18.8592
1958.2	20.7838
1958.44	19.8248
1958.69	21.7484
1958.94	21.7495
1959.18	25.5922
1959.43	19.8215
1959.68	22.7021
1959.92	19.8187
1960.17	21.7369
1960.42	18.8518
1960.66	19.8093
1960.91	23.6468
1961.16	21.7222
1961.4	22.6782
1961.65	23.6344
1961.9	19.7934
1962.14	22.673
1962.39	22.6742
1962.63	22.6751
1962.88	23.6358
1963.13	19.7973
1963.37	19.798
1963.62	25.5584
1963.87	22.6793
1964.11	24.6004
1964.36	20.7628
1964.61	18.8444
1964.85	21.7248
1965.1	21.7231
1965.35	21.7234
1965.59	19.8022
1965.84	19.8026
1966.08	24.606
1966.33	20.7687
1966.58	19.8126
1966.82	21.7388
1967.07	19.82
1967.32	20.7836
1967.56	24.6277
1967.81	21.7443
1968.05	21.7461
1968.3	21.7469
1968.55	19.8251
1968.79	22.7087
1969.04	21.7453
1969.29	22.7025
1969.53	23.6578
1969.78	23.6502
1970.02	18.8413
1970.27	22.6765
1970.52	20.752
1970.76	23.6282
1971.01	23.624
1971.25	21.7016
1971.5	20.7397
1971.75	22.656
1971.99	19.7768
1972.24	21.6966
1972.48	23.6172
1972.73	17.8623
1972.98	22.6587
1973.22	21.6974
1973.47	24.5711
1973.71	22.6478
1973.96	21.6849
1974.21	21.6819
1974.45	21.68
1974.7	24.5546
1974.94	18.8036
1975.19	21.6799
1975.44	23.5988
1975.68	23.6018
1975.93	21.6876
1976.17	23.6085
1976.42	20.7334
1976.66	22.6531
1976.91	21.6947
1977.16	20.7355
1977.4	18.8163
1977.65	22.6516
1977.89	23.6081
1978.14	20.7276
1978.39	23.6005
1978.63	19.7627
1978.88	25.5116
1979.12	20.7176
1979.37	19.759
1979.61	25.5106
1979.86	23.5937
1980.1	23.5946
1980.35	20.7191
1980.6	25.5095
1980.84	21.6716
1981.09	22.6261
1981.33	22.6241
1981.58	21.6629
1981.82	23.5761
1982.07	25.49
1982.31	20.7003
1982.56	27.4035
1982.81	23.5688
1983.05	23.5648
1983.3	22.602
1983.54	21.6384
1983.79	20.6769
1984.03	21.6314
1984.28	24.4994
1984.52	24.497
1984.77	19.7125
1985.02	22.5797
1985.26	25.4442
1985.51	22.5699
1985.75	22.567
1986	22.567
1986.24	22.5683
1986.49	25.4393
1986.73	18.7505
1986.98	21.6207
1987.22	25.4446
1987.47	22.5776
1987.71	23.5298
1987.96	23.5229
1988.21	23.515
1988.45	19.6854
1988.7	20.6315
1988.94	23.4763
1989.19	23.4604
1989.43	22.4824
1989.68	18.8284
1989.92	22.5237
1990.17	23.3469
1990.41	21.3997
1990.66	20.8528
1990.9	21.5387
1991.15	22.3533
1991.39	21.7541
1991.64	21.547
1991.88	21.2287
1992.13	22.2903
1992.37	24.1688
1992.62	21.7418
1992.86	23.8118
1993.11	21.766
1993.35	20.8627
1993.6	18.7361
1993.84	23.0932
1994.09	23.4693
1994.33	24.2094
1994.58	23.6929
1994.82	21.1351
1995.07	21.8168
1995.31	22.8708
1995.56	20.8175
1995.8	22.7688
1996.05	21.38
1996.29	21.4907
1996.54	20.8849
1996.78	20.1313
1997.03	22.9892
1997.27	18.9139
1997.52	21.7568
1997.76	25.1434
1998.01	23.4624
1998.25	20.9007
1998.5	21.4797
1998.74	20.9802
1998.99	23.2615
1999.23	22.2582
1999.48	23.5651
1999.72	23.0871
1999.97	22.7782
2000.21	22.2672
2000.46	23.4063
2000.7	22.3871
2000.95	21.2633
2001.19	23.1049
2001.43	22.7411
2001.68	23.3739
2001.92	20.9733
2002.17	21.5636
2002.41	21.3583
2002.66	22.184
2002.9	21.4406
2003.15	22.7041
2003.39	21.3439
2003.64	23.1076
2003.88	21.568
2004.13	20.5254
2004.37	22.2828
2004.61	22.9617
2004.86	21.9514
2005.1	21.4535
2005.35	21.9064
2005.59	23.4381
2005.84	22.4207
2006.08	24.5504
2006.33	22.0223
2006.57	22.4344
2006.81	23.1473
2007.06	23.7388
2007.3	22.0873
2007.55	22.4847
2007.79	22.6941
2008.04	24.6198
2008.28	24.502
2008.53	22.7852
2008.77	22.4503
2009.01	22.2659
2009.26	23.0508
2009.5	21.4699
2009.75	20.2713
2009.99	24.0364
2010.24	23.1202
2010.48	22.4497
2010.73	22.7003
2010.97	22.3061
2011.21	21.5368
2011.46	22.5184
2011.7	22.5532
2011.95	24.1436
2012.19	19.7215
2012.43	22.4543
2012.68	21.5107
2012.92	21.5089
2013.17	17.7389
2013.42	22.4376
2013.67	21.4857
2013.91	16.778
2014.16	17.7116
2014.41	24.2802
2014.66	24.2672
2014.9	22.3786
2015.15	21.4371
2015.4	24.2533
2015.64	24.2564
2015.89	24.2605
2016.14	20.5076
2016.39	23.3216
2016.63	24.2664
2016.88	25.2239
2017.13	23.3477
2017.37	24.2859
2017.62	21.463
2017.87	23.3367
2018.11	19.5727
2018.36	23.3202
2018.61	20.4951
2018.86	17.6732
2019.1	26.1062
2019.35	22.3462
2019.6	23.2749
2019.84	22.3334
2020.09	25.1402
2020.34	21.3915
2020.58	21.3909
2020.83	20.4531
2021.08	19.5156
2021.33	21.3897
2021.57	22.3275
2021.82	22.3275
2022.07	21.3896
2022.31	23.2605
2022.56	22.3207
2022.81	22.3163
2023.05	21.3747
2023.3	22.3042
2023.55	24.1703
2023.8	26.0354
2024.04	21.354
2024.29	24.1539
2024.54	23.2143
2024.78	20.4033
2025.03	22.2642
2025.27	27.8592
2025.52	22.2494
2025.77	21.3095
2026.02	19.4376
2026.26	19.4306
2026.51	22.2305
2026.76	20.3725
2027	22.2525
2027.25	23.2037
2027.5	22.2883
2027.74	23.2358
2027.99	22.2969
2028.23	24.1526
2028.48	23.196
2028.73	24.9956
2028.98	20.3919
2029.22	20.4664
2029.47	19.4897
2029.72	26.0633
2029.96	22.2781
2030.21	23.1874
2030.45	20.3626
2030.7	22.2267
2030.95	23.1403
2031.19	25.9548
2031.44	22.2374
2031.69	20.3677
2031.93	19.4347
2032.18	23.1674
2032.43	23.174
2032.67	21.3141
2032.92	20.3878
2033.17	23.1974
2033.41	23.2032
2033.66	20.4035
2033.91	24.1496
2034.15	24.1529
2034.4	25.0749
2034.64	21.3214
2034.89	22.2326
2035.14	25.0253
2035.38	24.1025
2035.63	21.3099
2035.87	25.0584
2036.12	18.5326
2036.37	18.542
2036.61	20.4116
2036.86	21.3356
2037.11	20.4012
2037.35	26.0163
2037.6	23.2108
2037.84	22.2744
2038.09	23.207
2038.34	19.4648
2038.58	23.2005
2038.83	24.1312
2039.08	21.324
2039.32	22.2547
2039.57	21.3166
2039.81	24.1145
2040.06	25.0426
2040.31	21.3017
2040.55	25.9614
2040.8	21.2899
2041.04	21.2846
2041.29	24.0775
2041.54	25.9378
2041.78	22.2065
2042.03	24.0693
2042.27	20.3376
2042.52	21.2669
2042.77	22.194
2043.01	21.2604
2043.26	23.1235
2043.5	23.1254
2043.75	24.9956
2044	24.0731
2044.24	21.2845
2044.49	22.2206
2044.73	18.4877
2044.98	20.3485
2045.23	21.2714
2045.47	23.1151
2045.72	22.2107
2045.96	21.2846
2046.21	23.1832
2046.45	23.221
2046.7	22.266
2046.95	22.2443
2047.19	22.2277
2047.44	23.1619
2047.68	22.2217
2047.93	20.339
2048.17	23.131
2048.42	23.1319
2048.67	24.0651
2048.91	26.8636
2049.16	20.3391
2049.4	21.277
2049.65	20.3485
2049.89	24.0868
2050.14	24.0955
2050.39	25.0357
2050.63	25.0427
2050.88	23.1782
2051.12	21.3107
2051.37	21.3092
2051.61	20.3707
2051.86	23.1657
2052.11	22.2316
2052.35	19.4307
2052.6	25.0369
2052.84	20.3681
2053.09	25.0407
2053.33	24.1104
2053.58	24.1151
2053.82	25.0559
2054.07	21.3272
2054.31	20.3958
2054.56	22.2693
2054.8	22.2699
2055.05	25.0755
2055.3	25.0741
2055.54	23.2015
2055.79	20.3905
2056.03	22.258
2056.28	23.1918
2056.52	21.3196
2056.77	25.991
2057.01	20.3809
2057.26	25.0542
2057.5	22.251
2057.75	20.3829
2058	24.1251
2058.24	25.0638
2058.49	19.456
2058.73	21.3316
2058.98	20.4007
2059.22	22.2766
2059.47	25.0882
2059.71	21.3451
2059.96	22.2823
2060.2	25.0913
2060.45	21.3436
2060.69	21.3402
2060.94	20.4019
2061.18	23.2121
2061.43	22.2793
2061.67	23.2176
2061.92	21.346
2062.16	25.0914
2062.41	23.2196
2062.65	24.1575
2062.9	22.287
2063.14	22.29
2063.39	23.2308
2063.63	23.2345
2063.88	21.3633
2064.12	22.3028
2064.37	23.2419
2064.61	25.1184
2064.86	22.3087
2065.1	21.3743
2065.35	22.317
2065.59	22.3237
2065.84	23.2682
2066.08	18.5804
2066.33	27.9726
2066.57	19.5254
2066.82	24.2213
2067.06	22.3455
2067.31	23.2872
2067.55	21.4104
2067.8	23.2921
2068.04	22.3562
2068.29	25.1785
2068.53	21.4216
2068.78	26.1224
2069.02	16.7254
2069.27	22.3661
2069.51	19.5428
2069.76	21.4164
2070	25.1641
2070.25	23.2814
2070.49	25.1619
2070.73	21.4139
2070.98	21.4246
2071.22	20.495
2071.47	26.1366
2071.71	22.3676
2071.96	22.3932
2072.2	23.344
2072.45	24.2839
2072.69	21.4571
2072.94	25.2227
2073.18	23.3373
2073.43	25.2202
2073.67	24.2772
2073.92	22.3951
2074.16	22.3958
2074.4	22.3969
2074.65	26.1662
2074.89	22.4034
2075.14	20.5249
2075.38	21.4744
2075.63	19.598
2075.87	21.4952
2076.12	23.3904
2076.36	26.2266
2076.6	23.3951
2076.85	25.2841
2077.09	22.4494
2077.34	24.3321
2077.58	24.3264
2077.83	24.315
2078.07	23.3691
2078.31	23.3718
2078.56	22.4334
2078.8	23.3787
2079.05	24.3242
2079.29	18.6657
2079.54	26.221
2079.78	22.456
2080.03	22.4604
2080.27	21.5195
2080.51	20.5779
2080.76	21.5255
2081	24.3607
2081.25	23.4131
2081.49	24.3562
2081.74	23.4105
2081.98	19.6308
2082.22	23.4091
2082.47	20.5762
2082.71	24.3574
2082.96	21.5237
2083.2	20.579
2083.45	20.5785
2083.69	22.4674
2083.93	19.6316
2084.18	24.3561
2084.42	23.4114
2084.67	21.5211
2084.91	22.4663
2085.15	24.3568
2085.4	23.4119
2085.64	23.4117
2085.89	21.5216
2086.13	19.6328
2086.37	24.3644
2086.62	21.5352
2086.86	23.4318
2087.11	24.38
2087.35	21.5446
2087.59	22.4943
2087.84	21.55
2088.08	22.4964
2088.32	24.3895
2088.57	23.4436
2088.81	22.498
2089.06	27.2317
2089.3	19.6603
2089.54	23.4502
2089.79	24.4009
2090.03	21.5659
2090.28	22.515
2090.52	22.5161
2090.76	22.5176
2091.01	26.3094
2091.25	23.4695
2091.5	26.3151
2091.74	24.4222
2091.98	22.5323
2092.23	22.5388
2092.47	22.5459
2092.72	25.4
2092.96	26.358
2093.2	16.8694
2093.45	21.6225
2093.69	21.628
2093.93	22.5834
2094.18	22.588
2094.42	25.4442
2094.66	23.5441
2094.91	24.4947
2095.15	19.7398
2095.39	23.5408
2095.64	22.5862
2095.88	25.4328
2096.13	24.4789
2096.37	22.5758
2096.61	25.424
2096.86	23.523
2097.1	23.5219
2097.34	23.5185
2097.59	27.3122
2097.83	23.5088
2098.07	21.608
2098.32	24.4546
2098.56	24.4533
2098.8	23.5005
2099.05	23.5004
2099.29	23.4996
2099.53	25.3962
2099.78	24.4459
2100.02	22.5473
2100.27	24.4454
2100.51	23.497
2100.75	22.549
2101	23.5004
2101.24	20.6577
2101.48	23.5105
2101.73	26.3626
2101.97	27.314
2102.21	20.6651
2102.45	22.564
2102.7	25.4135
2102.94	26.3616
2103.18	21.6091
2103.43	24.4527
2103.67	19.7033
2103.92	19.7026
2104.16	19.7013
2104.4	22.5493
2104.64	25.3991
2104.89	23.5039
2105.13	23.5073
2105.37	21.611
2105.62	20.6647
2105.86	23.5197
2106.1	23.5241
2106.35	22.5761
2106.59	21.6277
2106.83	20.6781
2107.08	22.5802
2107.32	22.5821
2107.56	25.4351
2107.8	22.5801
2108.05	21.6251
2108.29	20.6691
2108.53	25.4132
2108.78	24.4564
2109.02	24.4511
2109.26	27.2973
2109.51	23.5003
2109.75	21.6067
2109.99	21.611
2110.23	28.2609
2110.48	25.4109
2110.72	22.5608
2110.96	21.6106
2111.21	23.5105
2111.45	22.5601
2111.69	23.5083
2111.93	22.5551
2112.18	23.5024
2112.42	26.3497
2112.66	23.5005
2112.91	25.4022
2113.15	21.6053
2113.39	23.5077
2113.63	22.5632
2113.88	24.4684
2114.12	21.6192
2114.36	25.4195
2114.61	23.5164
2114.85	24.4661
2115.09	22.5663
2115.33	21.6163
2115.58	20.6646
2115.82	24.4638
2116.06	22.5613
2116.31	22.5593
2116.55	25.4044
2116.79	22.55
2117.03	22.5478
2117.28	20.6472
2117.52	25.3941
2117.76	20.6469
2118	23.4932
2118.25	26.3375
2118.49	20.6376
2118.73	25.3769
2118.97	20.6257
2119.22	24.4148
2119.46	20.6163
2119.7	26.3003
2119.94	23.451
2120.19	25.342
2120.43	23.443
2120.67	22.4941
2120.91	23.4421
2121.16	23.4459
2121.4	22.5001
2121.64	22.505
2121.88	24.4069
2122.13	23.4638
2122.37	18.7251
2122.61	24.4216
2122.85	24.4252
2123.1	24.4284
2123.34	23.4818
2123.58	21.5849
2123.82	23.4844
2124.07	26.3303
2124.31	21.5812
2124.55	22.5264
2124.79	22.5204
2125.03	25.3565
2125.28	23.4483
2125.52	23.4377
2125.76	23.4295
2126	21.5282
2126.25	22.4684
2126.49	23.4088
2126.73	24.3499
2126.97	21.5065
2127.21	24.3391
2127.46	25.2795
2127.7	21.495
2127.94	23.3846
2128.18	22.4376
2128.43	24.3257
2128.67	24.324
2128.91	23.3787
2129.15	23.3786
2129.39	23.3775
2129.64	23.3755
2129.88	23.3737
2130.12	19.5923
2130.36	22.4262
2130.6	23.3696
2130.85	21.4779
2131.09	22.4204
2131.33	20.5281
2131.57	23.3585
2131.81	26.1879
2132.06	22.407
2132.3	23.3488
2132.54	25.2341
2132.78	21.4534
2133.02	21.4493
2133.27	26.1651
2133.51	25.221
2133.75	24.2782
2133.99	22.3916
2134.23	24.2791
2134.48	23.3363
2134.72	25.2244
2134.96	23.3361
2135.2	26.1664
2135.44	21.447
2135.68	20.5021
2135.93	24.2741
2136.17	21.4395
2136.41	20.4897
2136.65	18.5977
2136.89	28.0216
2137.14	26.1372
2137.38	22.3671
2137.62	24.253
2137.86	22.3697
2138.1	20.4881
2138.34	21.4294
2138.59	22.3659
2138.83	24.2461
2139.07	21.4222
2139.31	24.2581
2139.55	21.4338
2139.79	24.2513
2140.03	23.2995
2140.28	25.1798
2140.52	22.3494
2140.76	24.2304
2141	20.4599
2141.24	24.2255
2141.49	21.3981
2141.73	23.2818
2141.97	24.2185
2142.21	21.3887
2142.45	26.0931
2142.69	22.3278
2142.93	23.2735
2143.18	24.2186
2143.42	22.3535
2143.66	20.4603
2143.9	26.0468
2144.14	23.2275
2144.38	21.352
2144.62	22.2995
2144.87	21.3665
2145.11	22.3114
2145.35	22.2983
2145.59	21.3598
2145.83	22.3009
2146.07	22.2994
2146.31	21.3572
2146.55	22.2953
2146.8	24.1733
2147.04	25.1111
2147.28	26.0482
2147.52	25.1047
2147.76	24.1616
2148	21.34
2148.24	18.5195
2148.48	22.2742
2148.73	24.1497
2148.97	24.1463
2149.21	23.2035
2149.45	19.4439
2149.69	22.2544
2149.93	23.183
2150.17	22.2396
2150.42	25.0461
2150.66	24.1034
2150.9	26.9126
2151.14	22.2256
2151.38	23.1646
2151.62	19.4183
2151.86	23.1706
2152.1	20.3607
2152.34	20.3619
2152.58	21.3027
2152.83	23.1749
2153.07	23.1715
2153.31	25.9796
2153.55	25.9751
2153.79	24.0981
2154.03	23.1585
2154.27	24.0915
2154.51	21.2749
2154.75	25.9499
2154.99	19.386
2155.24	24.9924
2155.48	24.9809
2155.72	20.2977
2155.96	24.0303
2156.2	23.0895
2156.44	21.2163
2156.68	20.2797
2156.92	21.2128
2157.16	23.0803
2157.4	21.212
2157.64	22.1476
2157.89	19.3474
2158.13	24.0235
2158.37	23.0925
2158.61	21.2239
2158.85	24.0277
2159.09	23.0918
2159.33	24.9588
2159.57	25.8899
2159.81	24.0168
2160.05	22.1435
2160.29	23.0718
2160.53	22.1321
2160.77	20.2601
2161.01	22.1225
2161.25	24.9194
2161.5	21.1853
2161.74	22.1162
2161.98	20.248
2162.22	27.7104
2162.46	25.8443
2162.7	20.2467
2162.94	22.112
2163.18	23.9755
2163.42	22.1068
2163.66	23.0367
2163.9	19.3041
2164.14	22.0991
2164.38	23.9608
2164.62	23.9555
2164.86	23.0171
2165.11	23.0132
2165.35	22.0822
2165.59	27.6752
2165.83	23.0162
2166.07	25.8119
2166.31	22.0845
2166.55	23.0135
2166.79	22.0792
2167.03	27.6648
2167.27	18.3457
2167.51	24.8612
2167.75	23.9242
2167.99	22.0555
2168.23	24.8352
2168.47	23.8942
2168.71	24.8199
2168.95	21.1005
2169.19	23.8907
2169.43	24.8236
2169.67	17.3882
2169.91	23.905
2170.15	23.9132
2170.39	22.9913
2170.63	23.9276
2170.87	22.9982
2171.11	26.7214
2171.35	21.1296
2171.59	21.1275
2171.83	22.0494
2172.07	24.8235
2172.31	22.9549
2172.56	21.0915
2172.79	24.8047
2173.04	23.872
2173.28	22.942
2173.51	23.8706
2173.76	22.941
2174	20.155
2174.24	25.7331
2174.48	23.8766
2174.72	22.0187
2174.96	24.8071
2175.2	22.9479
2175.44	20.1591
2175.68	22.9456
2175.92	20.1562
2176.16	25.7307
2176.4	22.9416
2176.64	22.9395
2176.88	22.0068
2177.12	20.1474
2177.36	24.7918
2177.6	23.8634
2177.84	23.8636
2178.08	23.863
2178.32	22.0057
2178.55	23.8612
2178.8	24.7833
2179.03	23.8496
2179.28	19.2066
2179.52	23.8497
2179.75	20.1359
2180	23.85
2180.23	17.3502
2180.47	22.9209
2180.71	23.8485
2180.95	23.8468
2181.19	24.7735
2181.43	23.8443
2181.67	21.0578
2181.91	22.9114
2182.15	21.0525
2182.39	21.9792
2182.63	23.832
2182.87	23.8295
2183.11	23.8271
2183.35	23.8223
2183.59	21.0347
2183.83	22.8825
2184.07	17.3163
2184.31	20.0935
2184.55	21.017
2184.79	23.7955
2185.03	21.9429
2185.27	21.9449
2185.51	24.7267
2185.75	25.6553
2185.99	19.1697
2186.23	21.9541
2186.47	21.0306
2186.7	24.744
2186.95	21.9678
2187.18	21.0462
2187.42	22.9089
2187.66	22.9154
2187.9	21.9915
2188.14	22.9214
2188.38	18.2752
2188.62	23.8432
2188.86	20.1249
2189.1	19.1922
2189.34	23.8271
2189.58	24.7481
2189.82	22.885
2190.06	23.8056
2190.3	23.8023
2190.54	21.0202
2190.78	23.8015
2191.01	23.8034
2191.25	21.9509
2191.49	22.8779
2191.73	21.9519
2191.97	23.8082
2192.21	24.7376
2192.45	22.8847
2192.69	23.814
2192.93	24.7437
2193.17	24.7477
2193.41	20.112
2193.65	19.1871
2193.89	22.9046
2194.13	22.9143
2194.36	20.1377
2194.6	25.7212
2194.84	24.7959
2195.08	22.0055
2195.32	21.0733
2195.56	22.0004
2195.8	24.7847
2196.04	21.9919
2196.28	24.772
2196.52	21.9777
2196.76	21.9704
2197	19.1809
2197.23	26.5995
2197.47	23.8119
2197.71	22.8807
2197.95	23.8082
2198.19	23.8088
2198.43	21.9559
2198.67	22.8889
2198.91	25.6789
2199.15	23.8297
2199.38	25.6953
2199.62	21.9867
2199.86	21.9938
2200.1	24.7899
2200.34	27.592
2200.58	20.162
2200.82	22.0333
2201.06	22.9737
2201.3	24.8438
2201.54	19.2581
2201.77	26.7025
2202.01	23.8831
2202.25	21.975
2202.49	23.7978
2202.73	23.8129
2202.97	21.0657
2203.21	24.8031
2203.45	25.7259
2203.68	22.0013
2203.92	23.8816
2204.16	19.2904
2204.4	24.8614
2204.64	19.2649
2204.88	22.9983
2205.12	24.8463
2205.36	24.8239
2205.59	22.013
2205.83	24.7901
2206.07	27.5753
2206.31	24.7866
2206.55	20.1425
2206.79	27.5829
2207.03	22.9243
2207.26	22.9256
2207.5	23.8587
2207.74	22.003
2207.98	21.0772
2208.22	25.7338
2208.46	26.6698
2208.7	26.6752
2208.93	22.9559
2209.17	25.7526
2209.41	24.8239
2209.65	21.1001
2209.89	24.8254
2210.13	20.1681
2210.36	21.1
2210.6	21.1026
2210.84	19.2423
2211.08	20.1771
2211.32	23.9079
2211.56	21.1152
2211.8	22.9831
2212.03	22.0556
2212.27	21.1276
2212.51	22.9962
2212.75	20.1993
2212.99	22.9962
2213.23	20.1956
2213.46	21.1262
2213.7	21.1227
2213.94	20.1865
2214.18	23.917
2214.42	21.1239
2214.66	21.1325
2214.89	23.0073
2215.13	20.2094
2215.37	22.078
2215.61	23.013
2215.85	23.9475
2216.08	22.0807
2216.32	23.9481
2216.56	23.9476
2216.8	25.8142
2217.04	16.4769
2217.28	23.9446
2217.51	21.1438
2217.75	23.0117
2217.99	24.88
2218.23	22.0788
2218.47	23.9457
2218.7	23.9467
2218.94	21.1476
2219.18	23.9523
2219.42	21.1541
2219.66	19.2894
2219.9	23.9634
2220.13	19.2937
2220.37	22.0994
2220.61	23.0334
2220.85	24.9014
2221.09	23.9658
2221.32	24.8977
2221.56	23.0233
2221.8	23.951
2222.04	19.2767
2222.27	21.1401
2222.51	23.9377
2222.75	22.07
2222.99	23.0051
2223.23	21.1409
2223.46	23.0116
2223.7	22.0815
2223.94	19.284
2224.18	23.0275
2224.42	18.3606
2224.65	20.2359
2224.89	23.9821
2225.13	20.2452
2225.37	23.0567
2225.6	23.0623
2225.84	24.0051
2226.08	24.0104
2226.32	20.2687
2226.56	19.3361
2226.79	24.0242
2227.03	24.9665
2227.27	23.0964
2227.51	23.1
2227.74	23.1027
2227.98	21.2287
2228.22	20.2903
2228.46	22.164
2228.69	19.3494
2228.93	19.348
2229.17	24.0344
2229.41	16.5332
2229.64	23.0954
2229.88	22.1616
2230.12	21.2294
2230.36	21.2345
2230.6	20.2999
2230.83	23.1192
2231.07	23.1239
2231.31	23.1287
2231.55	25.9514
2231.78	22.2003
2232.02	21.2649
2232.26	23.1486
2232.5	22.2132
2232.73	21.2773
2232.97	23.1618
2233.21	23.1661
2233.45	23.1703
2233.68	20.3519
2233.92	22.2377
2234.16	24.1231
2234.39	22.2432
2234.63	24.1244
2234.87	18.4753
2235.11	23.1783
2235.34	20.3513
2235.58	25.9874
2235.82	27.8614
2236.06	24.1005
2236.29	20.3398
2236.53	24.1027
2236.77	25.0445
2237	23.1643
2237.24	25.0467
2237.48	24.1118
2237.72	22.2347
2237.95	20.3603
2238.19	23.1942
2238.43	18.492
2238.67	20.382
2238.9	21.33
2239.14	24.1655
2239.38	24.1742
2239.61	24.1758
2239.85	20.4002
2240.09	21.3405
2240.33	22.2775
2240.56	21.3292
2240.8	21.3266
2241.04	16.6203
2241.27	23.2305
2241.51	24.1755
2241.75	21.3463
2241.99	18.5169
2242.22	25.124
2242.46	22.2947
2242.7	24.1849
2242.93	26.076
2243.17	26.0765
2243.41	22.2993
2243.64	22.2962
2243.88	18.5177
2244.12	22.291
2244.36	21.3466
2244.59	23.2346
2244.83	24.182
2245.07	22.3007
2245.3	21.3652
2245.54	23.2628
2245.78	24.2133
2246.01	24.218
2246.25	24.2231
2246.49	24.228
2246.72	20.4484
2246.96	21.3964
2247.2	20.4534
2247.43	23.2954
2247.67	23.2977
2247.91	20.4593
2248.14	23.2983
2248.38	22.3506
2248.62	21.4028
2248.85	20.4551
2249.09	22.3464
2249.33	20.4526
2249.56	23.2902
2249.8	23.2942
2250.04	25.19
2250.27	22.3502
2250.51	25.1864
2250.75	18.5582
2250.98	27.0682
2251.22	23.2785
2251.46	22.3286
2251.69	19.4889
2251.93	21.3786
2252.17	26.1066
2252.4	24.2183
2252.64	24.222
2252.88	24.2269
2253.11	25.1808
2253.35	23.3009
2253.59	24.2569
2253.82	24.2641
2254.06	24.2698
2254.3	20.4829
2254.53	22.3828
2254.77	23.3339
2255.01	21.4379
2255.24	21.4358
2255.48	21.4367
2255.72	21.4368
2255.95	22.3857
2256.19	23.3349
2256.42	24.2872
2256.66	22.3946
2256.9	19.552
2257.13	21.453
2257.37	23.3548
2257.61	21.46
2257.84	18.615
2258.08	24.3142
2258.32	20.5171
2258.55	21.4676
2258.79	24.3181
2259.02	21.4709
2259.26	21.4739
2259.5	19.5769
2259.73	21.4791
2259.97	21.4808
2260.2	21.4832
2260.44	20.5349
2260.68	17.685
2260.91	20.5387
2261.15	22.4436
2261.39	18.646
2261.62	26.261
2261.86	20.5535
2262.1	22.4577
2262.33	20.5563
2262.57	20.558
2262.8	23.4164
2263.04	24.3733
2263.28	24.3787
2263.51	23.4327
2263.75	22.487
2263.98	24.4012
2264.22	21.5501
2264.46	24.4201
2264.69	21.5657
2264.93	22.5265
2265.16	25.3963
2265.4	21.5815
2265.64	20.6301
2265.87	21.5859
2266.11	22.542
2266.34	13.9434
2266.58	25.4001
2266.81	21.575
2267.05	20.615
2267.29	26.3364
2267.52	23.4694
2267.76	23.4659
2267.99	26.3238
2268.23	22.5031
2268.47	23.4527
2268.7	21.5443
2268.94	19.6379
2269.17	21.5478
2269.41	22.5062
2269.65	21.558
2269.88	25.3817
2270.12	19.6611
2270.35	21.578
2270.59	23.4955
2270.82	21.5888
2271.06	19.6802
2271.3	23.508
2271.53	19.6878
2271.77	19.6903
2272	23.5184
2272.24	22.5663
2272.47	20.6553
2272.71	21.6123
2272.95	20.6565
2273.18	17.7872
2273.42	22.5724
2273.65	21.6166
2273.89	21.6178
2274.12	21.6189
2274.36	21.6199
2274.6	24.4923
2274.83	20.6647
2275.07	22.5803
2275.3	20.6672
2275.54	18.7535
2275.77	18.7547
2276.01	20.6688
2276.24	21.6294
2276.48	22.5924
2276.72	23.556
2276.95	18.7698
2277.18	20.6905
2277.42	20.6951
2277.66	23.5789
2277.89	23.5878
2278.13	21.6774
2278.36	24.5673
2278.6	22.6503
2278.83	22.6519
2279.07	17.8498
2279.3	21.6908
2279.54	20.7289
2279.78	21.6853
2280.01	21.6754
2280.24	19.75
2280.48	21.663
2280.72	20.6989
2280.95	19.7359
2281.19	20.6916
2281.42	24.524
2281.66	20.6868
2281.89	23.56
2282.13	21.6455
2282.36	19.7297
2282.6	24.5263
2282.83	20.6953
2283.07	21.6593
2283.3	23.5831
2283.54	21.6704
2283.77	18.7987
2284.01	21.689
2284.24	20.7372
2284.48	20.747
2284.71	17.8674
2284.95	21.7167
2285.19	20.7596
2285.42	20.7642
2285.65	21.7281
2285.89	24.6159
2286.12	20.7617
2286.36	23.6393
2286.59	21.7148
2286.83	21.7164
2287.06	20.7578
2287.3	22.6925
2287.54	19.8127
2287.77	20.7787
2288	17.8914
2288.24	21.75
2288.47	22.7117
2288.71	18.8553
2288.94	19.8154
2289.18	21.7376
2289.41	19.8056
2289.65	23.6472
2289.88	19.7911
2290.12	25.5521
2290.35	23.6256
2290.59	21.7004
2290.82	22.6618
2291.06	20.7395
2291.29	21.704
2291.53	25.5568
2291.76	19.7927
2292	28.4582
2292.23	21.7255
2292.47	20.7665
2292.7	24.622
2292.94	21.7385
2293.17	26.56
2293.41	22.7106
2293.64	20.7866
2293.88	19.8251
2294.11	21.7538
2294.34	23.6797
2294.58	16.9311
2294.81	19.8189
2295.05	21.7418
2295.28	23.665
2295.52	19.8093
2295.75	21.7323
2295.99	20.7663
2296.22	19.801
2296.46	22.6838
2296.69	23.6365
2296.93	22.673
2297.16	21.7127
2297.39	19.7911
2297.63	20.7572
2297.86	18.8364
2298.1	20.7676
2298.33	22.7013
2298.57	19.8157
2298.8	20.7821
2299.04	23.6779
2299.27	19.8274
2299.51	21.7603
2299.74	22.7287
2299.97	21.7662
2300.21	22.7304
2300.44	21.7658
2300.68	20.8006
2300.91	22.7325
2301.15	22.7363
2301.38	22.7392
2301.61	24.6721
2301.85	20.8127
2302.08	20.8131
2302.32	21.7776
2302.55	19.8452
2302.79	19.8438
2303.02	24.6699
2303.25	21.7739
2303.49	23.7027
2303.72	21.7721
2303.96	20.8074
2304.19	21.7745
2304.43	20.8128
2304.66	19.8505
2304.89	22.7496
2305.13	18.8897
2305.36	19.8592
2305.6	19.8614
2305.83	24.6931
2306.07	20.8301
2306.3	21.7991
2306.53	21.8017
2306.77	20.836
2307	20.8364
2307.24	20.836
2307.47	23.7349
2307.7	19.8667
2307.94	20.8305
2308.17	23.7276
2308.41	20.8268
2308.64	21.7911
2308.87	21.7909
2309.11	21.7919
2309.34	22.7614
2309.58	22.7652
2309.81	24.7044
2310.04	20.8439
2310.28	22.7829
2310.51	20.8503
2310.75	21.8182
2310.98	22.7849
2311.21	20.8478
2311.45	18.9087
2311.68	21.7973
2311.92	19.8512
2312.15	21.7752
2312.38	19.8389
2312.62	19.8359
2312.85	19.8323
2313.08	20.7944
2313.32	20.794
2313.55	18.8664
2313.79	18.8721
2314.02	21.7764
2314.25	22.7488
2314.49	20.8229
2314.72	22.7624
2314.95	23.7379
2315.19	20.844
2315.42	19.8801
2315.66	20.8419
2315.89	22.7705
2316.12	18.8986
2316.36	21.793
2316.59	21.7809
2316.82	23.706
2317.06	23.7025
2317.29	21.7707
2317.52	20.8062
2317.76	21.773
2317.99	23.7106
2318.23	18.8841
2318.46	20.8092
2318.69	25.6339
2318.93	22.7338
2319.16	21.7647
2319.39	22.7261
2319.63	23.6877
2319.86	24.65
2320.09	23.6831
2320.33	23.6831
2320.56	23.6837
2320.79	22.7185
2321.03	22.7206
2321.26	22.7239
2321.5	20.7969
2321.73	19.8352
2321.96	23.7025
2322.2	20.811
2322.43	23.7166
2322.66	22.7561
2322.9	23.7251
2323.13	24.6906
2323.36	23.7249
2323.6	22.7598
2323.83	23.7279
2324.06	22.7625
2324.3	23.7301
2324.53	21.7951
2324.76	18.8932
2325	26.6219
2325.23	27.5799
2325.46	24.6717
2325.7	25.6316
2325.93	21.7639
2326.16	25.6213
2326.4	24.6506
2326.63	24.6452
2326.86	26.5693
2327.09	25.5988
2327.33	29.4507
2327.56	35.2292
2327.79	37.152
2328.03	44.8568
2328.26	57.3811
2328.49	67.9863
2328.73	70.8784
2328.96	76.6636
2329.19	62.1928
2329.43	47.7279
2329.66	40.0089
2329.89	32.2997
2330.13	33.2613
2330.36	32.3024
2330.59	30.3736
2330.82	30.371
2331.06	25.5529
2331.29	25.5518
2331.52	19.775
2331.76	20.7411
2331.99	23.6346
2332.22	20.7493
2332.46	21.7068
2332.69	19.776
2332.92	20.736
2333.16	22.6588
2333.39	17.8417
2333.62	23.6153
2333.85	22.65
2334.09	22.6477
2334.32	22.6444
2334.55	20.7161
2334.79	21.6724
2335.02	16.86
2335.25	23.59
2335.48	21.6657
2335.72	20.7028
2335.95	26.4734
2336.18	15.8961
2336.41	27.4359
2336.65	22.6248
2336.88	25.5079
2337.11	23.5836
2337.34	24.544
2337.58	20.697
2337.81	20.696
2338.04	23.578
2338.28	23.5762
2338.51	21.6526
2338.74	17.8067
2338.97	26.4563
2339.21	23.5737
2339.44	21.6517
2339.67	20.6903
2339.91	22.6119
2340.14	22.6099
2340.37	21.6459
2340.6	20.6813
2340.84	25.4809
2341.07	22.5937
2341.3	21.627
2341.53	21.6199
2341.77	21.6115
2342	23.5235
2342.23	23.5191
2342.46	21.5972
2342.7	26.3876
2342.93	23.5085
2343.16	21.5897
2343.39	23.5063
2343.63	22.5478
2343.86	23.5052
2344.09	25.4212
2344.32	18.7116
2344.56	22.5472
2344.79	23.5065
2345.02	21.5885
2345.25	19.6698
2345.49	25.4184
2345.72	21.5808
2345.95	20.6169
2346.18	22.5288
2346.41	19.6512
2346.65	21.5649
2346.88	20.606
2347.11	23.4775
2347.34	19.6453
2347.58	24.4307
2347.81	18.6857
2348.04	22.5157
2348.27	23.4744
2348.5	23.4772
2348.74	21.5636
2348.97	18.6903
2349.2	21.5612
2349.43	21.5574
2349.67	19.634
2349.9	22.4952
2350.13	17.703
2350.36	21.5145
2350.59	21.4986
2350.83	24.3312
2351.06	23.3275
2351.29	22.4115
2351.52	20.576
2351.75	23.4696
2351.99	23.4211
2352.22	23.3946
2352.45	20.5332
2352.68	20.5356
2352.91	21.4768
2353.15	23.3632
2353.38	19.5366
2353.61	21.447
2353.84	21.4449
2354.07	19.5357
2354.31	19.5359
2354.54	24.2971
2354.77	24.3031
2355	22.403
2355.23	21.4493
2355.47	20.4949
2355.7	22.3985
2355.93	20.4909
2356.16	21.4409
2356.39	17.6274
2356.63	20.4778
2356.86	19.5163
2357.09	20.4599
2357.32	21.4066
2357.55	20.4519
2357.79	21.3991
2358.02	19.4945
2358.25	23.2936
2358.48	19.4894
2358.71	23.289
2358.94	20.4334
2359.18	23.2812
2359.41	19.4796
2359.64	21.3781
2359.87	21.3754
2360.1	24.2204
2360.33	22.3162
2360.57	22.3108
2360.8	19.4585
2361.03	20.4026
2361.26	22.2947
2361.49	15.6508
2361.72	20.3872
2361.96	20.3818
2362.19	23.2192
2362.42	22.2651
2362.65	19.4177
2362.88	24.1475
2363.11	23.1958
2363.34	20.3519
2363.58	23.1877
2363.81	22.2385
2364.04	20.3436
2364.27	23.1791
2364.5	22.2297
2364.73	22.2262
2364.97	20.3314
