#Acq. time (s)=	30
#Accumulations=	2
#Range (cm-¹)=	3200...3799
#Windows=	2
#Auto scanning=	Off
#Autofocus=	Off
#Macrospot=	Off
#AutoExposure=	Off
#Spike filter=	Multiple accum.
#Delay time (s)=	2
#Binning=	1
#Readout mode=	Signal
#DeNoise=	Off
#ICS correction=	On
#Dark correction=	Off
#Inst. Process=	Off
#Detector Gain=	Best Dynamic
#Detector ADC=	50 kHz HS
#Detector temperature (°C)=	-60.09
#Instrument=	LabRAM HR Evol
#Detector=	SIN-EM FIVIS
#Objective=	x100_VIS_LWD
#Grating=	1800 (450-850nm)
#ND Filter=	100%
#Laser=	532nm_Edge
#Hole=	100.021
#Temperature=	0
#Range=	Visible
#StageXY=	75x50mm Scan+
#StageZ=	Z motor
#X (µm)=	0
#Y (µm)=	0
#Z (µm)=	-10.3
#Full time(mm:ss)=	2:17
#Project=	21_11_26
#Sample=	BU02Aw
#Site=	
#Title=	BU02aW-A-FF1-host_1800 (450-850nm)_532nm_Edge_100%_x100_VIS_LWD_H100um_30sX2
#Remark=	
#Date=	26.11.2021 10:44
#Acquired=	26.11.2021 10:44:29
3200.06	418.693
3200.26	411.075
3200.47	411.123
3200.67	413.097
3200.88	407.416
3201.08	408.437
3201.29	416.161
3201.49	419.108
3201.7	414.405
3201.9	430.782
3202.11	418.448
3202.31	432.896
3202.52	427.162
3202.72	437.708
3202.93	424.287
3203.14	421.398
3203.34	437.688
3203.54	445.349
3203.75	435.758
3203.95	430.007
3204.16	430.015
3204.37	436.723
3204.57	443.43
3204.77	421.43
3204.98	443.44
3205.19	449.201
3205.39	445.437
3205.59	444.596
3205.8	432.28
3206	453.438
3206.21	452.566
3206.42	454.551
3206.62	449.8
3206.82	447.895
3207.03	445.997
3207.24	454.64
3207.44	465.211
3207.64	464.303
3207.85	446.178
3208.05	461.569
3208.26	465.479
3208.46	471.282
3208.67	456.014
3208.87	462.836
3209.08	456.241
3209.28	457.266
3209.49	480.284
3209.69	454.428
3209.9	462.059
3210.1	474.448
3210.31	483.947
3210.51	480.051
3210.72	479.906
3210.92	489.429
3211.13	472.239
3211.33	475.175
3211.54	479.081
3211.74	501.144
3211.94	489.735
3212.15	483.109
3212.35	491.781
3212.56	500.447
3212.76	499.542
3212.97	511.071
3213.17	487.19
3213.38	494.882
3213.58	497.795
3213.79	507.4
3213.99	491.11
3214.2	494.963
3214.4	514.13
3214.61	498.965
3214.81	508.628
3215.01	506.869
3215.22	510.784
3215.42	523.231
3215.63	524.133
3215.83	519.306
3216.04	514.426
3216.24	522.014
3216.45	531.462
3216.65	532.384
3216.86	510.889
3217.06	527.373
3217.26	527.622
3217.47	519.863
3217.67	528.401
3217.88	526.331
3218.08	544.844
3218.29	524.801
3218.49	546.162
3218.7	547.375
3218.9	536.691
3219.1	553.121
3219.31	533.044
3219.51	544.033
3219.72	543.018
3219.92	545.74
3220.13	559.051
3220.33	546.626
3220.53	567.722
3220.74	578.339
3220.94	566.034
3221.15	573.838
3221.35	574.008
3221.56	556.966
3221.76	556.208
3221.97	559.263
3222.17	567.064
3222.37	575.794
3222.58	577.784
3222.78	586.428
3222.99	593.108
3223.19	575.845
3223.4	582.54
3223.6	579.659
3223.8	597.845
3224.01	571.009
3224.21	571.942
3224.42	593.005
3224.62	596.896
3224.82	606.608
3225.03	619.289
3225.23	588.965
3225.44	580.607
3225.64	620.076
3225.85	609.793
3226.05	613.936
3226.25	617.23
3226.46	596.395
3226.66	620.39
3226.86	640.243
3227.07	620.218
3227.27	617.831
3227.48	622.616
3227.68	633.809
3227.88	642.937
3228.09	653.559
3228.29	662.946
3228.5	625.368
3228.7	629.674
3228.91	648.692
3229.11	633.966
3229.31	647.147
3229.52	662.409
3229.72	637.676
3229.92	657.096
3230.13	657.955
3230.33	665.31
3230.54	640.164
3230.74	685.276
3230.94	665.295
3231.15	668.696
3231.35	667.765
3231.56	694.305
3231.76	665.388
3231.96	671.355
3232.17	692.886
3232.37	694.055
3232.57	680.503
3232.78	706.4
3232.98	711.213
3233.19	699.729
3233.39	723.743
3233.59	678.694
3233.8	699.855
3234	737.343
3234.2	720.152
3234.41	717.358
3234.61	713.608
3234.82	712.731
3235.02	709.911
3235.22	721.486
3235.43	720.663
3235.63	714.076
3235.83	744.83
3236.04	744.835
3236.24	739.983
3236.45	749.504
3236.65	753.249
3236.85	772.337
3237.06	758.802
3237.26	719.368
3237.46	772.993
3237.67	749.987
3237.87	758.664
3238.08	779.806
3238.28	765.446
3238.48	807.814
3238.69	783.156
3238.89	790.077
3239.09	796.018
3239.3	784.655
3239.5	815.474
3239.7	782.791
3239.91	801.972
3240.11	795.313
3240.31	835.599
3240.52	823.133
3240.72	820.311
3240.92	803.123
3241.13	818.584
3241.33	835.967
3241.53	823.587
3241.74	827.457
3241.94	806.337
3242.15	832.273
3242.35	841.938
3242.55	806.507
3242.75	817.081
3242.96	836.257
3243.16	846.762
3243.36	836.154
3243.57	841.862
3243.77	854.274
3243.98	855.124
3244.18	860.717
3244.38	875.954
3244.58	867.456
3244.79	853.012
3244.99	865.371
3245.19	874.856
3245.4	873.49
3245.6	886.962
3245.81	873.577
3246.01	874.004
3246.21	899.471
3246.41	897.786
3246.62	881.766
3246.82	921.607
3247.02	903.766
3247.23	908.885
3247.43	934.133
3247.63	923.802
3247.84	898.053
3248.04	910.726
3248.24	939.722
3248.45	932.144
3248.65	938.845
3248.85	950.894
3249.06	947.883
3249.26	967.904
3249.46	922.617
3249.66	946.495
3249.87	967.488
3250.07	937.647
3250.27	970.298
3250.48	958.928
3250.68	938.999
3250.88	965.241
3251.09	964.708
3251.29	991.992
3251.49	969.236
3251.69	999.3
3251.9	973.527
3252.1	995.786
3252.3	973.749
3252.51	980.528
3252.71	998.81
3252.91	1018.01
3253.12	979.458
3253.32	1001.47
3253.52	1029.22
3253.72	1039.67
3253.93	998.258
3254.13	1016.48
3254.33	1043.39
3254.54	1030.92
3254.74	1026.22
3254.94	1039.86
3255.14	1023.69
3255.35	1038.23
3255.55	1055.59
3255.75	1052.71
3255.96	1037.22
3256.16	1067.01
3256.36	1045.04
3256.56	1022.13
3256.77	1047.33
3256.97	1057.16
3257.17	1077.59
3257.38	1056.67
3257.58	1055.97
3257.78	1076.45
3257.98	1074.8
3258.19	1074.98
3258.39	1087.72
3258.59	1073.53
3258.79	1104.6
3259	1069.11
3259.2	1101.98
3259.4	1117.15
3259.61	1142.23
3259.81	1111.71
3260.01	1103.14
3260.21	1105.1
3260.42	1104.71
3260.62	1110.82
3260.82	1136.42
3261.02	1145.41
3261.23	1124.32
3261.43	1117.52
3261.63	1134.55
3261.83	1096.96
3262.04	1148.91
3262.24	1158.54
3262.44	1149.89
3262.64	1133.59
3262.85	1141.44
3263.05	1154.17
3263.25	1155.39
3263.45	1163.31
3263.66	1155.79
3263.86	1173.47
3264.06	1194.02
3264.26	1182.75
3264.47	1193.59
3264.67	1140.77
3264.87	1195.84
3265.07	1201.71
3265.28	1194.06
3265.48	1192.17
3265.68	1169.96
3265.88	1175.56
3266.08	1181.97
3266.29	1212.43
3266.49	1189.05
3266.69	1215.77
3266.89	1204.96
3267.1	1220.2
3267.3	1212.42
3267.5	1171.05
3267.7	1217.28
3267.91	1221.24
3268.11	1206
3268.31	1205.25
3268.51	1208.35
3268.72	1253.78
3268.92	1228.94
3269.12	1182.96
3269.32	1232.28
3269.53	1223.81
3269.73	1213.3
3269.93	1241.24
3270.13	1228.74
3270.33	1213.4
3270.54	1229.77
3270.74	1242.19
3270.94	1271.93
3271.14	1259.31
3271.34	1218.78
3271.55	1234.08
3271.75	1247.44
3271.95	1263.66
3272.15	1252.96
3272.35	1269.34
3272.56	1252.17
3272.76	1250.24
3272.96	1235.64
3273.16	1297.93
3273.36	1264.02
3273.57	1254.14
3273.77	1246.29
3273.97	1235.49
3274.17	1267.74
3274.38	1265.64
3274.58	1292.71
3274.78	1265.6
3274.98	1285.74
3275.18	1290.6
3275.39	1270.9
3275.59	1309.21
3275.79	1287.22
3275.99	1320.75
3276.19	1265.11
3276.39	1316.12
3276.6	1290.22
3276.8	1280.72
3277	1310.7
3277.2	1277.14
3277.4	1256.04
3277.61	1305.18
3277.81	1288.8
3278.01	1308.01
3278.21	1322.39
3278.41	1295.37
3278.62	1307.8
3278.82	1326.93
3279.02	1313.34
3279.22	1323.83
3279.42	1305.5
3279.62	1267.99
3279.83	1307.47
3280.03	1290.21
3280.23	1326.79
3280.43	1294.18
3280.63	1321.39
3280.83	1299.47
3281.04	1309.29
3281.24	1306.48
3281.44	1302.64
3281.64	1322.95
3281.84	1311.5
3282.05	1293.34
3282.25	1303.05
3282.45	1348.82
3282.65	1308.65
3282.85	1308.38
3283.05	1303.36
3283.26	1320.43
3283.46	1305.68
3283.66	1321.36
3283.86	1301.24
3284.06	1329.79
3284.26	1309.37
3284.47	1323.76
3284.67	1290.27
3284.87	1340.35
3285.07	1318.96
3285.27	1331.02
3285.47	1333.31
3285.67	1316.44
3285.88	1336.04
3286.08	1320.9
3286.28	1347.15
3286.48	1312.65
3286.68	1310.81
3286.88	1326.21
3287.09	1348.32
3287.29	1345.39
3287.49	1314.47
3287.69	1312.51
3287.89	1309.53
3288.09	1321.86
3288.29	1319.73
3288.49	1339.76
3288.7	1349.28
3288.9	1329.03
3289.1	1300.16
3289.3	1328.03
3289.5	1360.61
3289.7	1318.2
3289.9	1322.81
3290.11	1339.85
3290.31	1355.81
3290.51	1336.72
3290.71	1329.99
3290.91	1333.19
3291.11	1323.28
3291.31	1338.57
3291.52	1316.24
3291.72	1306.94
3291.92	1356.97
3292.12	1315.65
3292.32	1305.56
3292.52	1283.56
3292.72	1320.24
3292.92	1345.29
3293.12	1336.69
3293.33	1342.77
3293.53	1321.63
3293.73	1333.18
3293.93	1320.63
3294.13	1351.37
3294.33	1331.09
3294.53	1353.11
3294.73	1340.43
3294.94	1317.18
3295.14	1336.36
3295.34	1312.38
3295.54	1317.31
3295.74	1334.15
3295.94	1322.73
3296.14	1326.72
3296.34	1332.64
3296.54	1342.44
3296.75	1337.88
3296.95	1340.15
3297.15	1346.05
3297.35	1355.76
3297.55	1328.82
3297.75	1338.63
3297.95	1308.54
3298.15	1311.13
3298.35	1305.94
3298.55	1364.16
3298.76	1325.14
3298.96	1338.25
3299.16	1315.98
3299.36	1339.06
3299.56	1340.07
3299.76	1324.92
3299.96	1340.62
3300.16	1327.16
3300.36	1330.95
3300.56	1300.98
3300.76	1314.12
3300.96	1329.94
3301.17	1322.68
3301.37	1337.13
3301.57	1316.05
3301.77	1329.38
3301.97	1320.73
3302.17	1308.35
3302.37	1314.58
3302.57	1298.31
3302.77	1312.65
3302.97	1313.14
3303.17	1326.95
3303.37	1306.35
3303.58	1343.39
3303.78	1277.42
3303.98	1316.62
3304.18	1309.57
3304.38	1332.98
3304.58	1315.46
3304.78	1291.91
3304.98	1293.33
3305.18	1297.61
3305.38	1278.89
3305.58	1309.31
3305.78	1305.45
3305.98	1309.3
3306.18	1299.59
3306.39	1293.73
3306.59	1291.71
3306.79	1300.3
3306.99	1308.91
3307.19	1289.93
3307.39	1279.53
3307.59	1278.52
3307.79	1307.2
3307.99	1295.47
3308.19	1287.61
3308.39	1286.43
3308.59	1283.24
3308.79	1270.3
3308.99	1288.09
3309.19	1294.5
3309.39	1255.09
3309.59	1277.99
3309.79	1302.79
3309.99	1311.32
3310.2	1285.42
3310.4	1286.46
3310.6	1258.76
3310.8	1255.93
3311	1259.84
3311.2	1290.55
3311.4	1285.73
3311.6	1270.35
3311.8	1269.38
3312	1296.25
3312.2	1266.66
3312.4	1276.17
3312.6	1258.63
3312.8	1281.89
3313	1263.2
3313.2	1278.85
3313.4	1266.31
3313.6	1246.81
3313.8	1267.3
3314	1262.24
3314.2	1253.29
3314.4	1232.97
3314.6	1264.55
3314.8	1250.16
3315	1262.78
3315.2	1270.03
3315.4	1271.26
3315.6	1260.89
3315.81	1255.8
3316.01	1269.07
3316.21	1265.97
3316.41	1252.3
3316.61	1274.9
3316.81	1248.17
3317.01	1241.43
3317.21	1250.05
3317.41	1239.03
3317.61	1250.36
3317.81	1247.32
3318.01	1241.44
3318.21	1252.8
3318.41	1260.35
3318.61	1287.96
3318.81	1277.07
3319.01	1256.05
3319.21	1276.28
3319.41	1253.45
3319.61	1257.48
3319.81	1254.88
3320.01	1268.68
3320.21	1224.9
3320.41	1242.37
3320.61	1250.24
3320.81	1220.75
3321.01	1249.69
3321.21	1222.08
3321.41	1226.86
3321.61	1245.82
3321.81	1269.24
3322.01	1235.98
3322.21	1224.09
3322.41	1225.71
3322.61	1234.96
3322.81	1241.52
3323.01	1262.72
3323.21	1271.82
3323.41	1204.77
3323.61	1247.95
3323.81	1256.76
3324.01	1258.45
3324.21	1220.03
3324.41	1220.94
3324.61	1265.78
3324.81	1232.89
3325.01	1241.04
3325.21	1245.25
3325.41	1261.79
3325.61	1251.99
3325.81	1235.41
3326.01	1245.54
3326.21	1247.87
3326.41	1217.66
3326.61	1258.34
3326.8	1214.42
3327	1218.12
3327.2	1224.92
3327.4	1232.94
3327.6	1252.5
3327.8	1262.37
3328	1236.85
3328.2	1244.78
3328.4	1212.33
3328.6	1264.1
3328.8	1237.31
3329	1249.74
3329.2	1239.19
3329.4	1240.99
3329.6	1229.23
3329.8	1220.13
3330	1237.83
3330.2	1234.66
3330.4	1234.48
3330.6	1237.13
3330.8	1206.28
3331	1252.97
3331.2	1235.89
3331.4	1241.84
3331.6	1252.65
3331.8	1228.13
3331.99	1267.54
3332.19	1248.39
3332.39	1217.86
3332.59	1238.07
3332.79	1251.56
3332.99	1245.91
3333.19	1234.54
3333.39	1252.79
3333.59	1249.05
3333.79	1255.81
3333.99	1230.98
3334.19	1213.76
3334.39	1244.33
3334.59	1263.45
3334.79	1230
3334.99	1232.8
3335.19	1216.43
3335.39	1263.05
3335.58	1247.48
3335.78	1264.38
3335.98	1245.16
3336.18	1246.06
3336.38	1239.38
3336.58	1261.19
3336.78	1257.4
3336.98	1231.68
3337.18	1267.33
3337.38	1257.37
3337.58	1254.74
3337.78	1228.12
3337.98	1234.73
3338.18	1257.44
3338.37	1239.94
3338.57	1242.43
3338.77	1283
3338.97	1255.71
3339.17	1245.82
3339.37	1251.21
3339.57	1278.54
3339.77	1245.11
3339.97	1252.72
3340.17	1235.56
3340.37	1248.9
3340.57	1262.25
3340.77	1292.75
3340.97	1233.63
3341.16	1256.49
3341.36	1261.22
3341.56	1259.28
3341.76	1291.67
3341.96	1263.98
3342.16	1267.7
3342.36	1256.05
3342.56	1269.13
3342.76	1270.93
3342.96	1268.96
3343.15	1259.39
3343.35	1264.12
3343.55	1268.9
3343.75	1299.43
3343.95	1278.58
3344.15	1252.01
3344.35	1309.94
3344.55	1280.27
3344.75	1292.4
3344.95	1295.2
3345.14	1296.19
3345.34	1311.55
3345.54	1283.1
3345.74	1292.64
3345.94	1284.97
3346.14	1322.07
3346.34	1293.63
3346.54	1283.13
3346.74	1305.83
3346.93	1309.38
3347.13	1286.26
3347.33	1300.42
3347.53	1280.26
3347.73	1285.83
3347.93	1316.17
3348.13	1294.29
3348.33	1303.85
3348.53	1303.97
3348.72	1297.54
3348.92	1306.4
3349.12	1327.67
3349.32	1311.82
3349.52	1302.55
3349.72	1318.02
3349.92	1345.89
3350.12	1305.2
3350.31	1339.67
3350.51	1315.05
3350.71	1317.03
3350.91	1322.78
3351.11	1310.39
3351.31	1357.94
3351.51	1332.13
3351.71	1332
3351.9	1353.78
3352.1	1376.63
3352.3	1338.66
3352.5	1384.44
3352.7	1311.2
3352.9	1347.31
3353.1	1331.95
3353.29	1363.24
3353.49	1384.11
3353.69	1369.85
3353.89	1339.44
3354.09	1378.49
3354.29	1355.68
3354.49	1358.57
3354.68	1361.45
3354.88	1341.5
3355.08	1371.96
3355.28	1357.72
3355.48	1362.51
3355.68	1355.91
3355.88	1344.58
3356.07	1365.66
3356.27	1390.49
3356.47	1357.29
3356.67	1395.59
3356.87	1387.33
3357.07	1394.29
3357.26	1400.25
3357.46	1418.54
3357.66	1421.55
3357.86	1445.44
3358.06	1372.08
3358.26	1393.85
3358.45	1411.72
3358.65	1413.33
3358.85	1404.54
3359.05	1387.36
3359.25	1412.11
3359.45	1401.67
3359.65	1405.52
3359.84	1413.22
3360.04	1420.96
3360.24	1410.69
3360.44	1418.52
3360.64	1404.47
3360.83	1404.71
3361.03	1440.15
3361.23	1443.2
3361.43	1437.69
3361.63	1451.22
3361.83	1430.47
3362.02	1428.77
3362.22	1416.79
3362.42	1415.12
3362.62	1443.79
3362.82	1433.31
3363.02	1457.14
3363.21	1428.54
3363.41	1460.92
3363.61	1453.22
3363.81	1456.92
3364.01	1459.62
3364.2	1466.12
3364.4	1422.14
3364.6	1465.84
3364.8	1475.63
3365	1465.21
3365.19	1440.71
3365.39	1462.55
3365.59	1469.82
3365.79	1483.13
3365.99	1457.45
3366.18	1465.13
3366.38	1463.35
3366.58	1481.6
3366.78	1478.01
3366.98	1464
3367.18	1465.23
3367.37	1475.94
3367.57	1471.13
3367.77	1498.44
3367.97	1498.42
3368.16	1476.62
3368.36	1477.69
3368.56	1477.8
3368.76	1463.58
3368.96	1468.39
3369.15	1508.44
3369.35	1507.45
3369.55	1495.01
3369.75	1440.66
3369.95	1500.71
3370.14	1489.32
3370.34	1482.74
3370.54	1471.42
3370.74	1514.46
3370.93	1537.44
3371.13	1505.02
3371.33	1499.24
3371.53	1513.5
3371.73	1512.68
3371.93	1492.01
3372.12	1485.77
3372.32	1518.49
3372.52	1508.15
3372.72	1527.36
3372.91	1513.33
3373.11	1503.04
3373.31	1497.41
3373.51	1491.68
3373.7	1499.19
3373.9	1523.73
3374.1	1496.68
3374.3	1525.04
3374.5	1486.58
3374.69	1477.64
3374.89	1520.16
3375.09	1526.85
3375.28	1552.09
3375.48	1515.07
3375.68	1514.24
3375.88	1531.51
3376.08	1510.69
3376.27	1521.33
3376.47	1506.28
3376.67	1495.09
3376.87	1538.25
3377.06	1486.06
3377.26	1522.46
3377.46	1539.81
3377.66	1544.76
3377.85	1487.6
3378.05	1521.85
3378.25	1525.55
3378.45	1522.55
3378.64	1539.58
3378.84	1502.51
3379.04	1509.33
3379.24	1481.87
3379.43	1467.8
3379.63	1523.37
3379.83	1505.43
3380.03	1503.67
3380.22	1528.62
3380.42	1538.29
3380.62	1521.23
3380.82	1512.72
3381.01	1507.04
3381.21	1525.18
3381.41	1541.37
3381.61	1541.32
3381.8	1508.82
3382	1531.63
3382.2	1508.67
3382.39	1497.12
3382.59	1526.5
3382.79	1527.46
3382.99	1507.64
3383.18	1533.75
3383.38	1507.52
3383.58	1532.8
3383.78	1516.94
3383.97	1525.92
3384.17	1508.19
3384.37	1531.75
3384.56	1522.59
3384.76	1537.83
3384.96	1541.48
3385.16	1506.58
3385.35	1550.47
3385.55	1536.79
3385.75	1530.84
3385.95	1528.77
3386.14	1527.7
3386.34	1532.37
3386.54	1505.65
3386.73	1528.63
3386.93	1504.03
3387.13	1521.27
3387.33	1525.07
3387.52	1507.92
3387.72	1557.96
3387.92	1569.04
3388.11	1524.58
3388.31	1548.89
3388.51	1545.12
3388.71	1520.28
3388.9	1559.08
3389.1	1537.89
3389.3	1499.91
3389.49	1552.42
3389.69	1551.54
3389.89	1555.2
3390.08	1527.05
3390.28	1552.76
3390.48	1524.58
3390.68	1548.8
3390.87	1533.06
3391.07	1487.62
3391.27	1549.32
3391.46	1566.44
3391.66	1511.32
3391.86	1558.28
3392.05	1551.55
3392.25	1542.5
3392.45	1558.27
3392.64	1584.52
3392.84	1546.13
3393.04	1558.07
3393.24	1543.9
3393.43	1527.18
3393.63	1550.22
3393.83	1555.73
3394.02	1537.89
3394.22	1545.93
3394.42	1558.93
3394.61	1591.17
3394.81	1573.62
3395.01	1537.99
3395.2	1566.56
3395.4	1540.72
3395.6	1578.23
3395.79	1562.42
3395.99	1568.11
3396.19	1550.81
3396.38	1582.84
3396.58	1568.87
3396.78	1592.22
3396.97	1572.39
3397.17	1588.15
3397.37	1572.16
3397.56	1591.65
3397.76	1600.44
3397.96	1585.6
3398.15	1620.13
3398.35	1574.5
3398.55	1611.29
3398.74	1618.4
3398.94	1612.68
3399.14	1634.88
3399.33	1637.56
3399.53	1599.21
3399.73	1620.78
3399.92	1615.28
3400.12	1621.42
3400.32	1649.47
3400.51	1643.01
3400.71	1653
3400.91	1623.29
3401.1	1669.82
3401.3	1636.79
3401.5	1627.61
3401.69	1662.87
3401.89	1663.74
3402.08	1676.28
3402.28	1662.12
3402.48	1689.19
3402.67	1668.51
3402.87	1690.76
3403.07	1681.44
3403.26	1690.86
3403.46	1662.21
3403.66	1697.42
3403.85	1686.56
3404.05	1690.71
3404.25	1661.75
3404.44	1701.92
3404.64	1659.19
3404.83	1678.64
3405.03	1705.3
3405.23	1707.83
3405.42	1701.22
3405.62	1721.23
3405.82	1732.89
3406.01	1742.5
3406.21	1721.29
3406.41	1690.69
3406.6	1729.87
3406.8	1745.7
3406.99	1707.95
3407.19	1729.45
3407.39	1748.83
3407.58	1749.87
3407.78	1743.32
3407.98	1748.82
3408.17	1728.61
3408.37	1750.44
3408.56	1775.4
3408.76	1757.84
3408.96	1756.86
3409.15	1747.96
3409.35	1745.91
3409.55	1763.4
3409.74	1788.57
3409.94	1756.01
3410.13	1764.77
3410.33	1774.48
3410.53	1799.56
3410.72	1790.04
3410.92	1803.57
3411.11	1772.9
3411.31	1774.83
3411.51	1753.41
3411.7	1798.32
3411.9	1786.6
3412.09	1784.61
3412.29	1815.4
3412.49	1766.52
3412.68	1770.58
3412.88	1807.4
3413.07	1787.61
3413.27	1791.9
3413.47	1778.85
3413.66	1792.62
3413.86	1759.18
3414.05	1747.82
3414.25	1780.67
3414.45	1773.08
3414.64	1790.49
3414.84	1774.78
3415.03	1800.62
3415.23	1763.01
3415.43	1816.85
3415.62	1775.48
3415.82	1786.08
3416.01	1772.67
3416.21	1782.4
3416.41	1809.53
3416.6	1795.42
3416.8	1762.23
3416.99	1770.05
3417.19	1764.23
3417.38	1753.46
3417.58	1758.15
3417.78	1768.9
3417.97	1754.72
3418.17	1768.41
3418.36	1749.28
3418.56	1768.45
3418.75	1755.96
3418.95	1774.41
3419.15	1768.08
3419.34	1747.9
3419.54	1733.74
3419.73	1774.48
3419.93	1755.5
3420.12	1757.69
3420.32	1742.5
3420.51	1729.2
3420.71	1725.41
3420.91	1745.42
3421.1	1745.2
3421.3	1718.13
3421.49	1724.91
3421.69	1737.51
3421.89	1722.19
3422.08	1710.79
3422.28	1725.56
3422.47	1696.07
3422.67	1721.6
3422.86	1649.82
3423.06	1700.32
3423.25	1696.62
3423.45	1699.47
3423.64	1673.6
3423.84	1661.34
3424.04	1643.19
3424.23	1659.62
3424.43	1658.62
3424.62	1650.81
3424.82	1648.79
3425.01	1625.57
3425.21	1621.64
3425.41	1611.82
3425.6	1604.13
3425.8	1618.78
3425.99	1566.06
3426.19	1581.96
3426.38	1552.08
3426.58	1616.41
3426.77	1610.36
3426.97	1584.82
3427.16	1571.38
3427.36	1555.01
3427.55	1552.06
3427.75	1557.47
3427.94	1568.37
3428.14	1558.72
3428.34	1576.24
3428.53	1529.59
3428.73	1530.8
3428.92	1518.11
3429.12	1551.43
3429.31	1547.12
3429.51	1530.55
3429.7	1499.43
3429.9	1499.15
3430.09	1494.95
3430.29	1494.55
3430.48	1459.77
3430.68	1468.13
3430.87	1464.52
3431.07	1458.93
3431.26	1487.14
3431.46	1464.23
3431.66	1520.55
3431.85	1472.8
3432.05	1462.67
3432.24	1479
3432.44	1456.39
3432.63	1440.77
3432.83	1460.14
3433.02	1434.78
3433.22	1440.53
3433.41	1459.41
3433.61	1419.82
3433.8	1448.94
3434	1438.69
3434.19	1449.5
3434.39	1398.38
3434.58	1420.66
3434.78	1432.34
3434.97	1434.38
3435.17	1424.92
3435.36	1418.46
3435.56	1407.05
3435.75	1414.61
3435.95	1412.39
3436.14	1417.13
3436.34	1434.42
3436.53	1387.93
3436.73	1404.22
3436.92	1402.15
3437.12	1428.05
3437.31	1418.24
3437.51	1395.95
3437.7	1416.22
3437.9	1394.06
3438.09	1401.03
3438.29	1422.9
3438.48	1430.44
3438.68	1406.86
3438.87	1387.92
3439.07	1411.35
3439.26	1428.77
3439.46	1393.99
3439.65	1421.13
3439.85	1422.95
3440.04	1395.25
3440.23	1395.65
3440.43	1398.66
3440.62	1440.66
3440.82	1395
3441.01	1417.85
3441.21	1443.65
3441.4	1421.28
3441.6	1411.49
3441.79	1433.47
3441.99	1374.6
3442.18	1417.05
3442.38	1419.12
3442.57	1425.01
3442.77	1406.8
3442.96	1450.12
3443.16	1458.09
3443.35	1461.28
3443.55	1432.99
3443.74	1446.4
3443.93	1457.44
3444.13	1477.23
3444.32	1489.19
3444.52	1474.43
3444.71	1462.97
3444.91	1463.48
3445.1	1508.85
3445.3	1484.47
3445.49	1507.05
3445.69	1490.54
3445.88	1478.61
3446.07	1493.2
3446.27	1497.6
3446.46	1500.07
3446.66	1545.05
3446.85	1534.82
3447.05	1576.92
3447.24	1550.66
3447.44	1527.76
3447.63	1556.8
3447.83	1537.18
3448.02	1554.45
3448.21	1529.84
3448.41	1557.43
3448.6	1593.19
3448.8	1609.62
3448.99	1612.74
3449.19	1646.7
3449.38	1616.94
3449.58	1644.02
3449.77	1655.67
3449.96	1632.68
3450.16	1667.57
3450.35	1676.44
3450.55	1682.43
3450.74	1684.56
3450.94	1676.98
3451.13	1706.1
3451.32	1704.39
3451.52	1749.19
3451.71	1744.87
3451.91	1743.05
3452.1	1755.22
3452.3	1755.18
3452.49	1792.01
3452.68	1827.02
3452.88	1783.9
3453.07	1784.5
3453.27	1792.54
3453.46	1841.98
3453.66	1816.4
3453.85	1829.38
3454.04	1865.01
3454.24	1870.69
3454.43	1923.63
3454.63	1900.41
3454.82	1928.32
3455.02	1959.13
3455.21	1922.43
3455.4	1936.83
3455.6	1955
3455.79	1982.81
3455.99	1968.45
3456.18	2035.13
3456.37	1993.65
3456.57	2053.05
3456.76	2001.45
3456.96	2078.05
3457.15	2046.89
3457.34	2120.98
3457.54	2083.56
3457.73	2097.18
3457.93	2141.76
3458.12	2173.93
3458.31	2191.73
3458.51	2228.81
3458.7	2171.59
3458.9	2231.2
3459.09	2278.97
3459.28	2264.96
3459.48	2288.41
3459.67	2321.51
3459.87	2332.68
3460.06	2308.49
3460.25	2419.84
3460.45	2386.85
3460.64	2426.18
3460.84	2418.34
3461.03	2409.92
3461.22	2493.59
3461.42	2406.84
3461.61	2504.06
3461.81	2477.24
3462	2514.99
3462.19	2533.35
3462.39	2556.42
3462.58	2594.02
3462.78	2624.72
3462.97	2633.32
3463.16	2661.11
3463.36	2660.94
3463.55	2690.43
3463.74	2736.17
3463.94	2715.57
3464.13	2747.1
3464.32	2787.27
3464.52	2789.92
3464.71	2774.2
3464.91	2859.51
3465.1	2878.48
3465.29	2864.77
3465.49	2873.17
3465.68	2905.63
3465.87	2907.32
3466.07	2949.4
3466.26	2961.77
3466.46	2959.87
3466.65	2992.73
3466.84	3032.66
3467.04	3060.48
3467.23	3077.43
3467.42	3097.28
3467.62	3097.93
3467.81	3145.88
3468	3138.35
3468.2	3212.1
3468.39	3237.93
3468.58	3222.18
3468.78	3239.54
3468.97	3255.23
3469.17	3283.55
3469.36	3320.46
3469.55	3324.03
3469.75	3355.34
3469.94	3346.73
3470.13	3372.11
3470.33	3381.29
3470.52	3414.62
3470.71	3409.63
3470.91	3443.95
3471.1	3421.15
3471.3	3502.43
3471.49	3513.53
3471.68	3537.13
3471.88	3544.9
3472.07	3522.04
3472.26	3544.53
3472.45	3576.45
3472.65	3609.66
3472.84	3597.44
3473.03	3657.13
3473.23	3689.47
3473.42	3638.71
3473.61	3673.8
3473.81	3621.53
3474	3675.95
3474.2	3657.47
3474.39	3707.25
3474.58	3751.03
3474.78	3757.29
3474.97	3708.43
3475.16	3731.03
3475.36	3775.11
3475.55	3797.71
3475.74	3770.42
3475.94	3846.5
3476.13	3786.9
3476.32	3857.42
3476.51	3816.92
3476.71	3861.37
3476.9	3904.32
3477.09	3826.47
3477.29	3845.01
3477.48	3895.81
3477.67	3846.57
3477.87	3949.45
3478.06	3924.82
3478.25	3895.27
3478.45	3857.99
3478.64	3877.96
3478.83	3902.99
3479.03	3908.86
3479.22	3882.26
3479.41	3904.52
3479.6	3866.63
3479.8	3887.16
3479.99	3933.63
3480.18	3950.56
3480.38	3917.59
3480.57	3917.24
3480.76	3946.99
3480.96	3913.72
3481.15	3927.71
3481.34	3950.13
3481.53	3950.21
3481.73	3905.7
3481.92	3868.93
3482.11	3887.89
3482.31	3953.68
3482.5	3977.33
3482.69	3963.69
3482.89	3957.42
3483.08	3904.91
3483.27	3855.03
3483.46	3958.29
3483.66	3925.4
3483.85	3886.75
3484.04	3801.1
3484.24	3847.62
3484.43	3806.78
3484.62	3889.17
3484.82	3797.42
3485.01	3829.55
3485.2	3762.94
3485.39	3811.91
3485.59	3797.48
3485.78	3852.6
3485.97	3843.61
3486.16	3801.85
3486.36	3721.99
3486.55	3718.64
3486.74	3793.66
3486.94	3715.88
3487.13	3739.34
3487.32	3721.75
3487.51	3707
3487.71	3654.03
3487.9	3604.84
3488.09	3690.19
3488.28	3706.83
3488.48	3606.29
3488.67	3594.7
3488.86	3561.08
3489.06	3605.51
3489.25	3563.07
3489.44	3583.89
3489.63	3531.94
3489.83	3549.8
3490.02	3509.77
3490.21	3522.01
3490.4	3520.97
3490.6	3473.25
3490.79	3490.71
3490.98	3394.44
3491.17	3481.36
3491.37	3470.47
3491.56	3431.81
3491.75	3379.61
3491.94	3424.38
3492.14	3307.4
3492.33	3347.94
3492.52	3324.64
3492.71	3336.57
3492.91	3302.43
3493.1	3323.67
3493.29	3278.24
3493.49	3292.86
3493.68	3215.03
3493.87	3201.33
3494.06	3204.34
3494.25	3253.5
3494.45	3185.49
3494.64	3163.77
3494.83	3161.83
3495.02	3184.58
3495.22	3130.05
3495.41	3085.04
3495.6	3117.37
3495.79	3088.12
3495.99	3081.22
3496.18	3050.79
3496.37	3029.52
3496.56	3044.09
3496.76	3020.93
3496.95	3022.64
3497.14	3004.28
3497.33	2995
3497.52	2956.19
3497.72	2927.19
3497.91	2918.67
3498.1	2904.83
3498.29	2886.09
3498.49	2918.03
3498.68	2892.16
3498.87	2851.14
3499.06	2857.09
3499.25	2787.49
3499.45	2800.44
3499.64	2808.22
3499.83	2801.04
3500.02	2724.3
3500.22	2769.94
3500.41	2742.7
3500.6	2742.54
3500.79	2703.37
3500.98	2708.66
3501.18	2675.59
3501.37	2663.2
3501.56	2656.62
3501.75	2620.44
3501.95	2627.49
3502.14	2618.62
3502.33	2612.35
3502.52	2569.58
3502.71	2564.88
3502.91	2547.01
3503.1	2522.04
3503.29	2556.09
3503.48	2514.65
3503.67	2504.97
3503.86	2466.83
3504.06	2447.07
3504.25	2440.96
3504.44	2441.39
3504.63	2433.86
3504.82	2396.78
3505.02	2399.46
3505.21	2360.2
3505.4	2368.86
3505.59	2327.22
3505.79	2312.54
3505.98	2307.78
3506.17	2299.52
3506.36	2298.4
3506.55	2265.33
3506.75	2292.42
3506.94	2260.94
3507.13	2217.81
3507.32	2231.81
3507.51	2221.24
3507.7	2212.27
3507.9	2204.36
3508.09	2169.01
3508.28	2155.25
3508.47	2155.48
3508.66	2143.48
3508.85	2130.34
3509.05	2120.11
3509.24	2101.17
3509.43	2091.38
3509.62	2084.06
3509.81	2072.75
3510.01	2053.86
3510.2	2053.51
3510.39	2019.02
3510.58	2021.29
3510.77	1986.9
3510.96	1972.6
3511.16	1975.35
3511.35	1986.52
3511.54	1947.6
3511.73	1912.48
3511.92	1941.56
3512.11	1924.49
3512.31	1905.72
3512.5	1894.25
3512.69	1882.88
3512.88	1867.93
3513.07	1855.1
3513.26	1833.63
3513.46	1808.62
3513.65	1802.97
3513.84	1802.23
3514.03	1776.97
3514.22	1760.66
3514.41	1788.08
3514.6	1782.32
3514.8	1738.26
3514.81	1734.87
3515	1729.34
3515.2	1740.83
3515.39	1696.91
3515.59	1686.23
3515.78	1646.05
3515.98	1675.49
3516.17	1685.95
3516.36	1679.3
3516.56	1639.35
3516.75	1628.96
3516.95	1590.99
3517.14	1607.25
3517.34	1603.51
3517.53	1593.02
3517.72	1566.31
3517.92	1537.59
3518.11	1522.75
3518.31	1549.94
3518.5	1516.61
3518.7	1518.49
3518.89	1501.42
3519.08	1485.32
3519.28	1472.19
3519.47	1471.5
3519.67	1450.95
3519.86	1438.1
3520.05	1436.9
3520.25	1429.8
3520.44	1446.37
3520.64	1471.39
3520.83	1401.08
3521.02	1406.77
3521.22	1376.11
3521.41	1389.14
3521.61	1404.26
3521.8	1374.66
3522	1355.52
3522.19	1342.1
3522.38	1323.01
3522.58	1324
3522.77	1303.13
3522.97	1306.81
3523.16	1310.47
3523.35	1308.41
3523.55	1294.89
3523.74	1286.07
3523.94	1297.32
3524.13	1249.7
3524.32	1250.64
3524.52	1233.52
3524.71	1235.39
3524.9	1261.98
3525.1	1232.54
3525.29	1207.96
3525.49	1211.02
3525.68	1218.83
3525.87	1159.02
3526.07	1154.98
3526.26	1193.87
3526.46	1179.81
3526.65	1163.93
3526.84	1184.25
3527.04	1131.84
3527.23	1131.4
3527.42	1152.92
3527.62	1141.86
3527.81	1131.36
3528.01	1123
3528.2	1126.4
3528.39	1099.45
3528.59	1092.74
3528.78	1101.27
3528.98	1065.12
3529.17	1095.46
3529.36	1069.54
3529.56	1078.74
3529.75	1067.97
3529.94	1063.02
3530.14	1046.72
3530.33	1064.87
3530.53	1030.55
3530.72	1041.5
3530.91	1032.39
3531.11	1028
3531.3	1038.81
3531.49	1018.08
3531.69	1008.71
3531.88	1005.04
3532.07	1018.33
3532.27	985.008
3532.46	1002.13
3532.66	976.352
3532.85	967.66
3533.04	974.21
3533.24	950.306
3533.43	946.444
3533.62	975.969
3533.82	946.489
3534.01	945.58
3534.2	936.119
3534.4	948.553
3534.59	990.539
3534.78	941.12
3534.98	934.513
3535.17	939.228
3535.36	941.161
3535.56	937.454
3535.75	935.738
3535.95	928.36
3536.14	901.711
3536.33	917.797
3536.53	923.371
3536.72	919.459
3536.91	899.427
3537.1	912.737
3537.3	901.244
3537.49	902.975
3537.69	897.04
3537.88	922.625
3538.07	865.548
3538.27	895.076
3538.46	896.987
3538.65	886.342
3538.84	869.035
3539.04	850.156
3539.23	880.885
3539.43	889.678
3539.62	894.621
3539.81	886.201
3540.01	880.615
3540.2	866.447
3540.39	867.504
3540.58	867.601
3540.78	864.842
3540.97	853.493
3541.16	866.908
3541.36	858.417
3541.55	849.067
3541.74	859.791
3541.94	854.286
3542.13	841.128
3542.32	848.942
3542.52	870.102
3542.71	871.233
3542.9	846.59
3543.1	845.803
3543.29	834.451
3543.48	837.433
3543.68	867.178
3543.87	880.725
3544.06	851.284
3544.25	853.327
3544.45	841.966
3544.64	852.589
3544.83	860.311
3545.03	856.601
3545.22	845.23
3545.41	822.339
3545.61	853.864
3545.8	840.639
3545.99	840.995
3546.19	868.822
3546.38	841.813
3546.57	855.823
3546.76	842.105
3546.96	852.542
3547.15	865.07
3547.34	846.117
3547.54	869.355
3547.73	846.19
3547.92	852.624
3548.11	847.446
3548.31	860.617
3548.5	859.763
3548.69	854.14
3548.89	845.628
3549.08	861.954
3549.27	855.372
3549.47	851.66
3549.66	837.441
3549.85	848.059
3550.04	858.67
3550.24	845.362
3550.43	859.752
3550.62	859.772
3550.82	869.337
3551.01	860.726
3551.2	869.316
3551.39	876.943
3551.59	846.326
3551.78	854.898
3551.97	855.829
3552.16	848.159
3552.36	865.321
3552.55	871.007
3552.74	873.821
3552.94	871.887
3553.13	871.909
3553.32	861.428
3553.51	857.626
3553.71	877.564
3553.9	875.256
3554.09	879.866
3554.29	882.235
3554.48	884.8
3554.67	904.339
3554.86	887.457
3555.05	859.383
3555.25	873.209
3555.44	875.489
3555.63	892.983
3555.83	877.859
3556.02	904.759
3556.21	856.028
3556.4	879.02
3556.6	879.991
3556.79	872.326
3556.98	886.653
3557.17	872.273
3557.37	908.595
3557.56	898.034
3557.75	893.215
3557.94	910.396
3558.14	894.092
3558.33	901.697
3558.52	894.958
3558.71	884.398
3558.91	885.343
3559.1	886.268
3559.29	891.958
3559.48	873.732
3559.68	878.464
3559.87	891.863
3560.06	895.749
3560.25	908.291
3560.44	890.304
3560.64	886.703
3560.83	895.533
3561.02	896.709
3561.22	900.694
3561.41	884.509
3561.6	892.175
3561.79	858.57
3561.98	887.136
3562.18	900.346
3562.37	886.728
3562.56	854.886
3562.75	881.353
3562.95	891.436
3563.14	903.339
3563.33	874.266
3563.52	876.95
3563.71	879.04
3563.91	852.552
3564.1	875.066
3564.29	892.033
3564.48	892.425
3564.68	903.455
3564.87	890.42
3565.06	868.294
3565.25	872.916
3565.44	899.584
3565.64	906.279
3565.83	886.357
3566.02	884.822
3566.21	865.957
3566.41	883.914
3566.6	876.99
3566.79	878.772
3566.98	890.173
3567.17	847.026
3567.37	866.036
3567.56	843.757
3567.75	879.516
3567.94	859.977
3568.14	874.673
3568.33	844.926
3568.52	860.095
3568.71	829.043
3568.9	885.082
3569.1	847.047
3569.29	851.292
3569.48	821.549
3569.67	822.167
3569.86	847.198
3570.05	826.489
3570.25	841.746
3570.44	816.859
3570.63	832.221
3570.82	829.38
3571.02	801.627
3571.21	813.167
3571.4	824.724
3571.59	828.7
3571.78	843.503
3571.97	817.313
3572.17	820.463
3572.36	817.361
3572.55	803.525
3572.74	815.686
3572.93	809.662
3573.13	802.076
3573.32	817.677
3573.51	812.793
3573.7	802.667
3573.89	793.184
3574.09	799.016
3574.28	775.21
3574.47	788.727
3574.66	772.683
3574.85	772.898
3575.04	759.29
3575.24	765.326
3575.43	760.584
3575.62	779.815
3575.81	772.181
3576	754.001
3576.19	754.039
3576.39	759.828
3576.58	750.247
3576.77	729.145
3576.96	766.563
3577.15	740.658
3577.35	732.994
3577.54	733.021
3577.73	702.353
3577.92	707.194
3578.11	717.792
3578.3	723.612
3578.49	699.706
3578.69	730.531
3578.88	696.061
3579.07	705.593
3579.26	705.497
3579.45	692.105
3579.64	681.676
3579.83	692.389
3580.03	682.952
3580.22	690.798
3580.41	679.428
3580.6	686.285
3580.79	685.463
3580.98	662.532
3581.18	680.882
3581.37	652.042
3581.56	661.361
3581.75	657.094
3581.94	670.348
3582.13	684.722
3582.33	644.442
3582.52	626.218
3582.71	647.298
3582.9	646.283
3583.09	645.268
3583.28	654.885
3583.47	603.475
3583.67	652.921
3583.86	637.63
3584.05	632.943
3584.24	630.854
3584.43	641.907
3584.62	611.857
3584.81	623.755
3585.01	643.204
3585.2	601.498
3585.39	621.76
3585.58	620.725
3585.77	608.96
3585.96	624.565
3586.15	628.368
3586.34	626.206
3586.54	587.702
3586.73	596.797
3586.92	620.272
3587.11	593.288
3587.3	599.015
3587.49	605.734
3587.68	614.369
3587.87	598.986
3588.07	589.345
3588.26	581.598
3588.45	591.118
3588.64	605.408
3588.83	593.753
3589.02	607.055
3589.21	587.733
3589.4	581.871
3589.59	598.102
3589.79	587.532
3589.98	571.29
3590.17	591.596
3590.36	570.778
3590.55	603.721
3590.74	593.893
3590.93	572.556
3591.12	591.566
3591.32	575.245
3591.51	587.019
3591.7	600.643
3591.89	587.771
3592.08	590.247
3592.27	585.301
3592.46	573.746
3592.65	585.243
3592.84	571.861
3593.03	580.531
3593.23	573.885
3593.42	584.476
3593.61	583.57
3593.8	598.95
3593.99	560.646
3594.18	572.159
3594.37	583.668
3594.56	582.74
3594.75	593.341
3594.94	569.452
3595.13	585.824
3595.32	580.132
3595.52	572.505
3595.71	582.135
3595.9	564.917
3596.09	579.345
3596.28	588.968
3596.47	570.759
3596.66	586.086
3596.85	587.956
3597.04	572.544
3597.23	566.706
3597.43	582.907
3597.62	579.939
3597.81	565.482
3598	593.195
3598.19	592.189
3598.38	590.252
3598.57	584.5
3598.76	580.676
3598.95	582.608
3599.14	590.268
3599.33	590.265
3599.52	576.818
3599.71	566.222
3599.9	581.442
3600.1	588.028
3600.29	594.606
3600.48	586.905
3600.67	598.469
3600.86	580.469
3601.05	592.121
3601.24	584.338
3601.43	588.854
3601.62	589.695
3601.81	572.393
3602	593.246
3602.19	573.751
3602.38	590.414
3602.57	595.118
3602.76	594.39
3602.95	590.709
3603.15	582.169
3603.34	591.791
3603.53	577.417
3603.72	591.815
3603.91	602.396
3604.1	601.572
3604.29	575.855
3604.48	589.507
3604.67	578.965
3604.86	581.613
3605.05	609.896
3605.24	591.06
3605.43	595.299
3605.62	607.067
3605.81	609.551
3606	576.674
3606.19	600.61
3606.38	592.093
3606.57	589.287
3606.76	600.808
3606.96	602.765
3607.15	589.404
3607.34	590.4
3607.53	594.262
3607.72	602.905
3607.91	599.086
3608.1	600.039
3608.29	589.481
3608.48	592.307
3608.67	608.524
3608.86	614.206
3609.05	610.31
3609.24	599.708
3609.43	586.242
3609.62	592.863
3609.81	610.977
3610	595.601
3610.19	588.825
3610.38	595.426
3610.57	590.554
3610.76	586.645
3610.95	600.903
3611.14	574.098
3611.33	572.152
3611.52	606.528
3611.71	580.752
3611.9	602.805
3612.09	591.443
3612.28	607.827
3612.47	585.981
3612.66	605.177
3612.85	580.34
3613.04	588.882
3613.23	600.309
3613.42	598.274
3613.61	624.897
3613.8	596.082
3613.99	606.439
3614.18	631.142
3614.37	590.009
3614.56	609.211
3614.75	596.106
3614.94	609.623
3615.14	600.107
3615.33	611.433
3615.52	606.678
3615.71	592.672
3615.89	605.654
3616.08	599.245
3616.27	602.433
3616.47	604.185
3616.66	596.134
3616.85	609.391
3617.04	592.904
3617.22	591.697
3617.41	607.782
3617.6	620.069
3617.79	610.409
3617.99	602.703
3618.18	620.805
3618.36	576.811
3618.55	611.971
3618.74	598.475
3618.93	607.866
3619.12	597.384
3619.31	606.551
3619.5	611.773
3619.69	605.325
3619.88	625.472
3620.07	590.355
3620.26	608.674
3620.45	604.833
3620.64	606.89
3620.83	603.841
3621.02	604.432
3621.21	607.843
3621.4	608.239
3621.59	631.728
3621.78	617.402
3621.97	622.07
3622.16	608.604
3622.35	630.401
3622.54	622.669
3622.73	626.397
3622.92	626.305
3623.11	617.598
3623.3	609.781
3623.49	615.026
3623.68	627.788
3623.87	625.403
3624.06	626.412
3624.25	615.965
3624.44	627.455
3624.63	639.026
3624.82	616.307
3625.01	633.585
3625.2	634.651
3625.39	614.717
3625.58	633.836
3625.76	630.992
3625.95	638.578
3626.14	626.114
3626.33	630.785
3626.52	626.766
3626.71	616.849
3626.9	623.985
3627.09	654.923
3627.28	640.219
3627.47	631.404
3627.66	626.29
3627.85	626.714
3628.04	624.795
3628.23	626.885
3628.42	634.731
3628.61	633.198
3628.8	630.41
3628.99	627.589
3629.18	637.123
3629.37	654.268
3629.56	631.42
3629.75	633.347
3629.93	630.5
3630.12	641.94
3630.31	641.001
3630.5	657.206
3630.69	645.802
3630.88	638.202
3631.07	635.364
3631.26	634.428
3631.45	652.539
3631.64	653.504
3631.83	650.658
3632.02	647.806
3632.21	655.431
3632.4	639.229
3632.59	669.65
3632.77	655.301
3632.96	646.686
3633.15	632.336
3633.34	632.16
3633.53	646.259
3633.72	651.887
3633.91	661.511
3634.1	632.258
3634.29	662.122
3634.48	654.027
3634.67	636.166
3634.86	648.378
3635.04	669.833
3635.23	670.441
3635.42	640.439
3635.61	643.762
3635.8	648.675
3635.99	656.843
3636.18	644.414
3636.37	632.656
3636.56	633.773
3636.75	644.158
3636.94	636.439
3637.13	661.13
3637.31	638.255
3637.5	636.341
3637.69	654.441
3637.88	644.947
3638.07	632.587
3638.26	662.098
3638.45	656.37
3638.64	647.77
3638.83	641.989
3639.02	644.738
3639.2	645.564
3639.39	641.619
3639.58	636.722
3639.77	643.244
3639.96	643.127
3640.15	629.729
3640.34	629.651
3640.53	645.743
3640.72	648.552
3640.91	641.882
3641.09	609.594
3641.28	655.233
3641.47	645.831
3641.66	613.666
3641.85	640.454
3642.04	654.913
3642.23	649.419
3642.42	646.756
3642.61	627.881
3642.8	650.782
3642.98	645.051
3643.17	644.923
3643.36	641.058
3643.55	638.206
3643.74	637.334
3643.93	623.828
3644.12	623.352
3644.31	635.912
3644.49	642.945
3644.68	617.958
3644.87	621.606
3645.06	634.448
3645.25	641.472
3645.44	621.788
3645.63	632.421
3645.82	646.164
3646	641.027
3646.19	636.878
3646.38	647.73
3646.57	640.642
3646.76	625.554
3646.95	645.823
3647.14	629.197
3647.33	622.438
3647.51	649.689
3647.7	650.481
3647.89	659.896
3648.08	624.78
3648.27	613.378
3648.46	637.06
3648.65	622.793
3648.83	619.951
3649.02	640.866
3649.21	662.772
3649.4	642.92
3649.59	629.726
3649.78	623.171
3649.97	631.803
3650.16	629.958
3650.34	650.868
3650.53	627.103
3650.72	639.394
3650.91	631.719
3651.1	630.65
3651.29	644.772
3651.47	660.785
3651.66	612.245
3651.85	633.009
3652.04	657.502
3652.23	634.591
3652.42	644.967
3652.6	658.499
3652.79	633.262
3652.98	645.924
3653.17	644.448
3653.36	640.108
3653.55	655.102
3653.73	651.203
3653.92	644.359
3654.11	662.842
3654.3	641.412
3654.49	652.402
3654.68	655.933
3654.87	669.231
3655.05	682.649
3655.24	626.775
3655.43	648.05
3655.62	643.88
3655.81	644.683
3656	644.333
3656.18	660.44
3656.37	648.4
3656.56	626.437
3656.75	664.21
3656.94	671.625
3657.12	665.913
3657.31	674.999
3657.5	674.113
3657.69	666.526
3657.88	672.961
3658.07	653.168
3658.25	682.865
3658.44	678.485
3658.63	654.033
3658.82	672.026
3659.01	665.008
3659.19	675.935
3659.38	673.67
3659.57	678.496
3659.76	676.699
3659.95	671.752
3660.14	673.69
3660.32	679.334
3660.51	689.792
3660.7	704.123
3660.89	681.548
3661.08	688.439
3661.26	675.3
3661.45	685.916
3661.64	697.423
3661.83	703.18
3662.02	696.481
3662.2	679.24
3662.39	687.603
3662.58	697.8
3662.77	706.072
3662.96	704.875
3663.14	685.706
3663.33	681.807
3663.52	711.202
3663.71	667.537
3663.9	707.512
3664.08	697.255
3664.27	708.899
3664.46	682.528
3664.65	699.838
3664.84	723.764
3665.02	689.627
3665.21	718.18
3665.4	708.632
3665.59	703.803
3665.77	704.632
3665.96	693.072
3666.15	686.274
3666.34	715.605
3666.53	688.957
3666.71	675.693
3666.9	693.832
3667.09	710.158
3667.28	722.783
3667.47	718.32
3667.65	731.951
3667.84	730.324
3668.03	710.486
3668.22	665.722
3668.4	703.453
3668.59	696.225
3668.78	714.816
3668.97	717.414
3669.16	718.264
3669.34	713.014
3669.53	708.824
3669.72	717.196
3669.91	719.086
3670.09	706.821
3670.28	697.412
3670.47	707.023
3670.66	704.232
3670.84	700.459
3671.03	721.436
3671.22	712.929
3671.41	711.047
3671.59	713.903
3671.78	707.233
3671.97	722.362
3672.16	705.269
3672.35	715.073
3672.53	682.074
3672.72	722.161
3672.91	703.843
3673.1	694.877
3673.28	704.313
3673.47	704.174
3673.66	707.981
3673.85	692.142
3674.03	688.326
3674.22	698.911
3674.41	694.58
3674.6	697.097
3674.78	695.627
3674.97	696.581
3675.16	699.104
3675.35	680.743
3675.53	667.392
3675.72	685.623
3675.91	694.289
3676.09	677.18
3676.28	664.816
3676.47	688.643
3676.66	696.281
3676.85	687.703
3677.03	690.554
3677.22	663.807
3677.41	678
3677.59	671.253
3677.78	675.871
3677.97	651.145
3678.16	662.731
3678.34	653.486
3678.53	641.187
3678.72	652.957
3678.91	662.557
3679.09	633.047
3679.28	646.218
3679.47	649.747
3679.66	647.344
3679.84	640.014
3680.03	631.086
3680.22	632.378
3680.4	624.27
3680.59	616.925
3680.78	603.667
3680.97	618.92
3681.15	621.76
3681.34	615.093
3681.53	598.875
3681.71	591.236
3681.9	590.247
3682.09	575.951
3682.28	581.646
3682.46	598.76
3682.65	592.097
3682.84	552.154
3683.02	585.495
3683.21	576.038
3683.4	579.899
3683.58	564.735
3683.77	571.473
3683.96	556.288
3684.15	555.401
3684.33	542.086
3684.52	540.206
3684.71	539.299
3684.89	530.927
3685.08	543.732
3685.27	520.512
3685.46	520.565
3685.64	510.468
3685.83	528.002
3686.02	496.492
3686.2	499.601
3686.39	519.018
3686.58	498.414
3686.76	490.214
3686.95	488.76
3687.14	478.141
3687.33	487.902
3687.51	483.306
3687.7	463.387
3687.89	482.518
3688.07	449.272
3688.26	446.527
3688.45	447.589
3688.63	464.864
3688.82	451.619
3689.01	449.792
3689.19	440.297
3689.38	438.418
3689.57	436.532
3689.75	438.457
3689.94	415.585
3690.13	425.141
3690.32	429.934
3690.5	401.353
3690.69	412.848
3690.88	403.374
3691.06	408.22
3691.25	416.895
3691.44	397.901
3691.62	389.407
3691.81	379.964
3692	390.59
3692.18	384.022
3692.37	380.314
3692.56	369.899
3692.74	363.288
3692.93	375.778
3693.12	382.513
3693.3	364.363
3693.49	360.542
3693.68	368.189
3693.86	363.407
3694.05	354.799
3694.24	339.512
3694.42	345.252
3694.61	334.725
3694.8	337.575
3694.98	344.243
3695.17	341.351
3695.36	351.847
3695.54	339.415
3695.73	337.506
3695.92	332.734
3696.1	327.009
3696.29	325.111
3696.48	312.705
3696.66	320.374
3696.85	311.804
3697.04	310.888
3697.22	320.487
3697.41	311.932
3697.59	327.288
3697.78	313.934
3697.97	317.787
3698.15	307.265
3698.34	316.797
3698.53	308.182
3698.71	307.228
3698.9	301.561
3699.09	293.958
3699.27	278.703
3699.46	300.716
3699.65	292.971
3699.83	293.89
3700.02	284.582
3700.2	297.378
3700.39	288.72
3700.58	285.828
3700.76	286.768
3700.95	294.414
3701.14	301.103
3701.32	279.073
3701.51	266.623
3701.7	280.03
3701.88	292.493
3702.07	282.948
3702.25	275.334
3702.44	277.31
3702.63	271.633
3702.81	292.784
3703	273.693
3703.19	274.718
3703.37	272.876
3703.56	249.945
3703.74	275.909
3703.93	269.248
3704.12	262.52
3704.3	271.983
3704.49	267.064
3704.68	279.561
3704.86	269.183
3705.05	258.957
3705.23	270.507
3705.42	265.781
3705.61	260.716
3705.79	258.728
3705.98	261.727
3706.17	269.773
3706.35	264.652
3706.54	264.983
3706.72	278.811
3706.91	262.086
3707.09	274.689
3707.28	258.112
3707.47	257.323
3707.65	261.428
3707.84	261.422
3708.03	267.084
3708.21	253.967
3708.4	264.103
3708.58	260.92
3708.77	252.762
3708.96	258.197
3709.14	262.022
3709.33	252.821
3709.51	239.145
3709.7	258.603
3709.89	253.153
3710.07	253.707
3710.26	256.355
3710.44	255.425
3710.63	244.225
3710.81	254.206
3711	252.345
3711.19	243.369
3711.37	261.297
3711.56	248.923
3711.74	259.73
3711.93	251.228
3712.12	250.261
3712.3	251.122
3712.49	246.166
3712.67	251.868
3712.86	255.834
3713.05	244.465
3713.23	256
3713.42	250.225
3713.6	249.271
3713.79	252.162
3713.97	245.48
3714.16	240.712
3714.35	247.422
3714.53	247.401
3714.72	250.247
3714.9	238.731
3715.09	252.114
3715.27	255.944
3715.46	242.56
3715.65	240.68
3715.83	254.141
3716.02	243.677
3716.2	246.641
3716.39	240.032
3716.57	243.974
3716.76	246.944
3716.95	246.842
3717.13	243.992
3717.32	255.561
3717.5	253.697
3717.69	248.944
3717.87	243.218
3718.06	241.32
3718.25	243.264
3718.43	240.414
3718.62	248.115
3718.8	251.968
3718.99	246.218
3719.17	245.26
3719.36	237.583
3719.54	235.665
3719.73	248.144
3719.92	239.519
3720.1	229.932
3720.29	236.655
3720.47	240.5
3720.66	246.27
3720.84	237.663
3721.03	237.722
3721.21	246.431
3721.4	236.903
3721.58	251.337
3721.77	246.565
3721.96	235.087
3722.14	241.867
3722.33	235.19
3722.51	244.843
3722.7	248.72
3722.88	249.71
3723.07	233.391
3723.25	234.369
3723.44	239.208
3723.62	245.956
3723.81	244.934
3723.99	245.856
3724.18	254.471
3724.36	248.746
3724.55	237.275
3724.74	223.857
3724.92	226.757
3725.11	238.301
3725.29	244.08
3725.48	233.528
3725.66	238.341
3725.85	238.344
3726.03	237.372
3726.22	237.349
3726.4	230.59
3726.59	233.44
3726.77	243.976
3726.96	239.132
3727.14	230.461
3727.33	247.687
3727.51	227.483
3727.7	234.187
3727.88	236.31
3728.07	242.861
3728.26	233.847
3728.44	229.292
3728.63	238.272
3728.81	236.223
3729	229.686
3729.18	244.363
3729.37	222.334
3729.55	242.42
3729.74	233.664
3729.92	238.4
3730.11	212.49
3730.29	227.878
3730.48	224.085
3730.66	226.051
3730.85	238.593
3731.03	239.6
3731.22	234.851
3731.4	229.131
3731.59	227.252
3731.77	220.563
3731.96	232.14
3732.14	227.373
3732.33	226.45
3732.51	208.205
3732.7	227.461
3732.88	219.768
3733.07	225.522
3733.25	219.718
3733.44	222.558
3733.62	230.195
3733.81	218.608
3733.99	222.39
3734.18	224.252
3734.36	228.998
3734.55	228.956
3734.73	227.971
3734.92	221.249
3735.1	222.222
3735.28	208.818
3735.47	210.777
3735.66	214.663
3735.84	216.629
3736.03	218.584
3736.21	215.728
3736.39	199.408
3736.58	223.404
3736.76	217.624
3736.95	217.603
3737.13	215.689
3737.32	222.442
3737.5	221.539
3737.69	213.84
3737.87	211.674
3738.06	217.194
3738.24	213.329
3738.43	217.379
3738.61	201.301
3738.8	223.499
3738.98	210.924
3739.16	221.377
3739.35	216.583
3739.53	208.158
3739.72	213.106
3739.9	219.901
3740.09	216.105
3740.27	225.743
3740.46	217.104
3740.64	213.238
3740.83	209.35
3741.01	203.533
3741.2	203.478
3741.38	205.353
3741.57	204.368
3741.75	209.172
3741.94	207.294
3742.12	213.083
3742.3	208.318
3742.49	209.313
3742.67	213.184
3742.86	205.531
3743.04	213.223
3743.23	204.579
3743.41	207.445
3743.6	215.091
3743.78	208.346
3743.96	203.529
3744.15	208.326
3744.33	204.513
3744.52	204.56
3744.7	216.114
3744.89	205.676
3745.07	204.705
3745.26	201.428
3745.44	207.419
3745.62	197.913
3745.81	204.885
3745.99	193.682
3746.18	196.962
3746.36	195.481
3746.55	193.103
3746.73	206.761
3746.91	199.108
3747.1	194.185
3747.28	199.673
3747.47	202.088
3747.65	206.171
3747.84	203.685
3748.02	186.342
3748.21	198.584
3748.39	201.324
3748.57	201.319
3748.76	189.967
3748.94	196.043
3749.13	185.663
3749.31	189.265
3749.49	202.362
3749.68	189.95
3749.86	190.181
3750.05	194.282
3750.23	200.07
3750.42	192.33
3750.6	198.057
3750.78	198.072
3750.97	198.102
3751.15	184.711
3751.34	196.245
3751.52	182.834
3751.71	189.547
3751.89	192.405
3752.07	205.794
3752.26	199.033
3752.44	190.35
3752.63	193.167
3752.81	187.377
3752.99	190.234
3753.18	204.608
3753.36	188.367
3753.55	194.166
3753.73	191.347
3753.91	204.808
3754.1	191.417
3754.28	187.623
3754.47	197.249
3754.65	197.31
3754.83	183.961
3755.02	186.883
3755.2	182.023
3755.39	197.98
3755.57	192.269
3755.75	190.595
3755.94	191.804
3756.12	181.428
3756.31	200.338
3756.49	193.136
3756.67	194.244
3756.86	178.367
3757.04	168.038
3757.23	187.245
3757.41	192.608
3757.59	192.888
3757.78	181.473
3757.96	182.862
3758.14	186.992
3758.33	193.788
3758.51	185.914
3758.7	188.445
3758.88	174.853
3759.06	187.663
3759.25	184.205
3759.43	181.416
3759.61	183.228
3759.8	192.609
3759.98	177.048
3760.17	179.663
3760.35	184.799
3760.53	189.208
3760.72	179.656
3760.9	179.4
3761.09	182.861
3761.27	179.125
3761.45	181.213
3761.64	183.257
3761.82	179.484
3762	189.899
3762.19	190.634
3762.37	181.079
3762.55	189.781
3762.74	174.523
3762.92	179.338
3763.11	177.436
3763.29	181.266
3763.47	193.705
3763.66	188.906
3763.84	185.065
3764.02	177.394
3764.21	177.384
3764.39	185.028
3764.57	180.236
3764.76	191.705
3764.94	175.45
3765.13	164.922
3765.31	187.86
3765.49	187.84
3765.68	170.615
3765.86	187.825
3766.04	179.265
3766.23	179.353
3766.41	187.076
3766.59	182.282
3766.78	170.721
3766.96	183.037
3767.14	183.057
3767.33	186.002
3767.51	172.652
3767.69	178.312
3767.88	171.519
3768.06	179.108
3768.25	179.134
3768.43	184.892
3768.61	175.377
3768.79	178.262
3768.98	174.469
3769.16	182.136
3769.34	176.435
3769.53	172.644
3769.71	169.803
3769.89	164.088
3770.08	180.339
3770.26	169.833
3770.44	187.977
3770.63	172.687
3770.81	180.324
3771	175.54
3771.18	178.398
3771.36	179.345
3771.54	166.929
3771.73	165.033
3771.91	166.977
3772.09	171.808
3772.28	171.886
3772.46	172.703
3772.64	175.39
3772.83	168.672
3773.01	174.457
3773.19	178.395
3773.38	170.027
3773.56	170.52
3773.74	182.748
3773.93	164.557
3774.11	181.836
3774.29	179.355
3774.48	176.812
3774.66	176.661
3774.84	168.211
3775.02	180.618
3775.21	181.781
3775.39	167.913
3775.57	175.09
3775.76	176.91
3775.94	176.524
3776.12	164.673
3776.31	179.85
3776.49	163.63
3776.67	170.093
3776.86	178.898
3777.04	172.871
3777.22	170.551
3777.4	174.176
3777.59	165.871
3777.77	176.73
3777.95	176.882
3778.14	167.277
3778.32	171.846
3778.5	176.375
3778.69	177.32
3778.87	163.207
3779.05	172.06
3779.24	172.912
3779.42	175.539
3779.6	176.324
3779.78	176.334
3779.97	157.44
3780.15	162.49
3780.33	178.072
3780.51	164.51
3780.7	173.568
3780.88	176.262
3781.06	164.192
3781.25	170.067
3781.43	165.225
3781.61	161.214
3781.8	178.39
3781.98	168.964
3782.16	159.535
3782.34	167.211
3782.53	183.428
3782.71	176.771
3782.89	172.951
3783.07	171.036
3783.26	170.093
3783.44	160.593
3783.62	156.789
3783.8	168.199
3783.99	162.426
3784.17	171.739
3784.35	172.573
3784.54	167.927
3784.72	177.738
3784.9	162.537
3785.08	168.237
3785.27	166.326
3785.45	167.276
3785.63	165.38
3785.82	163.485
3786	175.868
3786.18	167.31
3786.36	166.362
3786.55	164.462
3786.73	164.465
3786.91	163.518
3787.09	165.43
3787.28	171.153
3787.46	172.126
3787.64	178.821
3787.82	171.248
3788.01	168.435
3788.19	164.667
3788.37	165.655
3788.55	166.639
3788.74	160.949
3788.92	165.73
3789.1	168.599
3789.28	172.413
3789.47	168.6
3789.65	169.547
3789.83	164.774
3790.01	159.047
3790.2	177.121
3790.38	163.783
3790.56	169.492
3790.74	158.057
3790.93	166.605
3791.11	169.442
3791.29	168.488
3791.47	161.861
3791.66	159.136
3791.84	165.57
3792.02	167.291
3792.2	157.403
3792.39	165.735
3792.57	167.507
3792.75	166.559
3792.93	168.606
3793.11	161.459
3793.3	152.636
3793.48	168.582
3793.66	160.874
3793.84	168.578
3794.03	159.269
3794.21	160.36
3794.39	159.163
3794.57	160.779
3794.75	169.102
3794.94	163.882
3795.12	153.427
3795.3	167.539
3795.48	166.312
3795.67	155.764
3795.85	163.439
3796.03	164.73
3796.21	156.417
3796.4	162.247
3796.58	169.852
3796.76	155.528
3796.94	165.022
3797.12	149.622
