#Acq. time (s)=	30
#Accumulations=	2
#Range (cm-¹)=	1200...2365
#Windows=	3
#Auto scanning=	Off
#Autofocus=	Off
#Macrospot=	Off
#AutoExposure=	Off
#Spike filter=	Multiple accum.
#Delay time (s)=	2
#Binning=	1
#Readout mode=	Signal
#DeNoise=	Off
#ICS correction=	On
#Dark correction=	Off
#Inst. Process=	Off
#Detector Gain=	Best Dynamic
#Detector ADC=	50 kHz HS
#Detector temperature (°C)=	-60.09
#Instrument=	LabRAM HR Evol
#Detector=	SIN-EM FIVIS
#Objective=	x100_VIS_LWD
#Grating=	1800 (450-850nm)
#ND Filter=	100%
#Laser=	532nm_Edge
#Hole=	49.98
#Temperature=	0
#Range=	Visible
#StageXY=	75x50mm Scan+
#StageZ=	Z motor
#X (µm)=	0
#Y (µm)=	0
#Z (µm)=	-17.2
#Full time(mm:ss)=	3:28
#Project=	21_11_26
#Sample=	BU02Aw
#Site=	
#Title=	BU02aW-A-FF1-FI05-V_1800 (450-850nm)_532nm_Edge_100%_x100_VIS_LWD_H50um_30sX2
#Remark=	
#Date=	26.11.2021 10:48
#Acquired=	26.11.2021 10:48:18
1202.72	36.0265
1203	32.8467
1203.28	33.934
1203.56	40.3729
1203.84	34.9616
1204.11	29.5671
1204.39	37.079
1204.67	30.6299
1204.95	39.2334
1205.23	36
1205.5	40.2833
1205.78	39.1917
1206.06	35.9517
1206.34	35.9334
1206.61	35.9156
1206.89	42.3299
1207.17	34.8082
1207.45	36.9359
1207.73	34.7838
1208	37.9861
1208.28	36.9085
1208.56	37.9702
1208.84	34.7481
1209.11	37.9464
1209.39	35.7969
1209.67	35.7915
1209.95	34.72
1210.23	36.8539
1210.5	38.983
1210.78	32.5555
1211.06	42.153
1211.34	32.53
1211.61	33.5838
1211.89	41.041
1212.17	35.6912
1212.45	38.8746
1212.72	35.6658
1213	37.7853
1213.28	34.5775
1213.56	40.9591
1213.83	35.629
1214.11	35.6204
1214.39	32.4272
1214.67	44.1385
1214.94	34.5561
1215.22	33.4901
1215.5	38.8108
1215.78	36.6787
1216.05	34.5458
1216.33	35.6001
1216.61	33.4587
1216.89	38.76
1217.16	35.5548
1217.44	36.6054
1217.72	34.4692
1218	34.4582
1218.27	32.3257
1218.55	36.5635
1218.83	38.6774
1219.1	36.5495
1219.38	32.3015
1219.66	39.7244
1219.94	34.4141
1220.21	34.4069
1220.49	38.6474
1220.77	39.7071
1221.04	36.5221
1221.32	32.2755
1221.6	41.8113
1221.88	36.5023
1222.15	37.5504
1222.43	35.416
1222.71	35.3987
1222.98	37.4967
1223.26	37.4778
1223.54	37.4597
1223.81	32.1583
1224.09	34.2592
1224.37	34.2461
1224.65	36.3485
1224.92	32.1175
1225.2	37.3901
1225.48	37.388
1225.76	36.3359
1226.03	34.2271
1226.31	33.1746
1226.59	34.2275
1226.86	36.3356
1227.14	34.2165
1227.42	39.4867
1227.69	35.2457
1227.97	37.3185
1228.25	35.1884
1228.52	41.4831
1228.8	33.0295
1229.08	35.1048
1229.35	28.7965
1229.63	34.1336
1229.91	35.2609
1230.18	32.0628
1230.46	38.353
1230.74	39.3915
1231.01	34.1281
1231.29	38.3178
1231.57	32.9881
1231.84	41.3998
1232.12	37.1947
1232.4	39.2939
1232.67	35.0855
1232.95	31.9317
1233.23	35.0806
1233.5	40.3285
1233.78	36.1247
1234.06	36.1256
1234.33	37.1784
1234.61	31.9276
1234.89	36.1347
1235.16	32.9866
1235.44	37.1926
1235.71	34.0414
1235.99	39.3013
1236.27	37.2006
1236.54	30.8905
1236.82	35.0907
1237.1	36.1352
1237.37	37.1772
1237.65	38.2141
1237.93	37.1492
1238.2	41.334
1238.48	40.2685
1238.76	37.1059
1239.03	38.1433
1239.31	36.0385
1239.58	36.0325
1239.86	44.4141
1240.14	38.1208
1240.41	33.9257
1240.69	37.0691
1240.97	34.9726
1241.24	38.1183
1241.52	38.1186
1241.79	40.2106
1242.07	43.3463
1242.35	39.1487
1242.62	37.0525
1242.9	39.1497
1243.18	33.9136
1243.45	38.1102
1243.73	33.9156
1244	42.301
1244.28	36.0127
1244.56	36.0113
1244.83	34.9596
1245.11	40.1959
1245.39	41.2341
1245.66	37.032
1245.94	37.018
1246.21	40.1455
1246.49	32.8111
1246.76	33.8542
1247.04	41.1805
1247.32	40.1319
1247.59	38.0342
1247.87	35.9392
1248.14	40.1202
1248.42	44.2886
1248.7	40.0954
1248.97	40.0924
1249.25	43.2315
1249.52	38.0038
1249.8	39.0461
1250.08	32.7685
1250.35	45.3186
1250.63	41.1253
1250.9	43.2044
1251.18	34.8323
1251.45	40.0492
1251.73	42.1307
1252.01	44.2116
1252.28	37.936
1252.56	32.7068
1252.83	34.7877
1253.11	43.1297
1253.39	41.0332
1253.66	43.1151
1253.94	41.0272
1254.21	35.8145
1254.49	44.1712
1254.76	41.0475
1255.04	41.05
1255.31	42.0931
1255.59	41.0511
1255.87	38.9615
1256.14	37.9144
1256.42	42.0922
1256.69	43.1388
1256.97	45.2331
1257.24	40.0115
1257.52	40.0084
1257.79	42.0903
1258.07	45.2183
1258.35	49.3905
1258.62	44.1649
1258.9	52.5106
1259.17	53.5409
1259.45	54.5822
1259.72	47.2808
1260	44.1549
1260.27	46.2609
1260.55	39.9831
1260.82	46.2357
1261.1	44.1309
1261.37	51.4218
1261.65	49.3263
1261.92	59.7645
1262.2	53.5518
1262.48	58.8488
1262.75	69.3467
1263.02	65.054
1263.3	81.666
1263.58	81.6275
1263.85	85.8816
1264.13	106.837
1264.4	113.21
1264.68	114.312
1264.95	111.103
1265.23	90.1719
1265.5	85.9901
1265.78	80.7563
1266.05	71.3368
1266.33	60.8868
1266.6	57.7553
1266.88	61.9424
1267.15	51.5003
1267.43	54.6478
1267.7	53.6156
1267.98	51.5381
1268.25	50.5077
1268.53	47.3884
1268.8	48.452
1269.08	48.4605
1269.35	46.3721
1269.63	52.6637
1269.9	49.5163
1270.18	49.5044
1270.45	49.4882
1270.73	46.3357
1271	49.4636
1271.28	53.6401
1271.55	48.4032
1271.83	51.5347
1272.1	48.3983
1272.38	48.4086
1272.65	41.0927
1272.93	54.723
1273.2	48.4506
1273.47	56.8455
1273.75	54.7635
1274.03	52.68
1274.3	52.693
1274.57	44.3096
1274.85	47.4575
1275.12	45.3567
1275.4	55.8451
1275.67	52.7032
1275.95	47.4648
1276.22	51.6698
1276.5	46.433
1276.77	51.6897
1277.05	53.7988
1277.32	47.5043
1277.6	61.1708
1277.87	54.8806
1278.14	51.7399
1278.42	57.0051
1278.69	55.9635
1278.97	63.3402
1279.24	51.7794
1279.52	63.359
1279.79	61.2506
1280.07	55.9853
1280.34	65.4433
1280.61	67.5432
1280.89	71.7547
1281.16	80.1757
1281.44	92.8206
1281.71	91.7962
1281.99	111.808
1282.26	141.277
1282.53	178.134
1282.81	218.161
1283.08	274.967
1283.36	411.608
1283.63	540.547
1283.91	742.107
1284.18	1007.94
1284.45	1241.88
1284.73	1341.37
1285	1179.34
1285.28	867.422
1285.55	557.36
1285.83	335.018
1286.1	231.844
1286.37	161.336
1286.65	133.954
1286.92	118.135
1287.2	92.8633
1287.47	86.5398
1287.75	68.6309
1288.02	72.8278
1288.29	65.4524
1288.57	61.2414
1288.84	61.2421
1289.12	62.2981
1289.39	62.3065
1289.66	52.8414
1289.94	49.6913
1290.21	57.0733
1290.49	45.4948
1290.76	50.7606
1291.03	49.7008
1291.31	49.6971
1291.58	51.8018
1291.86	49.6939
1292.13	50.7443
1292.4	52.8501
1292.68	46.5331
1292.95	48.6358
1293.22	46.5248
1293.5	47.5794
1293.77	48.6476
1294.05	49.7208
1294.32	46.5779
1294.59	45.5279
1294.87	42.3635
1295.14	50.7952
1295.42	45.5302
1295.69	45.5486
1295.96	43.4613
1296.24	39.2659
1296.51	41.3951
1296.79	44.5695
1297.06	40.3417
1297.33	45.6209
1297.61	42.4418
1297.88	47.7148
1298.15	45.5904
1298.43	39.2414
1298.7	44.5257
1298.97	44.5212
1299.25	42.4011
1299.52	42.3944
1299.79	41.331
1300.07	44.4963
1300.34	40.2803
1300.62	44.5069
1300.89	42.3954
1301.16	42.3925
1301.44	38.1668
1301.71	43.447
1301.98	39.2293
1302.25	43.4594
1302.53	41.3496
1302.8	43.4626
1303.08	36.0668
1303.35	44.5135
1303.62	43.4516
1303.9	43.4428
1304.17	36.0488
1304.44	40.2725
1304.72	38.1598
1304.99	42.3821
1305.26	42.3759
1305.54	44.4787
1305.81	38.1353
1306.08	45.5119
1306.35	42.3351
1306.63	39.1616
1306.9	41.2664
1307.18	39.1561
1307.45	43.3775
1307.72	42.3231
1308	43.3763
1308.27	41.2656
1308.54	40.2121
1308.81	44.4276
1309.09	44.4292
1309.36	45.4902
1309.63	40.2203
1309.91	39.17
1310.18	40.2281
1310.45	41.2814
1310.73	40.2225
1311	45.498
1311.27	38.1118
1311.55	42.3344
1311.82	43.3909
1312.09	37.0604
1312.37	43.4001
1312.64	38.1263
1312.91	42.3517
1313.18	39.1813
1313.46	40.2298
1313.73	34.949
1314	42.3341
1314.28	40.219
1314.55	37.0514
1314.82	42.3306
1315.09	41.2782
1315.37	39.1708
1315.64	39.1746
1315.91	41.2911
1316.18	38.1268
1316.46	44.4614
1316.73	40.2331
1317	40.2305
1317.28	41.2845
1317.55	39.1714
1317.82	31.7826
1318.09	42.348
1318.37	42.3497
1318.64	36.0119
1318.91	38.1247
1319.18	41.2934
1319.46	43.4041
1319.73	46.5706
1320	40.2298
1320.28	39.1751
1320.55	38.1182
1320.82	40.228
1321.09	40.2212
1321.37	37.0431
1321.64	34.9202
1321.91	42.2958
1322.18	38.0664
1322.46	40.1644
1322.73	41.2127
1323	42.2606
1323.27	34.8721
1323.55	33.81
1323.82	47.5202
1324.09	43.3036
1324.36	42.2489
1324.64	36.9745
1324.91	39.083
1325.18	41.1898
1325.45	44.3549
1325.73	36.963
1326	37.999
1326.27	39.0292
1326.54	40.0527
1326.81	40.0399
1327.09	37.9318
1327.36	34.7865
1327.63	37.9679
1327.9	46.408
1328.18	36.9392
1328.45	40.1153
1328.72	40.1301
1328.99	39.087
1329.27	34.8695
1329.54	41.1939
1329.81	36.9771
1330.08	38.0295
1330.35	41.1902
1330.63	39.0743
1330.9	40.1207
1331.17	41.1645
1331.44	39.0431
1331.71	41.1341
1331.99	42.1682
1332.26	43.2054
1332.53	40.0348
1332.8	42.126
1333.07	44.2142
1333.35	41.0429
1333.62	34.7215
1333.89	37.8624
1334.16	37.8505
1334.43	36.7887
1334.71	36.7779
1334.98	37.8176
1335.25	37.8086
1335.52	39.8989
1335.79	38.8412
1336.07	34.6377
1336.34	38.8259
1336.61	37.7704
1336.88	38.8128
1337.15	41.9523
1337.43	35.6579
1337.7	35.6538
1337.97	40.8891
1338.24	35.639
1338.51	40.8675
1338.78	42.9553
1339.06	30.3804
1339.33	46.0828
1339.6	35.6096
1339.87	42.9398
1340.14	40.8469
1340.42	38.7524
1340.69	34.5639
1340.96	42.9424
1341.23	38.7515
1341.5	37.7015
1341.77	45.0279
1342.04	41.8807
1342.32	37.6855
1342.59	38.723
1342.86	35.5726
1343.13	35.5622
1343.4	36.6022
1343.67	37.6442
1343.95	36.5961
1344.22	40.7782
1344.49	37.6404
1344.76	34.5019
1345.03	40.7723
1345.3	39.719
1345.58	38.6636
1345.85	41.7854
1346.12	34.4604
1346.39	35.492
1346.66	39.6488
1346.93	36.5043
1347.2	39.622
1347.47	40.6515
1347.75	42.7245
1348.02	37.5033
1348.29	39.5821
1348.56	40.6199
1348.83	34.3629
1349.1	36.4405
1349.37	37.4744
1349.65	39.5493
1349.92	39.541
1350.19	40.574
1350.46	36.4015
1350.73	41.5981
1351	43.6681
1351.27	42.6157
1351.54	39.4871
1351.81	42.5956
1352.09	47.7906
1352.36	36.3507
1352.63	38.4339
1352.9	37.4011
1353.17	35.3306
1353.44	40.5386
1353.71	41.6139
1353.98	42.6945
1354.25	37.4454
1354.53	40.5077
1354.8	41.5037
1355.07	37.3512
1355.34	42.549
1355.61	42.533
1355.88	34.2156
1356.15	42.5378
1356.42	39.4232
1356.69	44.6076
1356.96	41.4861
1357.24	39.4043
1357.51	40.4379
1357.78	39.3932
1358.05	40.4242
1358.32	43.5303
1358.59	41.4457
1358.86	37.2869
1359.13	42.4656
1359.4	42.4563
1359.67	39.3378
1359.94	38.2948
1360.22	46.5776
1360.49	40.3442
1360.76	45.5125
1361.03	36.1794
1361.3	38.2472
1361.57	42.389
1361.84	38.2431
1362.11	41.3472
1362.38	45.4837
1362.65	43.4068
1362.92	44.437
1363.19	42.3637
1363.46	44.4363
1363.73	47.5499
1364	44.4476
1364.28	48.5958
1364.55	45.4866
1364.82	44.4468
1365.09	42.3696
1365.36	58.9293
1365.63	51.6681
1365.9	44.4095
1366.17	49.5724
1366.44	44.3873
1366.71	49.5475
1366.98	47.464
1367.25	43.3117
1367.52	46.4045
1367.79	44.3321
1368.06	44.337
1368.33	37.1039
1368.6	47.4423
1368.87	47.4443
1369.15	50.5477
1369.41	66.0599
1369.68	83.6415
1369.95	103.274
1370.23	100.16
1370.5	69.1384
1370.77	50.5186
1371.04	53.6108
1371.31	50.5007
1371.58	50.4856
1371.85	48.4028
1372.12	49.4146
1372.39	47.3313
1372.66	47.3137
1372.93	53.4861
1373.2	49.3527
1373.47	53.4679
1373.74	48.3073
1374.01	50.3622
1374.28	47.2658
1374.55	50.3524
1374.82	44.1666
1375.09	54.4638
1375.36	48.2757
1375.63	55.4873
1375.9	51.3724
1376.17	53.4306
1376.44	57.5537
1376.71	52.388
1376.98	54.4336
1377.25	54.4144
1377.52	52.3328
1377.79	54.3967
1378.06	61.6153
1378.33	50.3114
1378.6	67.8504
1378.87	59.6402
1379.14	65.8354
1379.41	65.8321
1379.68	66.8533
1379.95	63.7506
1380.22	63.7364
1380.49	66.7981
1380.76	73.9476
1381.03	74.9412
1381.3	70.7986
1381.57	79.0379
1381.84	76.9598
1382.11	70.7561
1382.38	77.9109
1382.65	86.0923
1382.92	90.166
1383.19	89.1043
1383.46	91.13
1383.73	79.8214
1384	89.0345
1384.27	105.424
1384.54	94.1493
1384.81	105.435
1385.08	115.709
1385.34	124.972
1385.61	152.728
1385.88	172.271
1386.15	218.51
1386.42	271.934
1386.69	375.722
1386.96	564.754
1387.23	842.073
1387.5	1400.75
1387.77	2233.94
1388.04	2899.98
1388.31	2585.57
1388.58	1628.8
1388.85	858.605
1389.12	467.692
1389.39	302.685
1389.66	209.272
1389.93	167.192
1390.2	138.392
1390.46	118.793
1390.73	103.368
1391	91.0591
1391.27	89.9961
1391.54	78.7139
1391.81	76.6562
1392.08	68.4414
1392.35	74.5684
1392.62	60.214
1392.89	60.2028
1393.16	58.1461
1393.43	58.1385
1393.7	65.2963
1393.97	55.055
1394.23	57.0963
1394.5	51.9749
1394.77	56.0636
1395.04	50.9445
1395.31	52.9957
1395.58	53.0037
1395.85	54.0328
1396.12	47.8926
1396.39	55.0555
1396.66	50.9558
1396.93	51.9722
1397.2	47.8714
1397.46	54
1397.73	49.8973
1398	48.8688
1398.27	52.9586
1398.54	42.7325
1398.81	49.8977
1399.08	46.8311
1399.35	46.8327
1399.62	44.7932
1399.89	47.8675
1400.16	44.8006
1400.42	45.8228
1400.69	47.8757
1400.96	46.8631
1401.23	46.8678
1401.5	45.8411
1401.77	43.7975
1402.04	46.8686
1402.31	42.7859
1402.58	48.9598
1402.84	42.8351
1403.11	46.9579
1403.38	52.1045
1403.65	52.1117
1403.92	52.1114
1404.19	40.8089
1404.46	51.0434
1404.73	52.0761
1404.99	45.915
1405.26	47.9603
1405.53	47.9509
1405.8	55.1191
1406.07	54.0832
1406.34	55.0987
1406.61	57.142
1406.87	60.2114
1407.14	64.3133
1407.41	70.4675
1407.68	68.4225
1407.95	80.7284
1408.22	89.96
1408.49	103.294
1408.76	132.011
1409.02	136.122
1409.29	162.799
1409.56	172.043
1409.83	160.773
1410.1	130.007
1410.37	111.542
1410.63	92.0324
1410.9	83.8036
1411.17	68.4012
1411.44	59.1613
1411.71	60.1749
1411.98	46.8476
1412.25	49.9185
1412.51	46.8509
1412.78	48.9135
1413.05	44.8414
1413.32	35.6538
1413.59	39.7846
1413.86	43.8594
1414.12	43.8
1414.39	34.5794
1414.66	38.7069
1414.93	47.9645
1415.2	39.7475
1415.47	33.5881
1415.73	40.7741
1416	37.6944
1416.27	40.7771
1416.54	40.7801
1416.81	34.6213
1417.07	35.6512
1417.34	39.7637
1417.61	38.7403
1417.88	36.6887
1418.15	36.69
1418.42	39.7726
1418.68	36.6906
1418.95	41.8299
1419.22	39.7743
1419.49	42.8574
1419.76	32.5758
1420.02	37.7059
1420.29	36.6702
1420.56	41.7977
1420.83	42.8151
1421.1	33.5652
1421.36	34.5845
1421.63	36.6332
1421.9	35.6082
1422.17	33.5635
1422.44	39.7365
1422.7	35.6397
1422.97	37.7143
1423.24	35.6886
1423.51	42.928
1423.77	34.6059
1424.04	37.607
1424.31	37.6165
1424.58	33.4809
1424.85	37.5784
1425.11	37.5885
1425.38	42.7419
1425.65	42.7466
1425.92	39.6632
1426.19	42.7539
1426.45	34.5434
1426.72	38.6389
1426.99	35.5518
1427.26	36.5661
1427.52	34.5048
1427.79	34.4897
1428.06	34.4773
1428.33	34.4708
1428.59	32.42
1428.86	33.4435
1429.13	34.4686
1429.4	37.5429
1429.67	34.474
1429.93	39.6002
1430.2	33.4607
1430.47	37.5683
1430.74	35.5255
1431	33.485
1431.27	31.4475
1431.54	30.4315
1431.81	34.5414
1432.07	34.5407
1432.34	33.5073
1432.61	36.5763
1432.87	33.4924
1433.14	34.5067
1433.41	35.5179
1433.68	34.477
1433.95	33.438
1434.21	35.477
1434.48	33.4246
1434.75	32.4151
1435.01	33.4459
1435.28	31.397
1435.55	34.4706
1435.82	35.4937
1436.08	34.4665
1436.35	34.4635
1436.62	29.3375
1436.89	31.3828
1437.15	34.4519
1437.42	31.3752
1437.69	34.4463
1437.95	33.4174
1438.22	30.3425
1438.49	34.4399
1438.76	32.3958
1439.02	31.3735
1439.29	41.6184
1439.56	31.3746
1439.82	27.2799
1440.09	31.3852
1440.36	34.469
1440.63	35.498
1440.89	31.3976
1441.16	32.4228
1441.43	33.4493
1441.69	33.4459
1441.96	35.4899
1442.23	33.4356
1442.49	26.2639
1442.76	31.3909
1443.03	33.4478
1443.3	31.3916
1443.56	31.3852
1443.83	24.2032
1444.1	30.3506
1444.36	29.3235
1444.63	30.3497
1444.9	33.4341
1445.16	32.4159
1445.43	33.4517
1445.7	28.3182
1445.97	27.2887
1446.23	33.4402
1446.5	29.3336
1446.77	30.3561
1447.03	29.3273
1447.3	29.3241
1447.57	32.3964
1447.83	32.3914
1448.1	32.3872
1448.37	36.4868
1448.63	33.4164
1448.9	31.372
1449.17	23.1678
1449.43	32.3975
1449.7	28.2915
1449.97	26.236
1450.23	30.3318
1450.5	31.351
1450.77	34.4226
1451.03	29.2941
1451.3	28.2659
1451.57	28.2626
1451.83	28.2588
1452.1	32.3536
1452.37	31.3256
1452.63	35.4215
1452.9	33.372
1453.17	30.2991
1453.43	32.3512
1453.7	30.3038
1453.97	32.3529
1454.23	35.424
1454.5	31.3223
1454.77	29.272
1455.03	30.2959
1455.3	28.2447
1455.56	29.2665
1455.83	31.3156
1456.1	29.2706
1456.36	23.1229
1456.63	32.3465
1456.9	31.3179
1457.16	29.2622
1457.43	31.3056
1457.7	29.2534
1457.96	32.3238
1458.23	33.3459
1458.49	28.2233
1458.76	25.1499
1459.03	28.2239
1459.29	32.3225
1459.56	31.2982
1459.82	25.1504
1460.09	30.2713
1460.36	29.2439
1460.62	32.3142
1460.89	26.1644
1461.16	30.2576
1461.42	31.2768
1461.69	28.1998
1461.95	27.1709
1462.22	29.2127
1462.49	32.2768
1462.75	27.1527
1463.02	28.1688
1463.28	27.1384
1463.55	27.1308
1463.82	27.124
1464.08	29.1669
1464.35	24.0618
1464.61	28.165
1464.88	31.2451
1465.15	28.1871
1465.41	27.1408
1465.68	31.1748
1465.94	31.1478
1466.21	33.1848
1466.48	31.1527
1466.74	29.1074
1467.01	30.1136
1467.27	27.0481
1467.54	32.1511
1467.8	30.1077
1468.07	28.0643
1468.34	28.0621
1468.6	25.0005
1468.87	29.0791
1469.13	27.0365
1469.4	31.1124
1469.67	28.0482
1469.93	28.0418
1470.2	31.0921
1470.46	27.0085
1470.73	25.9847
1470.99	28.0185
1471.26	25.9777
1471.53	28.0105
1471.79	24.9484
1472.06	30.0357
1472.32	32.0692
1472.59	27.994
1472.85	33.0834
1473.12	24.9358
1473.39	27.9873
1473.65	29.0001
1473.92	28.9947
1474.18	26.9548
1474.45	28.9871
1474.71	27.9684
1474.98	27.9701
1475.24	26.9532
1475.51	30.0061
1475.78	30.0042
1476.04	27.965
1476.31	23.8899
1476.57	25.9215
1476.84	29.9878
1477.1	26.9302
1477.37	28.9588
1477.63	23.8704
1477.9	28.9534
1478.16	28.9517
1478.43	27.9305
1478.69	27.9239
1478.96	25.8858
1479.22	29.9462
1479.49	28.9239
1479.76	28.9173
1480.02	25.8626
1480.29	28.9027
1480.55	28.8911
1480.82	26.8518
1481.08	27.8601
1481.35	29.8857
1481.61	32.9229
1481.88	25.8232
1482.14	29.8853
1482.41	24.8154
1482.67	27.8651
1482.94	21.777
1483.2	28.8828
1483.47	24.8239
1483.73	30.9174
1484	28.8856
1484.26	34.9763
1484.53	28.8707
1484.79	25.8098
1485.06	22.7401
1485.32	29.7917
1485.59	30.7875
1485.85	29.7514
1486.12	29.8211
1486.38	27.802
1486.65	27.8118
1486.91	26.7679
1487.18	32.8604
1487.44	22.7306
1487.71	29.8144
1487.97	28.7935
1488.24	30.8138
1488.5	27.77
1488.77	24.7257
1489.03	32.8154
1489.3	30.7843
1489.56	28.7562
1489.83	25.7175
1490.09	28.7497
1490.36	25.7135
1490.62	26.7238
1490.89	26.7195
1491.15	31.7697
1491.42	27.7177
1491.68	27.714
1491.95	28.7228
1492.21	26.6997
1492.48	28.722
1492.74	29.731
1493	28.7175
1493.27	30.7374
1493.53	28.7145
1493.8	26.6897
1494.06	33.7634
1494.33	30.7304
1494.59	29.7206
1494.86	31.7441
1495.12	29.72
1495.39	23.6493
1495.65	24.6516
1495.92	28.682
1496.18	25.643
1496.45	31.6952
1496.71	29.6707
1496.97	26.6377
1497.24	31.6793
1497.5	23.6038
1497.77	30.6675
1498.03	24.6094
1498.3	28.6446
1498.56	26.6255
1498.82	25.6159
1499.09	27.6343
1499.35	25.6159
1499.62	26.626
1499.88	25.618
1500.15	28.6479
1500.41	31.6768
1500.68	25.618
1500.94	27.6353
1501.2	25.6143
1501.47	29.6482
1501.73	22.5767
1502	28.6292
1502.26	30.6456
1502.52	28.6252
1502.79	28.6214
1503.05	29.6229
1503.32	27.5987
1503.58	29.6114
1503.85	32.6298
1504.11	33.637
1504.37	27.5889
1504.64	26.5808
1504.9	27.5884
1505.17	28.5945
1505.43	26.5739
1505.7	27.5769
1505.96	28.5757
1506.22	30.5793
1506.49	24.5314
1506.75	25.5371
1507.02	30.5746
1507.28	26.5477
1507.54	27.5554
1507.81	29.5711
1508.07	31.5852
1508.34	24.5286
1508.6	28.5566
1508.86	27.5485
1509.13	26.541
1509.39	28.5557
1509.66	27.5466
1509.92	28.5532
1510.18	29.5632
1510.45	25.5329
1510.71	25.5269
1510.98	29.5505
1511.24	31.5568
1511.5	27.5191
1511.77	29.5197
1512.03	29.5028
1512.29	27.4749
1512.56	27.4599
1512.82	25.4379
1513.08	26.4343
1513.35	27.4312
1513.61	31.4403
1513.88	25.4137
1514.14	30.4392
1514.4	26.4325
1514.67	31.4569
1514.93	31.4523
1515.2	26.4229
1515.46	23.4028
1515.72	29.4177
1515.99	34.4245
1516.25	30.4006
1516.51	27.3843
1516.78	30.3889
1517.04	25.3719
1517.3	26.3718
1517.57	29.3779
1517.83	31.3827
1518.09	26.3705
1518.36	27.3774
1518.62	28.3809
1518.88	27.379
1519.15	28.3827
1519.41	30.3907
1519.67	27.3824
1519.94	30.3927
1520.2	29.3877
1520.47	32.3936
1520.73	23.3621
1520.99	30.3848
1521.26	28.3804
1521.52	27.3787
1521.78	32.3957
1522.05	24.3664
1522.31	30.3829
1522.57	27.3689
1522.84	30.3736
1523.1	29.3664
1523.36	25.3493
1523.62	30.3529
1523.89	27.3332
1524.15	30.3302
1524.41	27.3177
1524.68	30.3161
1524.94	28.3076
1525.2	25.3057
1525.47	29.3118
1525.73	25.3059
1525.99	30.3171
1526.26	30.3219
1526.52	27.3229
1526.78	26.3254
1527.05	27.329
1527.31	26.325
1527.57	29.3268
1527.84	29.3239
1528.1	27.3162
1528.36	21.3008
1528.63	29.3123
1528.89	29.3081
1529.15	29.3043
1529.41	23.2919
1529.68	26.2954
1529.94	30.2989
1530.2	29.2914
1530.47	26.285
1530.73	30.2924
1530.99	27.2928
1531.25	29.3013
1531.52	25.2968
1531.78	31.3087
1532.04	24.2917
1532.31	28.2995
1532.57	26.2908
1532.83	25.2911
1533.09	32.313
1533.36	26.3081
1533.62	27.3186
1533.88	29.3278
1534.15	28.3261
1534.41	27.3217
1534.67	30.3284
1534.94	25.3099
1535.2	27.3119
1535.46	31.3197
1535.72	28.3047
1535.99	26.2848
1536.25	30.2829
1536.51	27.27
1536.77	27.2593
1537.04	28.2487
1537.3	29.2387
1537.56	25.2316
1537.82	28.2253
1538.09	32.2256
1538.35	28.2176
1538.61	26.208
1538.87	24.205
1539.14	26.2006
1539.4	30.2063
1539.66	25.2212
1539.92	28.2427
1540.19	29.2581
1540.45	26.2638
1540.71	30.2846
1540.97	26.2813
1541.24	31.2976
1541.5	26.271
1541.76	30.2783
1542.02	28.2645
1542.29	25.2506
1542.55	30.2511
1542.81	29.2409
1543.07	34.2387
1543.34	24.2205
1543.6	27.2153
1543.86	29.2059
1544.12	25.1945
1544.39	30.1951
1544.65	31.1961
1544.91	29.2011
1545.17	30.2099
1545.43	25.2115
1545.7	28.2247
1545.96	31.2345
1546.22	27.2313
1546.48	26.2317
1546.74	29.2341
1547.01	28.2328
1547.27	25.2297
1547.53	24.2299
1547.79	27.2378
1548.06	27.2306
1548.32	24.2109
1548.58	29.2165
1548.84	28.2157
1549.1	30.2267
1549.37	24.1923
1549.63	25.1649
1549.89	31.1552
1550.15	26.1719
1550.42	30.2037
1550.68	30.25
1550.94	28.276
1551.2	25.2895
1551.46	28.2828
1551.73	28.2847
1551.99	32.2934
1552.25	28.2676
1552.51	31.2918
1552.77	25.2774
1553.03	25.273
1553.3	23.2563
1553.56	26.2475
1553.82	29.2516
1554.08	26.2388
1554.34	27.2352
1554.61	32.239
1554.87	27.2156
1555.13	27.2045
1555.39	28.2017
1555.65	27.1971
1555.91	26.1942
1556.18	26.1949
1556.44	27.196
1556.7	32.1989
1556.96	30.195
1557.22	27.1908
1557.48	29.195
1557.75	27.191
1558.01	28.1901
1558.27	29.1853
1558.53	27.1723
1558.79	29.1662
1559.06	28.1543
1559.32	24.1429
1559.58	30.1357
1559.84	29.128
1560.1	28.122
1560.36	29.1163
1560.63	31.1111
1560.89	26.1106
1561.15	28.1066
1561.41	25.1073
1561.67	27.1069
1561.93	31.1094
1562.19	30.1174
1562.46	29.1255
1562.72	30.1249
1562.98	28.1222
1563.24	32.1189
1563.5	30.1194
1563.76	30.1153
1564.02	26.1128
1564.29	30.1224
1564.55	33.1355
1564.81	28.1348
1565.07	24.129
1565.33	31.1148
1565.59	29.0604
1565.85	24.0062
1566.11	25.9629
1566.38	26.0736
1566.64	29.1055
1566.9	31.088
1567.16	26.0714
1567.42	25.0929
1567.68	28.1169
1567.94	27.1088
1568.2	30.0869
1568.47	28.0901
1568.73	24.0936
1568.99	30.0942
1569.25	30.0902
1569.51	30.0777
1569.77	29.0706
1570.03	26.072
1570.29	27.0725
1570.55	29.0709
1570.82	27.0715
1571.08	31.0675
1571.34	27.0676
1571.6	26.0648
1571.86	26.0595
1572.12	28.0515
1572.38	32.0451
1572.64	29.0436
1572.9	32.0325
1573.17	29.0313
1573.43	30.0243
1573.69	24.0293
1573.95	25.0227
1574.21	26.0202
1574.47	29.0187
1574.73	31.0215
1574.99	27.0335
1575.25	22.0451
1575.51	25.0471
1575.78	30.0475
1576.04	29.0486
1576.3	31.044
1576.56	29.0438
1576.82	26.0418
1577.08	27.0311
1577.34	27.0192
1577.6	31.9987
1577.86	31.9861
1578.12	28.9822
1578.38	28.9722
1578.64	29.9625
1578.9	25.9719
1579.17	23.9767
1579.43	26.9662
1579.69	27.9624
1579.95	31.951
1580.21	34.9461
1580.47	25.9729
1580.73	28.9641
1580.99	28.9618
1581.25	26.9632
1581.51	29.9484
1581.77	30.94
1582.03	30.9325
1582.29	30.9246
1582.55	32.9138
1582.81	31.9141
1583.07	25.9336
1583.33	25.931
1583.59	30.9095
1583.85	28.9155
1584.11	27.9155
1584.38	31.8982
1584.64	23.9318
1584.9	27.9168
1585.16	28.9131
1585.42	28.9118
1585.68	30.9012
1585.94	27.9112
1586.2	27.9074
1586.46	29.891
1586.72	29.8822
1586.98	25.8945
1587.24	27.8801
1587.5	25.8859
1587.76	28.8674
1588.02	25.8801
1588.28	29.859
1588.54	27.8704
1588.8	28.8678
1589.06	29.8665
1589.32	29.8692
1589.58	23.8991
1589.84	27.8828
1590.1	29.8741
1590.36	27.8817
1590.62	23.9001
1590.88	27.8853
1591.14	21.9115
1591.4	24.8975
1591.66	29.8756
1591.92	23.8976
1592.18	24.8897
1592.44	31.8512
1592.7	27.859
1592.96	31.8309
1593.22	28.8404
1593.48	26.8395
1593.74	30.8035
1594	25.821
1594.26	27.7997
1594.52	31.7677
1594.78	29.7802
1595.04	27.7961
1595.3	31.7752
1595.56	28.7975
1595.82	26.8091
1596.08	29.775
1596.34	26.7936
1596.6	30.7654
1596.86	27.7849
1597.12	28.7782
1597.38	24.806
1597.64	30.7677
1597.9	34.7434
1598.16	28.7806
1598.42	30.7635
1598.68	29.7635
1598.94	30.747
1599.2	22.7965
1599.46	27.7536
1599.72	32.7093
1599.98	34.6869
1600.24	34.6797
1600.5	26.738
1600.76	27.7232
1601.02	34.6549
1601.28	27.7049
1601.54	29.6758
1601.8	29.6647
1602.06	32.6259
1602.32	31.6278
1602.58	25.6816
1602.84	26.6643
1603.1	27.6458
1603.36	27.6383
1603.62	28.6209
1603.88	28.616
1604.14	29.6012
1604.4	32.5656
1604.66	28.6101
1604.92	30.5875
1605.17	27.6205
1605.43	33.5528
1605.69	28.6089
1605.95	28.6103
1606.21	26.6347
1606.47	34.5505
1606.73	31.5862
1606.99	29.6099
1607.25	28.6288
1607.51	31.563
1607.77	29.5733
1608.03	29.5883
1608.29	32.501
1608.55	29.5516
1608.81	29.773
1609.07	26.1209
1609.32	32.0816
1609.58	30.5329
1609.84	31.5271
1610.1	28.5217
1610.36	28.6596
1610.62	33.2157
1610.88	31.3744
1611.14	28.9913
1611.4	29.7088
1611.66	29.8447
1611.92	28.1094
1612.18	26.5271
1612.44	30.0573
1612.69	28.5956
1612.95	28.6181
1613.21	31.2257
1613.47	27.5515
1613.73	28.0054
1613.99	29.1237
1614.25	29.471
1614.51	29.2787
1614.77	31.4396
1615.03	31.4157
1615.29	27.8652
1615.54	28.8384
1615.8	26.5623
1616.06	29.9604
1616.32	31.1686
1616.58	29.4847
1616.84	26.8301
1617.1	28.819
1617.36	26.962
1617.62	30.6313
1617.88	30.1383
1618.13	28.2123
1618.39	29.5137
1618.65	27.8302
1618.91	28.1574
1619.17	33.3122
1619.43	30.7513
1619.69	29.4729
1619.95	28.8774
1620.2	31.0101
1620.46	27.2311
1620.72	30.0311
1620.98	29.9176
1621.24	31.264
1621.5	31.7268
1621.76	29.7782
1622.02	30.965
1622.27	29.884
1622.53	28.0947
1622.79	31.8537
1623.05	27.9982
1623.31	29.2903
1623.57	29.3119
1623.83	29.3195
1624.09	28.5359
1624.34	29.1814
1624.6	28.5528
1624.86	30.5151
1625.12	32.7832
1625.38	32.4217
1625.64	32.8207
1625.9	29.4695
1626.15	29.4095
1626.41	29.9718
1626.67	29.4699
1626.93	31.7661
1627.19	29.989
1627.45	30.1522
1627.7	28.5012
1627.96	28.8378
1628.22	29.1423
1628.48	31.1781
1628.74	28.9923
1629	28.5303
1629.26	28.2536
1629.51	29.1176
1629.77	29.3819
1630.03	31.0391
1630.29	30.1397
1630.55	27.3518
1630.81	30.2466
1631.06	29.61
1631.32	27.3154
1631.53	27.3094
1631.79	30.2672
1632.05	31.2564
1632.31	27.3179
1632.57	32.2423
1632.84	25.3491
1633.1	27.3324
1633.36	30.2789
1633.62	28.2912
1633.88	30.257
1634.14	29.2741
1634.4	30.2626
1634.66	28.2911
1634.93	34.2044
1635.19	30.2595
1635.45	29.271
1635.71	27.2965
1635.97	28.2781
1636.23	31.2299
1636.49	27.2833
1636.75	28.2635
1637.02	33.1833
1637.28	32.1915
1637.54	30.2147
1637.8	27.2564
1638.06	30.2076
1638.32	30.2032
1638.58	29.2141
1638.84	31.1789
1639.1	30.1933
1639.37	31.1761
1639.63	33.1428
1639.89	33.1409
1640.15	29.2014
1640.41	32.1516
1640.67	29.1979
1640.93	28.2171
1641.19	33.1425
1641.46	30.188
1641.72	29.1996
1641.98	31.1639
1642.24	30.1756
1642.5	32.1413
1642.76	30.1695
1643.02	24.2604
1643.28	29.1795
1643.54	28.1928
1643.8	29.1747
1644.06	33.1075
1644.33	32.1182
1644.59	27.1919
1644.85	26.2029
1645.11	30.1355
1645.37	31.1199
1645.63	33.0903
1645.89	29.1549
1646.15	32.1059
1646.41	30.133
1646.67	33.0795
1646.93	31.1068
1647.19	33.0706
1647.46	29.1311
1647.72	30.1098
1647.98	31.0889
1648.24	29.1197
1648.5	29.1192
1648.76	29.1225
1649.02	29.1263
1649.28	29.1389
1649.54	27.1738
1649.8	35.0447
1650.06	30.1175
1650.32	34.053
1650.58	27.1689
1650.85	35.0525
1651.11	28.1619
1651.37	30.1361
1651.63	30.1382
1651.89	31.1236
1652.15	28.1658
1652.41	33.0915
1652.67	31.1201
1652.93	31.1154
1653.19	32.0953
1653.45	31.1067
1653.71	33.0756
1653.97	28.149
1654.23	29.1355
1654.49	28.1502
1654.75	31.1062
1655.01	34.0634
1655.27	30.1231
1655.53	29.1415
1655.8	26.1895
1656.06	28.1701
1656.32	34.096
1656.57	26.2038
1656.84	30.1527
1657.1	30.1524
1657.36	31.137
1657.62	30.1457
1657.88	28.1669
1658.14	34.0845
1658.4	30.1332
1658.66	28.155
1658.92	30.1225
1659.18	31.1029
1659.44	30.1104
1659.7	31.0905
1659.96	30.0983
1660.22	34.0332
1660.48	32.0627
1660.74	29.1071
1661	30.096
1661.26	27.1407
1661.52	30.1035
1661.78	30.108
1662.04	28.1352
1662.3	31.0963
1662.56	26.1369
1662.82	29.1471
1663.08	30.1641
1663.34	31.1345
1663.6	30.1411
1663.86	25.1918
1664.12	30.0693
1664.38	31.0858
1664.64	27.1426
1664.9	31.0927
1665.16	29.1306
1665.42	33.087
1665.68	28.1152
1665.94	29.0739
1666.2	27.1683
1666.46	29.1501
1666.72	25.1904
1666.98	28.1164
1667.24	28.0292
1667.5	26.1341
1667.76	31.0618
1668.02	29.0814
1668.28	32.0369
1668.54	29.0703
1668.8	33.0156
1669.06	34.0157
1669.32	29.095
1669.58	29.0964
1669.84	26.1321
1670.1	29.0948
1670.36	25.1394
1670.62	32.0515
1670.88	31.078
1671.14	30.098
1671.4	28.1164
1671.66	31.0777
1671.92	29.098
1672.18	30.086
1672.44	31.0753
1672.69	29.0977
1672.95	27.1188
1673.21	33.0481
1673.47	26.1275
1673.73	26.1269
1673.99	30.0816
1674.25	33.0494
1674.51	27.1187
1674.77	29.0983
1675.03	30.0895
1675.29	22.1785
1675.55	28.1173
1675.81	25.1492
1676.07	30.096
1676.33	28.1146
1676.59	29.1036
1676.85	26.1342
1677.11	30.0922
1677.37	27.1209
1677.63	28.1074
1677.89	27.1136
1678.14	28.0976
1678.4	24.1335
1678.66	31.05
1678.92	28.0761
1679.18	28.0706
1679.44	30.0428
1679.7	30.0386
1679.96	29.0454
1680.22	30.0292
1680.48	29.0369
1680.74	27.056
1681	30.0158
1681.26	30.9994
1681.52	26.0566
1681.78	27.0423
1682.03	27.0404
1682.29	27.0386
1682.55	25.0613
1682.81	28.0239
1683.07	29.9969
1683.33	29.0065
1683.59	30.9802
1683.85	27.0269
1684.11	25.0488
1684.37	30.9722
1684.63	28.9905
1684.89	27.9989
1685.14	27.0082
1685.4	30.9555
1685.66	27.9909
1685.92	29.9639
1686.18	31.9373
1686.44	26.9989
1686.7	27.9869
1686.96	26.0153
1687.22	30.9556
1687.48	27.9909
1687.73	26.0114
1687.99	26.9944
1688.25	31.9277
1688.51	26.9854
1688.77	25.9934
1689.03	27.9625
1689.29	28.942
1689.55	26.9616
1689.81	29.9154
1690.06	26.9483
1690.32	29.8996
1690.58	29.896
1690.84	27.9281
1691.1	27.93
1691.36	26.944
1691.62	30.8907
1691.88	27.9316
1692.13	27.9324
1692.39	28.9176
1692.65	23.9798
1692.91	27.9217
1693.17	25.9416
1693.43	25.9341
1693.69	24.9394
1693.95	27.8877
1694.2	24.9237
1694.46	30.8295
1694.72	27.8658
1694.98	26.8751
1695.24	24.9029
1695.5	24.9026
1695.76	24.9022
1696.01	27.8575
1696.27	27.8577
1696.53	25.8889
1696.79	28.8461
1697.05	31.8007
1697.31	27.8544
1697.57	29.818
1697.82	27.8388
1698.08	31.7687
1698.34	28.8068
1698.6	29.7845
1698.86	25.8412
1699.12	28.7881
1699.38	25.8324
1699.63	31.7337
1699.89	23.8617
1700.15	23.8602
1700.41	26.8109
1700.67	28.7721
1700.92	24.8338
1701.18	29.7498
1701.44	22.8605
1701.7	28.7584
1701.96	27.7686
1702.22	27.7615
1702.47	24.8056
1702.73	24.799
1702.99	23.8101
1703.25	25.7723
1703.51	24.7872
1703.77	27.7316
1704.02	27.7272
1704.28	25.759
1704.54	28.7071
1704.8	26.7439
1705.06	27.7256
1705.32	28.7052
1705.57	26.7366
1705.83	25.7522
1706.09	23.7854
1706.35	28.692
1706.61	29.6665
1706.86	28.6759
1707.12	23.7584
1707.38	28.6583
1707.64	26.6879
1707.9	26.6791
1708.16	28.6304
1708.41	23.7178
1708.67	27.629
1708.93	27.6173
1709.19	25.648
1709.44	26.6196
1709.7	27.593
1709.96	28.5683
1710.22	25.6293
1710.48	25.628
1710.73	25.627
1710.99	25.6274
1711.25	27.5878
1711.51	24.6507
1711.77	25.6305
1712.02	26.6101
1712.28	26.6088
1712.54	29.5423
1712.8	29.5324
1713.06	24.6251
1713.31	28.5261
1713.57	29.491
1713.83	24.591
1714.09	29.466
1714.34	26.5279
1714.6	26.5229
1714.86	23.5884
1715.12	26.5154
1715.38	27.4899
1715.63	27.4928
1715.89	28.4741
1716.15	24.5639
1716.41	24.5601
1716.66	28.4623
1716.92	24.548
1717.18	25.5157
1717.44	27.4572
1717.69	27.444
1717.95	27.4288
1718.21	25.4658
1718.47	22.5315
1718.72	30.3144
1718.98	29.3323
1719.24	27.3796
1719.5	22.5091
1719.75	25.428
1720.01	30.2927
1720.27	26.3985
1720.53	25.4242
1720.78	26.3935
1721.04	25.4136
1721.3	30.2708
1721.56	25.398
1721.81	26.364
1722.07	27.3288
1722.33	30.2372
1722.59	22.4515
1722.84	26.3313
1723.1	29.238
1723.36	26.316
1723.62	23.3962
1723.87	23.3918
1724.13	27.274
1724.39	27.27
1724.64	27.2668
1724.9	25.3192
1725.16	25.3108
1725.42	25.2993
1725.67	26.2584
1725.93	22.3692
1726.19	28.1771
1726.45	22.3576
1726.7	28.1722
1726.96	27.1993
1727.22	24.2869
1727.47	32.0251
1727.73	22.3372
1727.99	24.2782
1728.24	27.1811
1728.5	28.1433
1728.76	22.322
1729.02	27.124
1729.27	26.1156
1729.53	26.0992
1729.79	27.0776
1730.05	26.124
1730.3	26.1323
1730.56	24.1835
1730.82	25.1406
1731.07	26.1018
1731.33	28.062
1731.59	24.1963
1731.84	28.0609
1732.1	28.0585
1732.36	26.1224
1732.61	25.1518
1732.87	26.1135
1733.13	23.2097
1733.39	25.1348
1733.64	24.1599
1733.9	25.1139
1734.16	27.0312
1734.41	27.0213
1734.67	28.9395
1734.93	24.1093
1735.18	24.0998
1735.44	29.8698
1735.7	26.0079
1735.95	26.0008
1736.21	27.9203
1736.47	25.9909
1736.72	27.9114
1736.98	27.906
1737.24	25.9761
1737.49	25.0086
1737.75	26.9273
1738.01	27.8839
1738.26	24.9926
1738.52	24.0242
1738.78	24.9786
1739.03	28.8156
1739.29	24.964
1739.55	25.9156
1739.8	26.8643
1740.06	23.9715
1740.32	26.8375
1740.57	23.9489
1740.83	22.9812
1741.09	26.8073
1741.34	26.7996
1741.6	23.9181
1741.86	26.7848
1742.11	23.9059
1742.37	28.689
1742.63	29.643
1742.88	25.8096
1743.14	28.6769
1743.4	28.6734
1743.65	25.7994
1743.91	25.7951
1744.16	22.9175
1744.42	29.6087
1744.68	27.6895
1744.93	26.7293
1745.19	28.6405
1745.45	22.9002
1745.7	28.6375
1745.96	30.5472
1746.22	22.8909
1746.47	23.8408
1746.73	20.0093
1746.98	20.9572
1747.24	21.906
1747.5	18.0776
1747.75	26.6659
1748.01	31.4313
1748.27	21.8803
1748.52	26.6508
1748.78	20.922
1749.03	28.558
1749.29	25.6942
1749.55	28.5598
1749.8	25.6978
1750.06	24.746
1750.32	25.7052
1750.57	25.7095
1750.83	19.9785
1751.08	25.7136
1751.34	25.7148
1751.6	24.7578
1751.85	24.7529
1752.11	20.9217
1752.36	23.7796
1752.62	23.7724
1752.88	25.6755
1753.13	27.5773
1753.39	26.615
1753.64	27.5625
1753.9	24.6937
1754.15	24.688
1754.41	24.6808
1754.67	21.813
1754.92	23.7147
1755.18	25.6163
1755.43	24.6584
1755.69	27.5127
1755.95	26.5535
1756.2	24.6408
1756.46	26.5379
1756.71	23.6725
1756.97	23.6631
1757.23	28.4118
1757.48	25.5479
1757.74	25.5431
1757.99	22.685
1758.25	27.4404
1758.5	24.5926
1758.76	26.4962
1759.02	23.6405
1759.27	26.4937
1759.53	24.5892
1759.78	26.492
1760.04	24.5866
1760.3	26.4862
1760.55	22.6763
1760.81	24.5752
1761.06	26.4732
1761.32	24.565
1761.57	26.4602
1761.83	27.4045
1762.08	29.3007
1762.34	24.5439
1762.6	22.6402
1762.85	27.3958
1763.11	23.5939
1763.36	24.5436
1763.62	22.6392
1763.87	25.4907
1764.13	22.6381
1764.38	26.4428
1764.64	26.4466
1764.89	23.6001
1765.15	25.5056
1765.4	22.6517
1765.66	24.556
1765.92	26.46
1766.17	29.3155
1766.43	27.4097
1766.68	25.5031
1766.94	27.4033
1767.19	23.5921
1767.45	24.5419
1767.7	21.6827
1767.96	26.4364
1768.21	23.5761
1768.47	25.4745
1768.73	23.5679
1768.98	25.467
1769.24	23.5531
1769.49	21.6376
1769.75	23.5244
1770	21.6156
1770.26	24.4632
1770.51	25.4171
1770.77	27.3219
1771.02	23.5204
1771.28	22.5703
1771.53	27.3267
1771.79	28.2856
1772.04	26.3858
1772.3	23.5328
1772.55	22.5839
1772.81	24.4894
1773.06	20.6857
1773.32	25.4444
1773.57	23.5423
1773.83	27.3503
1774.08	24.4955
1774.34	24.4958
1774.59	26.3996
1774.85	26.3992
1775.1	28.3057
1775.36	25.4494
1775.61	24.4998
1775.87	22.6034
1776.12	24.514
1776.38	23.5622
1776.63	26.4214
1776.89	25.4652
1777.14	21.6475
1777.4	23.5481
1777.65	27.3556
1777.91	25.4435
1778.16	23.532
1778.42	26.3832
1778.67	24.4723
1778.93	24.4653
1779.18	23.5054
1779.44	20.6425
1779.69	23.4915
1779.95	21.5867
1780.2	28.2527
1780.46	19.6877
1780.71	27.3017
1780.97	26.3506
1781.22	27.3035
1781.47	26.3505
1781.73	20.6377
1781.98	23.4942
1782.24	26.3526
1782.49	21.5931
1782.75	22.5492
1783	27.315
1783.26	22.552
1783.51	28.271
1783.77	21.6009
1784.02	22.5553
1784.28	27.3242
1784.53	22.5594
1784.79	26.379
1785.04	25.4274
1785.29	23.5197
1785.55	25.4262
1785.8	29.2395
1786.06	26.3729
1786.31	25.4145
1786.57	24.4593
1786.82	23.5058
1787.08	17.783
1787.33	21.6026
1787.58	26.3801
1787.84	24.4784
1788.09	25.4472
1788.35	25.462
1788.6	25.4767
1788.86	24.5287
1789.11	22.6164
1789.37	26.4508
1789.62	22.627
1789.87	23.5894
1790.13	23.5908
1790.38	26.4678
1790.64	22.635
1790.89	27.427
1791.15	22.6309
1791.4	24.5409
1791.65	25.4819
1791.91	23.5625
1792.16	22.6008
1792.42	19.7264
1792.67	24.5142
1792.93	23.556
1793.18	24.5154
1793.43	24.5158
1793.69	23.5567
1793.94	20.6812
1794.2	23.5568
1794.45	28.3472
1794.7	23.5539
1794.96	20.6744
1795.21	24.512
1795.47	26.4478
1795.72	24.5407
1795.97	25.5054
1796.23	24.5479
1796.48	23.5905
1796.74	20.7122
1796.99	23.5964
1797.25	21.678
1797.5	23.6024
1797.75	25.5269
1798.01	25.5287
1798.26	22.6457
1798.51	22.6462
1798.77	26.4921
1799.02	23.606
1799.28	25.526
1799.53	24.5601
1799.78	23.5933
1800.04	22.6258
1800.29	25.5027
1800.55	25.4974
1800.8	24.532
1801.05	27.4098
1801.31	25.4854
1801.56	25.4829
1801.81	23.5602
1802.07	29.3226
1802.32	26.4412
1802.58	26.4421
1802.83	24.5223
1803.08	23.5637
1803.34	23.5668
1803.59	27.416
1803.84	27.4192
1804.1	24.535
1804.35	23.5729
1804.61	22.6125
1804.86	25.5013
1805.11	25.5044
1805.37	21.6586
1805.62	26.476
1805.87	23.592
1806.13	27.4482
1806.38	21.6714
1806.64	24.5637
1806.89	26.4928
1807.14	21.6747
1807.4	22.6376
1807.65	25.5275
1807.9	22.6345
1808.16	24.5608
1808.41	22.6318
1808.66	25.5223
1808.92	28.4132
1809.17	25.5207
1809.42	22.6281
1809.68	23.5913
1809.93	19.7343
1810.18	24.5541
1810.44	22.6249
1810.69	23.5876
1810.94	26.4772
1811.2	27.4382
1811.45	26.4721
1811.7	22.6136
1811.96	24.5397
1812.21	24.5383
1812.46	26.466
1812.72	25.5031
1812.97	24.5407
1813.22	21.6498
1813.48	23.5807
1813.73	26.4747
1813.98	20.6875
1814.24	25.516
1814.49	25.5213
1814.74	27.4582
1815	25.5337
1815.25	22.6386
1815.5	28.4385
1815.76	25.54
1816.01	26.5062
1816.26	23.6062
1816.52	25.5389
1816.77	23.6057
1817.02	21.6723
1817.27	23.6027
1817.53	25.5306
1817.78	24.5507
1818.03	27.438
1818.29	20.677
1818.54	22.611
1818.79	24.5481
1819.05	27.4496
1819.3	25.5137
1819.55	27.4468
1819.8	25.5154
1820.06	21.65
1820.31	22.6171
1820.56	23.585
1820.82	25.5207
1821.07	23.5875
1821.32	27.4571
1821.58	24.5571
1821.83	24.5594
1822.08	23.5936
1822.33	23.5947
1822.59	26.499
1822.84	22.6272
1823.09	23.5949
1823.34	22.6263
1823.6	21.6561
1823.85	25.5245
1824.1	20.6807
1824.36	26.4857
1824.61	23.5823
1824.86	25.5188
1825.11	27.4556
1825.37	25.5203
1825.62	24.553
1825.87	22.6164
1826.12	24.552
1826.38	22.6133
1826.63	21.6436
1826.88	23.5795
1827.14	23.5784
1827.39	25.5154
1827.64	23.5788
1827.89	27.455
1828.15	19.7049
1828.4	24.5478
1828.65	27.4518
1828.9	23.5722
1829.16	22.5985
1829.41	22.5946
1829.66	22.592
1829.91	24.5264
1830.17	20.6495
1830.42	27.4236
1830.67	31.2917
1830.92	23.5417
1831.18	23.5401
1831.43	26.4458
1831.68	25.4793
1831.93	23.5442
1832.19	24.5142
1832.44	22.5781
1832.69	24.5175
1832.94	24.5208
1833.2	21.615
1833.45	26.4601
1833.7	21.6125
1833.95	24.521
1834.2	25.49
1834.46	21.612
1834.71	25.4817
1834.96	24.4976
1835.21	23.5153
1835.47	23.5026
1835.72	28.3315
1835.97	30.2565
1836.22	25.4181
1836.48	25.4104
1836.73	25.5134
1836.98	25.5085
1837.23	22.5632
1837.48	23.5197
1837.74	23.501
1837.99	27.3556
1838.24	18.6243
1838.49	23.4421
1838.74	25.3696
1839	22.5079
1839.25	28.3337
1839.5	24.4674
1839.75	26.4072
1840	24.4709
1840.26	23.5061
1840.51	30.2616
1840.76	24.4318
1841.01	25.3825
1841.27	24.401
1841.52	24.3876
1841.77	25.3407
1842.02	26.294
1842.27	23.3873
1842.53	22.4127
1842.78	26.2612
1843.03	24.3349
1843.28	24.3308
1843.53	26.2611
1843.78	19.5067
1844.04	23.3635
1844.29	26.2528
1844.54	27.2154
1844.79	24.3232
1845.04	25.2867
1845.3	26.2453
1845.55	28.1737
1845.8	24.314
1846.05	27.2174
1846.3	21.4355
1846.55	29.1687
1846.81	24.3555
1847.06	26.2719
1847.31	24.3027
1847.56	23.2963
1847.81	27.1371
1848.07	25.2108
1848.32	26.1851
1848.57	23.3052
1848.82	26.1805
1849.07	26.1716
1849.32	23.2822
1849.57	24.2385
1849.83	28.0792
1850.08	25.1823
1850.33	27.0966
1850.58	23.2388
1850.83	23.2301
1851.09	23.2222
1851.34	20.3333
1851.59	26.0907
1851.84	21.2832
1852.09	24.1601
1852.34	27.9982
1852.59	27.036
1852.84	25.1138
1853.1	24.1518
1853.35	25.1096
1853.6	23.186
1853.85	23.1816
1854.1	25.095
1854.35	25.0861
1854.6	26.0354
1854.86	22.1901
1855.11	24.1025
1855.36	26.9732
1855.61	26.005
1855.86	25.0365
1856.11	23.1141
1856.36	22.1524
1856.61	25.9807
1856.87	22.1478
1857.12	27.8928
1857.37	22.1432
1857.62	26.9279
1857.87	23.0926
1858.12	24.0454
1858.37	24.0399
1858.63	22.119
1858.88	24.0259
1859.13	26.8885
1859.38	27.8365
1859.63	24.0027
1859.88	26.8648
1860.13	24.9504
1860.38	24.9488
1860.63	22.0804
1860.89	24.9518
1861.14	23.9981
1861.39	23.0434
1861.64	26.8732
1861.89	21.1343
1862.14	24.0047
1862.39	24.0017
1862.64	24.9531
1862.9	23.9893
1863.15	24.9381
1863.4	23.9742
1863.65	24.9228
1863.9	28.7384
1864.15	24.9089
1864.4	23.9471
1864.65	22.9859
1864.9	21.0699
1865.15	24.883
1865.4	28.6931
1865.66	22.0026
1865.91	24.8552
1866.16	25.7974
1866.41	21.9718
1866.66	23.866
1866.91	22.9016
1867.16	27.6501
1867.41	25.7335
1867.66	23.8194
1867.91	31.4182
1868.16	26.6569
1868.41	25.7014
1868.67	24.7472
1868.92	27.5979
1869.17	29.4991
1869.42	26.645
1869.67	29.4939
1869.92	25.6879
1870.17	27.5857
1870.42	25.6816
1870.67	25.6785
1870.92	22.8245
1871.17	27.5742
1871.42	26.6216
1871.67	23.767
1871.92	24.7127
1872.17	23.7566
1872.42	25.6518
1872.68	27.5472
1872.93	24.6913
1873.18	29.4318
1873.43	24.6792
1873.68	26.5749
1873.93	19.9264
1874.18	22.7691
1874.43	27.5076
1874.68	29.397
1874.93	25.5939
1875.18	28.4301
1875.43	25.5765
1875.68	26.5151
1875.93	29.3458
1876.18	25.5401
1876.43	32.1542
1876.68	29.3038
1876.93	27.4029
1877.18	25.5055
1877.43	28.3268
1877.68	27.3627
1877.93	26.3853
1878.18	27.3501
1878.44	29.3462
1878.69	23.6229
1878.93	27.395
1879.19	23.6054
1879.44	30.2556
1879.69	23.6362
1879.94	24.5742
1880.19	33.0865
1880.44	27.4023
1880.69	27.3987
1880.94	24.5624
1881.19	23.6083
1881.44	25.4987
1881.69	25.4861
1881.94	26.4173
1882.19	29.2381
1882.44	26.3857
1882.69	26.3683
1882.94	23.5168
1883.19	26.3383
1883.44	27.2596
1883.69	27.4434
1883.94	23.5404
1884.19	28.1873
1884.44	28.1878
1884.69	29.1463
1884.94	23.4736
1885.19	24.4238
1885.44	27.2652
1885.69	26.324
1885.94	26.3258
1886.19	26.3373
1886.44	26.342
1886.69	30.1225
1886.94	23.5069
1887.19	25.383
1887.44	25.3755
1887.69	27.2548
1887.94	26.3029
1888.19	29.1235
1888.44	25.342
1888.69	28.1574
1888.94	25.3192
1889.19	27.1929
1889.44	21.5333
1889.69	24.3519
1889.94	29.0561
1890.19	25.2877
1890.44	26.2298
1890.69	27.1759
1890.94	24.3552
1891.19	29.0647
1891.43	22.4688
1891.68	25.2903
1891.94	21.521
1892.18	25.2847
1892.43	26.2232
1892.68	28.1038
1892.93	24.332
1893.18	30.9142
1893.43	26.1963
1893.68	24.2986
1893.93	28.0446
1894.18	24.2799
1894.43	26.1623
1894.68	24.2714
1894.93	28.0233
1895.18	27.0799
1895.43	28.0184
1895.68	26.1398
1895.93	23.3219
1896.18	27.0821
1896.43	25.2043
1896.68	24.2668
1896.93	28.9711
1897.18	25.213
1897.42	24.2742
1897.68	25.2155
1897.92	27.0963
1898.17	27.0945
1898.42	25.2098
1898.67	27.0861
1898.92	26.1392
1899.17	25.1912
1899.42	25.1829
1899.67	27.9953
1899.92	22.3529
1900.17	24.2272
1900.42	27.0404
1900.67	25.1591
1900.92	24.2188
1901.16	22.3407
1901.41	29.86
1901.66	23.2858
1901.91	21.4088
1902.16	27.9932
1902.41	25.177
1902.66	28.9435
1902.91	25.1795
1903.16	29.8786
1903.41	27.9927
1903.66	28.9279
1903.91	26.1027
1904.16	23.2785
1904.41	26.0963
1904.65	25.1536
1904.9	27.0313
1905.15	27.0281
1905.4	26.0852
1905.65	22.3228
1905.9	27.0199
1906.15	25.1308
1906.4	24.1808
1906.65	24.1756
1906.9	25.1101
1907.14	24.1667
1907.39	24.1632
1907.64	25.1008
1907.89	26.0397
1908.14	27.92
1908.39	26.0449
1908.64	26.985
1908.89	19.4685
1909.14	24.1672
1909.39	26.9889
1909.63	24.1729
1909.88	23.2373
1910.13	27.9454
1910.38	24.1899
1910.63	25.1382
1910.88	28.9104
1911.13	27.0321
1911.38	23.2675
1911.62	28.9198
1911.87	24.2094
1912.12	26.0915
1912.37	24.2041
1912.62	25.1426
1912.87	25.1403
1913.12	24.1967
1913.37	27.9625
1913.61	23.2524
1913.86	21.3704
1914.11	28.9136
1914.36	24.2082
1914.61	24.2124
1914.86	27.9881
1915.11	23.2765
1915.36	24.223
1915.6	28.9428
1915.85	23.2811
1916.1	28.9405
1916.35	27.0493
1916.6	29.8766
1916.85	23.267
1917.1	25.1465
1917.34	25.1402
1917.59	28.9062
1917.84	25.1303
1918.09	26.0698
1918.34	27.0116
1918.59	24.1851
1918.83	24.189
1919.08	30.7976
1919.33	26.0872
1919.58	25.1503
1919.83	20.4377
1920.08	24.2224
1920.33	26.1152
1920.57	24.225
1920.82	25.1652
1921.07	22.3306
1921.32	27.0605
1921.57	27.0663
1921.81	26.1233
1922.06	26.1255
1922.31	28.0177
1922.56	22.3415
1922.81	24.2294
1923.06	27.0605
1923.31	24.2185
1923.55	29.8864
1923.8	27.9917
1924.05	27.9873
1924.3	28.9266
1924.55	22.3054
1924.79	25.1352
1925.04	24.1877
1925.29	27.0214
1925.54	28.9132
1925.79	25.1374
1926.04	25.1437
1926.28	22.3123
1926.53	26.1003
1926.78	27.0522
1927.03	24.2199
1927.28	27.0636
1927.52	28.013
1927.77	24.2275
1928.02	25.1761
1928.27	30.8607
1928.52	22.3367
1928.76	29.9158
1929.01	23.2855
1929.26	28.9729
1929.51	28.0282
1929.76	26.1369
1930	25.1954
1930.25	22.3547
1930.5	26.1556
1930.75	27.1096
1931	28.0648
1931.24	24.2676
1931.49	25.2161
1931.74	24.263
1931.99	26.1566
1932.24	28.9987
1932.48	29.9419
1932.73	22.3448
1932.98	25.1857
1933.23	26.1316
1933.47	23.2805
1933.72	27.0749
1933.97	24.2346
1934.22	26.144
1934.46	22.36
1934.71	26.1824
1934.96	25.2523
1935.21	26.2226
1935.46	20.5196
1935.7	28.1562
1935.95	24.3492
1936.2	28.1434
1936.45	27.1857
1936.69	28.1353
1936.94	21.4596
1937.19	22.406
1937.44	24.3035
1937.68	27.1534
1937.93	25.2417
1938.18	26.1871
1938.43	25.2281
1938.68	24.2745
1938.92	27.1378
1939.17	28.0916
1939.42	21.4282
1939.67	25.2402
1939.91	28.0998
1940.16	24.2918
1940.41	23.3384
1940.66	25.2487
1940.9	23.3469
1941.15	25.2692
1941.4	25.2776
1941.64	18.5959
1941.89	25.2709
1942.14	26.2136
1942.39	24.2891
1942.63	25.2502
1942.88	27.1847
1943.13	29.0994
1943.38	30.0538
1943.62	26.2216
1943.87	25.2536
1944.12	27.1503
1944.37	26.2122
1944.61	25.2618
1944.86	25.2657
1945.11	19.5401
1945.35	26.2301
1945.6	23.3688
1945.85	24.3288
1946.1	26.2446
1946.34	27.2042
1946.59	28.1631
1946.84	23.3828
1947.09	23.3826
1947.33	23.3804
1947.58	27.202
1947.83	28.1537
1948.07	29.1075
1948.32	22.4121
1948.57	19.5415
1948.82	28.1435
1949.06	25.2746
1949.31	25.2777
1949.56	22.4117
1949.8	25.2853
1950.05	24.3333
1950.3	26.2529
1950.54	28.1781
1950.79	26.2736
1951.04	22.4478
1951.29	26.2907
1951.53	29.1781
1951.78	25.3495
1952.03	26.3158
1952.27	26.3196
1952.52	25.3618
1952.77	24.404
1953.01	24.4013
1953.26	27.2861
1953.51	25.37
1953.76	26.3215
1954	22.4686
1954.25	25.3305
1954.49	23.3959
1954.74	26.2569
1954.99	22.4103
1955.24	27.1951
1955.48	26.2345
1955.73	27.1942
1955.98	26.2418
1956.22	32.0045
1956.47	22.432
1956.72	24.3564
1956.96	23.4029
1957.21	26.2861
1957.46	28.2118
1957.7	25.3344
1957.95	25.3378
1958.2	27.2619
1958.44	21.4967
1958.69	25.3412
1958.94	25.3409
1959.18	27.2594
1959.43	23.4084
1959.68	24.3651
1959.92	25.3233
1960.17	27.2389
1960.42	21.4696
1960.66	24.3456
1960.91	26.2601
1961.16	26.2532
1961.4	27.2065
1961.65	24.3213
1961.9	24.317
1962.14	24.3162
1962.39	27.1952
1962.63	23.3555
1962.88	20.4754
1963.13	24.3141
1963.37	25.2734
1963.62	25.2727
1963.87	24.312
1964.11	26.2316
1964.36	24.313
1964.61	20.4731
1964.85	23.3518
1965.1	26.2287
1965.35	17.5857
1965.59	26.2249
1965.84	22.383
1966.08	24.3043
1966.33	24.3076
1966.58	21.4295
1966.82	28.1594
1967.07	27.2012
1967.32	23.3583
1967.56	20.4723
1967.81	23.3544
1968.05	23.3549
1968.3	22.3929
1968.55	22.3922
1968.79	24.3128
1969.04	27.1926
1969.29	25.2637
1969.53	24.2946
1969.78	22.3637
1970.02	22.3545
1970.27	24.2668
1970.52	23.2999
1970.76	28.0933
1971.01	26.1674
1971.25	23.2834
1971.5	26.1568
1971.75	22.3156
1971.99	24.2303
1972.24	23.2713
1972.48	23.272
1972.73	26.1497
1972.98	23.2696
1973.22	21.3473
1973.47	24.2191
1973.71	23.2529
1973.96	23.2467
1974.21	22.2831
1974.45	28.9891
1974.7	24.1938
1974.94	26.1092
1975.19	26.1086
1975.44	22.2747
1975.68	28.0285
1975.93	28.0313
1976.17	21.3204
1976.42	22.2801
1976.66	22.28
1976.91	23.2384
1977.16	27.0738
1977.4	21.316
1977.65	26.1086
1977.89	26.1038
1978.14	24.18
1978.39	24.1742
1978.63	21.2931
1978.88	25.1231
1979.12	26.0782
1979.37	23.201
1979.61	26.0756
1979.86	26.0741
1980.1	26.0736
1980.35	27.0309
1980.6	23.1925
1980.84	23.1865
1981.09	23.1806
1981.33	21.2607
1981.58	26.0455
1981.82	26.0408
1982.07	28.9106
1982.31	23.1613
1982.56	23.1587
1982.81	24.1107
1983.05	25.0621
1983.3	27.9259
1983.54	26.0017
1983.79	23.1239
1984.03	27.903
1984.28	24.0729
1984.52	26.9382
1984.77	20.239
1985.02	27.8857
1985.26	25.0107
1985.51	27.8698
1985.75	27.8645
1986	24.9956
1986.24	24.9956
1986.49	23.0855
1986.73	25.0002
1986.98	24.0445
1987.22	25.9543
1987.47	25.9546
1987.71	24.9921
1987.96	24.9827
1988.21	23.0612
1988.45	27.8261
1988.7	24.9474
1988.94	23.0301
1989.19	23.9951
1989.43	25.7786
1989.68	25.7407
1989.92	28.593
1990.17	24.8452
1990.41	23.7314
1990.66	23.9795
1990.9	22.025
1991.15	25.0093
1991.39	26.583
1991.64	25.2844
1991.88	25.1838
1992.13	24.8365
1992.37	22.4134
1992.62	23.3632
1992.86	21.9828
1993.11	22.9897
1993.35	24.4368
1993.6	25.9233
1993.84	25.6716
1994.09	23.0527
1994.33	25.1559
1994.58	25.7622
1994.82	22.5173
1995.07	25.4463
1995.31	21.6248
1995.56	25.0908
1995.8	24.3044
1996.05	24.336
1996.29	23.4106
1996.54	25.6979
1996.78	23.218
1997.03	25.0975
1997.27	26.9241
1997.52	24.4501
1997.76	24.455
1998.01	24.3391
1998.25	23.6589
1998.5	21.8733
1998.74	23.705
1998.99	23.5365
1999.23	24.61
1999.48	25.5845
1999.72	24.7556
1999.97	23.7655
2000.21	26.7086
2000.46	23.7569
2000.7	25.6993
2000.95	24.4409
2001.19	25.9572
2001.43	24.9376
2001.68	24.9373
2001.92	23.9276
2002.17	25.1191
2002.41	23.7312
2002.66	24.9956
2002.9	24.3466
2003.15	24.8841
2003.39	22.8321
2003.64	24.0631
2003.88	26.924
2004.13	24.7041
2004.37	23.4465
2004.61	22.9944
2004.86	24.6635
2005.1	23.3945
2005.35	23.5806
2005.59	22.5687
2005.84	24.3947
2006.08	26.2075
2006.33	25.0582
2006.57	24.3601
2006.81	24.9978
2007.06	24.7344
2007.3	24.5953
2007.55	24.3451
2007.79	24.8908
2008.04	25.6823
2008.28	24.6735
2008.53	24.1753
2008.77	25.9262
2009.01	26.1649
2009.26	22.4918
2009.5	22.5478
2009.75	25.0232
2009.99	23.6851
2010.24	27.3766
2010.48	26.325
2010.73	24.8546
2010.97	24.0728
2011.21	22.7353
2011.46	25.5459
2011.7	21.5805
2011.95	24.1664
2012.19	23.2403
2012.43	24.1681
2012.68	22.2822
2012.92	26.9877
2013.17	21.3334
2013.42	20.3845
2013.67	22.2552
2013.91	26.0094
2014.16	23.1796
2014.41	24.1086
2014.66	23.1566
2014.9	26.8997
2015.15	23.1418
2015.4	24.0806
2015.64	22.2058
2015.89	25.0252
2016.14	25.9663
2016.39	25.9629
2016.63	26.9077
2016.88	23.1673
2017.13	25.9896
2017.37	24.1077
2017.62	25.9828
2017.87	24.0973
2018.11	25.0286
2018.36	21.2633
2018.61	25.9462
2018.86	25.9363
2019.1	22.1754
2019.35	22.1662
2019.6	22.1577
2019.84	26.8371
2020.09	24.9593
2020.34	25.8934
2020.58	24.0189
2020.83	25.8902
2021.08	25.8885
2021.33	27.7624
2021.57	23.0802
2021.82	24.0163
2022.07	24.0145
2022.31	24.9482
2022.56	25.8805
2022.81	25.875
2023.05	26.8041
2023.3	21.1818
2023.55	23.0477
2023.8	24.9127
2024.04	25.8419
2024.29	25.8357
2024.54	23.026
2024.78	23.018
2025.03	22.0755
2025.27	25.8028
2025.52	22.9937
2025.77	22.0532
2026.02	24.8456
2026.26	25.769
2026.51	23.9054
2026.76	22.9803
2027	21.1264
2027.25	26.7475
2027.5	25.8341
2027.74	26.7825
2027.99	23.9716
2028.23	23.9561
2028.48	25.8022
2028.73	25.7331
2028.98	26.7332
2029.22	22.1404
2029.47	22.0969
2029.72	26.7987
2029.96	25.8175
2030.21	27.6571
2030.45	25.7601
2030.7	24.8254
2030.95	23.873
2031.19	25.7545
2031.44	24.8355
2031.69	22.032
2031.93	25.7637
2032.18	22.9645
2032.43	24.837
2032.67	25.7779
2032.92	25.7865
2033.17	24.8598
2033.41	25.7999
2033.66	23.0001
2033.91	24.8761
2034.15	24.8789
2034.4	22.9962
2034.64	25.7827
2034.89	24.8233
2035.14	22.9506
2035.38	26.6924
2035.63	21.0991
2035.87	22.0441
2036.12	25.7983
2036.37	23.0045
2036.61	25.8087
2036.86	22.9906
2037.11	27.6647
2037.35	22.9952
2037.6	23.9294
2037.84	25.7976
2038.09	23.9246
2038.34	27.6602
2038.58	25.7864
2038.83	22.0437
2039.08	22.9739
2039.32	23.9039
2039.57	24.8332
2039.81	25.7623
2040.06	22.0213
2040.31	22.948
2040.55	21.0748
2040.8	23.8676
2041.04	21.0632
2041.29	24.7883
2041.54	23.851
2041.78	21.9839
2042.03	28.5074
2042.27	23.8425
2042.52	24.771
2042.77	23.8335
2043.01	28.4894
2043.26	24.7618
2043.5	23.8315
2043.75	24.7691
2044	23.8457
2044.24	21.0562
2044.49	24.7905
2044.73	23.8557
2044.98	21.9841
2045.23	26.6351
2045.47	26.6113
2045.72	20.1143
2045.96	22.9183
2046.21	26.6863
2046.45	24.8566
2046.7	28.5751
2046.95	23.8771
2047.19	24.7927
2047.44	27.5932
2047.68	23.852
2047.93	18.2385
2048.17	21.9628
2048.42	21.963
2048.67	29.4215
2048.91	25.6934
2049.16	23.8305
2049.4	23.8358
2049.65	23.8401
2049.89	23.8461
2050.14	21.0534
2050.39	20.1244
2050.63	22.9314
2050.88	22.0001
2051.12	23.869
2051.37	23.8669
2051.61	21.9935
2051.86	24.7877
2052.11	27.588
2052.35	24.7866
2052.6	27.5914
2052.84	21.9883
2053.09	25.7264
2053.33	24.7956
2053.58	26.6685
2053.82	26.6746
2054.07	24.8161
2054.31	27.6259
2054.56	24.8226
2054.8	24.8228
2055.05	25.757
2055.3	20.1427
2055.54	27.6232
2055.79	23.8757
2056.03	25.7424
2056.28	26.6755
2056.52	24.8026
2056.77	26.6688
2057.01	21.9929
2057.26	23.8615
2057.5	26.6662
2057.75	23.8631
2058	19.1906
2058.24	27.6087
2058.49	27.6121
2058.73	21.0698
2058.98	26.688
2059.22	24.821
2059.47	25.7602
2059.71	26.6972
2059.96	22.0171
2060.2	27.6341
2060.45	22.9496
2060.69	23.8815
2060.94	23.8784
2061.18	26.6884
2061.43	27.6277
2061.67	24.8211
2061.92	26.6941
2062.16	25.7577
2062.41	22.949
2062.65	23.8863
2062.9	26.6977
2063.14	23.8908
2063.39	22.0208
2063.63	26.7086
2063.88	25.7744
2064.12	24.8393
2064.37	26.7153
2064.61	26.7168
2064.86	25.7817
2065.1	28.5977
2065.35	23.9143
2065.59	27.6734
2065.84	26.7419
2066.08	25.809
2066.33	23.9356
2066.57	26.7552
2066.82	24.8776
2067.06	23.9404
2067.31	22.0639
2067.55	24.8832
2067.8	25.8252
2068.04	25.8288
2068.29	24.8919
2068.53	23.954
2068.78	22.0748
2069.02	26.7779
2069.27	21.1369
2069.51	22.0733
2069.76	23.0061
2070	22.9957
2070.25	21.113
2070.49	25.8104
2070.73	23.0014
2070.98	24.8924
2071.22	26.7856
2071.47	23.9614
2071.71	23.9537
2071.96	24.9213
2072.2	26.8141
2072.45	28.6949
2072.69	25.8673
2072.94	23.9827
2073.18	25.8631
2073.43	25.8624
2073.67	28.6848
2073.92	27.7439
2074.16	26.8026
2074.4	24.9202
2074.65	26.8058
2074.89	23.9844
2075.14	24.9321
2075.38	23.9974
2075.63	24.0072
2075.87	24.019
2076.12	25.9144
2076.36	24.9745
2076.6	23.0865
2076.85	25.9189
2077.09	24.9716
2077.34	23.0784
2077.58	26.8468
2077.83	26.8339
2078.07	23.0583
2078.31	24.9466
2078.56	23.0646
2078.8	29.6698
2079.05	25.8978
2079.29	26.8445
2079.54	29.6817
2079.78	24.0288
2080.03	26.8665
2080.27	23.0917
2080.51	25.9292
2080.76	27.8219
2081	24.9866
2081.25	23.0936
2081.49	24.0362
2081.74	23.09
2081.98	26.8684
2082.22	20.2533
2082.47	22.1439
2082.71	22.1448
2082.96	22.1454
2083.2	26.8703
2083.45	23.0892
2083.69	27.8124
2083.93	24.9759
2084.18	25.9202
2084.42	24.9749
2084.67	28.7538
2084.91	24.0288
2085.15	24.0289
2085.4	20.2484
2085.64	23.0827
2085.89	19.302
2086.13	25.9183
2086.37	30.6509
2086.62	25.9317
2086.86	24.9911
2087.11	21.209
2087.35	26.8874
2087.59	28.7837
2087.84	24.054
2088.08	24.9999
2088.32	25.9461
2088.57	24.0533
2088.81	24.0537
2089.06	23.1077
2089.3	24.0548
2089.54	25.0045
2089.79	22.1673
2090.03	28.8025
2090.28	24.0683
2090.52	25.9635
2090.76	23.1226
2091.01	22.1765
2091.25	23.1258
2091.5	23.1277
2091.74	25.9728
2091.98	25.9788
2092.23	26.9339
2092.47	23.1472
2092.72	29.7966
2092.96	25.0597
2093.2	26.0152
2093.45	23.1716
2093.69	22.2267
2093.93	27.9331
2094.18	21.2846
2094.42	25.0906
2094.66	24.1407
2094.91	25.0908
2095.15	22.2368
2095.39	23.1852
2095.64	25.0817
2095.88	24.1262
2096.13	26.9727
2096.37	27.9191
2096.61	26.0164
2096.86	23.1649
2097.1	24.1132
2097.34	25.0592
2097.59	24.104
2097.83	23.1492
2098.07	26.944
2098.32	25.9927
2098.56	20.2952
2098.8	27.8846
2099.05	25.9858
2099.29	24.0863
2099.53	22.1861
2099.78	24.0825
2100.02	26.9284
2100.27	26.928
2100.51	22.1829
2100.75	21.2343
2101	24.0833
2101.24	24.0885
2101.48	25.9917
2101.73	22.1952
2101.97	26.945
2102.21	25.0447
2102.45	24.0937
2102.7	25.9928
2102.94	25.0408
2103.18	25.9858
2103.43	26.9293
2103.67	25.9764
2103.92	23.1272
2104.16	25.9729
2104.4	25.0235
2104.64	25.0249
2104.89	25.028
2105.13	25.0311
2105.37	23.1343
2105.62	25.9875
2105.86	22.1919
2106.1	27.8975
2106.35	26.9494
2106.59	24.0998
2106.83	26.0016
2107.08	25.0514
2107.32	24.1022
2107.56	25.0532
2107.8	24.0991
2108.05	27.8959
2108.29	24.0871
2108.53	20.28
2108.78	25.9724
2109.02	25.0168
2109.26	25.9636
2109.51	25.0145
2109.75	30.7187
2109.99	25.0245
2110.23	25.0241
2110.48	23.1235
2110.72	23.1228
2110.96	24.0721
2111.21	25.0214
2111.45	22.1706
2111.69	23.1183
2111.93	25.0141
2112.18	27.86
2112.42	25.0088
2112.66	26.9073
2112.91	25.0098
2113.15	22.1621
2113.39	25.9639
2113.63	20.2683
2113.88	24.0733
2114.12	21.2234
2114.36	23.1224
2114.61	23.1197
2114.85	25.9696
2115.09	23.1189
2115.33	25.0196
2115.58	25.0176
2115.82	23.1143
2116.06	25.9625
2116.31	23.1092
2116.55	22.154
2116.79	23.099
2117.03	27.8446
2117.28	25.9432
2117.52	24.9919
2117.76	24.0426
2118	25.9386
2118.25	24.9845
2118.49	25.929
2118.73	24.0237
2118.97	27.8108
2119.22	23.0615
2119.46	26.8492
2119.7	21.1544
2119.94	21.1495
2120.19	26.8313
2120.43	22.0889
2120.67	26.8247
2120.91	21.1395
2121.16	27.7763
2121.4	26.8303
2121.64	28.7317
2121.88	24.9449
2122.13	24.9496
2122.37	26.8515
2122.61	21.1625
2122.85	25.9101
2123.1	24.9637
2123.34	25.9151
2123.58	22.1192
2123.82	28.7651
2124.07	24.0156
2124.31	24.0123
2124.55	25.9057
2124.79	25.8984
2125.03	25.8877
2125.28	28.7187
2125.52	24.9153
2125.76	25.8535
2126	30.5796
2126.25	21.1036
2126.49	24.8832
2126.73	25.8235
2126.97	24.8715
2127.21	27.7029
2127.46	25.8053
2127.7	25.8024
2127.94	25.8004
2128.18	24.8528
2128.43	24.8495
2128.67	22.9567
2128.91	24.8467
2129.15	25.7914
2129.39	26.7349
2129.64	22.9515
2129.88	26.7297
2130.12	26.7278
2130.36	25.7808
2130.6	22.9437
2130.85	27.6658
2131.09	22.9384
2131.33	21.0456
2131.57	22.931
2131.81	24.8155
2132.06	23.8672
2132.3	24.8083
2132.54	22.9167
2132.78	27.631
2133.02	24.7942
2133.27	24.7912
2133.51	27.621
2133.75	23.8468
2133.99	24.7907
2134.23	24.7903
2134.48	25.7345
2134.72	26.6783
2134.96	22.902
2135.2	25.7318
2135.44	28.5615
2135.68	28.5594
2135.93	24.7816
2136.17	22.8899
2136.41	26.6548
2136.65	25.7034
2136.89	24.7563
2137.14	22.8713
2137.38	21.9287
2137.62	23.8141
2137.86	24.7588
2138.1	21.9341
2138.34	20.9887
2138.59	22.8677
2138.83	23.8048
2139.07	22.8656
2139.31	27.5875
2139.55	22.8767
2139.79	24.7505
2140.03	25.683
2140.28	27.5625
2140.52	23.7891
2140.76	26.6115
2141	25.666
2141.24	24.7215
2141.49	26.6024
2141.73	24.7185
2141.97	25.6545
2142.21	29.4137
2142.45	25.6453
2142.69	24.7033
2142.93	22.8243
2143.18	20.9439
2143.42	27.5569
2143.66	22.8352
2143.9	26.537
2144.14	23.7172
2144.38	23.7209
2144.62	26.5489
2144.87	23.7357
2145.11	23.7397
2145.35	26.5461
2145.59	22.7866
2145.83	25.6078
2146.07	23.7252
2146.31	23.7226
2146.55	23.7199
2146.8	28.4173
2147.04	24.6546
2147.28	23.7117
2147.52	27.4665
2147.76	25.583
2148	25.5792
2148.24	28.3939
2148.48	22.7545
2148.73	26.5077
2148.97	21.8085
2149.21	27.4378
2149.45	27.4315
2149.69	25.5475
2149.93	25.5363
2150.17	24.5919
2150.42	27.3974
2150.66	24.579
2150.9	25.5131
2151.14	20.8255
2151.38	26.4507
2151.62	28.3295
2151.86	24.5812
2152.1	26.4598
2152.34	24.5852
2152.58	24.588
2152.83	26.4594
2153.07	22.7042
2153.31	24.5744
2153.55	29.2566
2153.79	23.6296
2154.03	26.4384
2154.27	22.6851
2154.51	25.4894
2154.75	27.3531
2154.99	22.6604
2155.24	23.5866
2155.48	25.446
2155.72	26.3723
2155.96	23.5597
2156.2	24.4875
2156.44	21.6793
2156.68	26.3474
2156.92	23.5431
2157.16	23.5418
2157.4	28.2119
2157.64	22.608
2157.89	22.6104
2158.13	27.2864
2158.37	24.486
2158.61	24.4864
2158.85	23.5508
2159.09	25.4184
2159.33	24.4809
2159.57	25.4117
2159.81	25.4069
2160.05	25.4011
2160.29	27.2621
2160.53	23.5199
2160.77	22.5806
2161.01	25.3754
2161.25	25.3719
2161.5	27.2361
2161.74	21.6347
2161.98	27.2296
2162.22	28.1609
2162.46	26.2943
2162.7	25.3607
2162.94	24.4267
2163.18	22.5582
2163.42	24.42
2163.66	25.3492
2163.9	25.346
2164.14	24.4101
2164.38	24.4066
2164.62	22.5365
2164.86	25.3255
2165.11	23.4574
2165.35	23.4576
2165.59	21.5955
2165.83	25.3225
2166.07	24.3903
2166.31	23.458
2166.55	29.0452
2166.79	21.588
2167.03	20.6526
2167.27	23.4419
2167.51	23.4377
2167.75	27.1556
2167.99	23.4241
2168.23	24.3424
2168.47	26.1906
2168.71	27.1156
2168.95	20.6066
2169.19	26.1854
2169.43	26.1881
2169.67	26.1927
2169.91	23.4084
2170.15	28.0689
2170.39	22.493
2170.63	25.2909
2170.87	24.3611
2171.11	19.7026
2171.35	25.2844
2171.59	25.2814
2171.83	26.2013
2172.07	24.3225
2172.31	24.3129
2172.56	26.1665
2172.79	27.0906
2173.04	22.4406
2173.28	28.0139
2173.51	27.0836
2173.76	23.3663
2174	25.2255
2174.24	27.0866
2174.48	24.3003
2174.72	28.9477
2174.96	23.371
2175.2	22.4407
2175.44	25.2278
2175.68	24.2961
2175.92	25.2231
2176.16	25.2216
2176.4	26.1488
2176.64	22.4295
2176.88	27.9991
2177.12	22.4232
2177.36	23.3514
2177.6	24.2803
2177.84	27.9959
2178.08	25.2078
2178.32	27.066
2178.55	23.3472
2178.8	20.5543
2179.03	23.335
2179.28	23.3337
2179.52	28.9049
2179.75	24.2621
2180	23.3332
2180.23	24.2609
2180.47	26.1171
2180.71	24.2587
2180.95	23.328
2181.19	27.0393
2181.43	24.2529
2181.67	26.1072
2181.91	26.1035
2182.15	26.0998
2182.39	26.0978
2182.63	22.3821
2182.87	24.2349
2183.11	23.3043
2183.35	24.2267
2183.59	24.2206
2183.83	24.2129
2184.07	24.2071
2184.31	17.7156
2184.55	24.1985
2184.79	23.2701
2185.03	19.5639
2185.27	26.0518
2185.51	23.2728
2185.75	23.2739
2185.99	23.2761
2186.23	25.1335
2186.47	23.2827
2186.7	26.0684
2186.95	24.2197
2187.18	20.5142
2187.42	25.1609
2187.66	23.3103
2187.9	26.1009
2188.14	26.1017
2188.38	22.3834
2188.62	23.3075
2188.86	25.159
2189.1	19.584
2189.34	25.1463
2189.58	22.3558
2189.82	24.2026
2190.06	27.9038
2190.3	25.1185
2190.54	24.1898
2190.78	27.8976
2191.01	27.8993
2191.25	26.0466
2191.49	26.9731
2191.73	26.0468
2191.97	25.121
2192.21	26.05
2192.45	25.1241
2192.69	24.1979
2192.93	28.8377
2193.17	26.0584
2193.41	26.0622
2193.65	26.0658
2193.89	24.2142
2194.13	26.0813
2194.36	25.1639
2194.6	24.2419
2194.84	25.1752
2195.08	26.1028
2195.32	21.4514
2195.56	25.1664
2195.8	25.1618
2196.04	25.1558
2196.28	27.9345
2196.52	24.2102
2196.76	26.9865
2197	26.0512
2197.23	25.1178
2197.47	26.0407
2197.71	23.2536
2197.95	21.3981
2198.19	24.1806
2198.43	26.0378
2198.67	23.2597
2198.91	25.1211
2199.15	25.1279
2199.38	25.1358
2199.62	26.0714
2199.86	22.3621
2200.1	23.2983
2200.34	30.7495
2200.58	24.251
2200.82	27.0547
2201.06	28.9278
2201.3	22.4137
2201.54	22.4185
2201.77	27.0665
2202.01	28.8997
2202.25	26.0524
2202.49	23.233
2202.73	28.8142
2202.97	25.1451
2203.21	25.164
2203.45	23.2964
2203.68	25.1505
2203.92	26.1021
2204.16	23.3838
2204.4	28.0172
2204.64	23.3523
2204.88	26.1533
2205.12	24.271
2205.36	24.249
2205.59	26.0901
2205.83	27.0049
2206.07	26.0705
2206.31	24.2109
2206.55	27.0056
2206.79	25.1459
2207.03	23.2768
2207.26	26.9964
2207.5	26.0699
2207.74	27.004
2207.98	23.2881
2208.22	24.2228
2208.46	25.1579
2208.7	24.2315
2208.93	24.2352
2209.17	25.1692
2209.41	22.3775
2209.65	23.3095
2209.89	24.2403
2210.13	27.0329
2210.36	22.3765
2210.6	26.1046
2210.84	23.3129
2211.08	23.3159
2211.32	24.2509
2211.56	27.9822
2211.8	25.1896
2212.03	25.1944
2212.27	26.1318
2212.51	26.135
2212.75	24.2706
2212.99	26.134
2213.23	21.4672
2213.46	28.9255
2213.7	26.1229
2213.94	25.1854
2214.18	25.1861
2214.42	26.123
2214.66	25.2001
2214.89	25.2091
2215.13	23.3444
2215.37	27.0798
2215.61	21.4795
2215.85	26.1479
2216.08	26.148
2216.32	23.3465
2216.56	25.2129
2216.8	27.0788
2217.04	22.409
2217.28	23.341
2217.51	25.2075
2217.75	23.3406
2217.99	23.3411
2218.23	30.8096
2218.47	24.2731
2218.7	25.2072
2218.94	28.0105
2219.18	25.212
2219.42	26.1499
2219.66	24.2856
2219.9	23.3532
2220.13	24.29
2220.37	19.6187
2220.61	24.2906
2220.85	24.2889
2221.09	22.4184
2221.32	24.2844
2221.56	24.2781
2221.8	25.205
2222.04	26.1326
2222.27	27.9943
2222.51	21.4558
2222.75	22.388
2222.99	23.3225
2223.23	25.1926
2223.46	24.2618
2223.7	25.1993
2223.94	28.0073
2224.18	24.2768
2224.42	24.2836
2224.65	27.0951
2224.89	24.2953
2225.13	23.3644
2225.37	25.2403
2225.6	22.438
2225.84	24.3162
2226.08	25.2574
2226.32	25.2621
2226.56	25.2669
2226.79	19.648
2227.03	25.275
2227.27	24.3418
2227.51	24.3451
2227.74	24.3474
2227.98	28.0995
2228.22	22.4717
2228.46	24.3447
2228.69	27.1553
2228.93	27.1528
2229.17	25.2757
2229.41	22.4614
2229.64	23.3982
2229.88	27.152
2230.12	25.2827
2230.36	27.1645
2230.6	25.2921
2230.83	26.2348
2231.07	27.1783
2231.31	23.4278
2231.55	24.3718
2231.78	24.377
2232.02	26.2602
2232.26	21.5661
2232.5	24.3895
2232.73	24.3937
2232.97	27.2185
2233.21	27.223
2233.45	22.5239
2233.68	27.2317
2233.92	26.2952
2234.16	24.4159
2234.39	26.3006
2234.63	24.4161
2234.87	25.3547
2235.11	25.3511
2235.34	21.5824
2235.58	25.3365
2235.82	23.4488
2236.06	27.2102
2236.29	23.4491
2236.53	23.4498
2236.77	21.5694
2237	23.4508
2237.24	22.5108
2237.48	27.2198
2237.72	28.166
2237.95	24.4104
2238.19	19.7108
2238.43	22.5442
2238.67	26.3197
2238.9	23.4978
2239.14	25.3903
2239.38	26.3422
2239.61	22.5697
2239.85	23.5105
2240.09	24.45
2240.33	25.3856
2240.56	24.4361
2240.8	26.318
2241.04	21.6132
2241.27	21.6208
2241.51	25.3955
2241.75	23.5095
2241.99	27.2853
2242.22	23.5116
2242.46	26.3444
2242.7	25.4028
2242.93	24.4613
2243.17	27.2934
2243.41	24.4597
2243.64	24.4559
2243.88	24.4517
2244.12	25.3929
2244.36	26.3353
2244.59	24.4481
2244.83	24.4512
2245.07	21.6253
2245.3	25.4116
2245.54	25.4203
2245.78	25.4256
2246.01	23.5393
2246.25	22.5981
2246.49	25.4393
2246.72	27.3348
2246.96	25.445
2247.2	25.4482
2247.43	19.7736
2247.67	24.5071
2247.91	26.4005
2248.14	28.2925
2248.38	27.3441
2248.62	24.5027
2248.85	23.5543
2249.09	26.3912
2249.33	22.6043
2249.56	28.2799
2249.8	24.4988
2250.04	22.6082
2250.27	28.2862
2250.51	29.2285
2250.75	26.3837
2250.98	23.5398
2251.22	25.4252
2251.46	24.4743
2251.69	23.5248
2251.93	22.5775
2252.17	26.3596
2252.4	26.3619
2252.64	25.4197
2252.88	24.4783
2253.11	27.3242
2253.35	22.6045
2253.59	24.5067
2253.82	27.3557
2254.06	25.4662
2254.3	23.5746
2254.53	25.4747
2254.77	25.4775
2255.01	25.4774
2255.24	23.5782
2255.48	25.475
2255.72	23.5783
2255.95	21.6821
2256.19	24.5272
2256.42	26.4277
2256.66	22.6376
2256.9	28.3336
2257.13	25.4908
2257.37	25.4945
2257.61	21.7009
2257.84	26.4509
2258.08	24.5541
2258.32	21.7061
2258.55	23.6057
2258.79	24.5564
2259.02	25.508
2259.26	23.6111
2259.5	25.5143
2259.73	29.317
2259.97	26.468
2260.2	22.6688
2260.44	22.6706
2260.68	27.4254
2260.91	27.4274
2261.15	26.4802
2261.39	24.5857
2261.62	24.5903
2261.86	24.5908
2262.1	26.4948
2262.33	24.5932
2262.57	21.7397
2262.8	26.5013
2263.04	24.6022
2263.28	20.7981
2263.51	23.6605
2263.75	25.5728
2263.98	23.6748
2264.22	24.6371
2264.46	26.5537
2264.69	24.6538
2264.93	27.524
2265.16	24.6657
2265.4	23.7152
2265.64	28.4947
2265.87	23.719
2266.11	24.6747
2266.34	25.6273
2266.58	20.8462
2266.81	22.7503
2267.05	27.5168
2267.29	22.7385
2267.52	24.6425
2267.76	22.7302
2267.99	24.6339
2268.23	23.6742
2268.47	29.3908
2268.7	25.5745
2268.94	26.5283
2269.17	21.7631
2269.41	24.6287
2269.65	27.497
2269.88	26.5499
2270.12	21.7837
2270.35	21.7906
2270.59	25.6183
2270.82	26.5782
2271.06	27.5367
2271.3	23.7185
2271.53	24.6783
2271.77	23.7246
2272	24.6837
2272.24	23.7313
2272.47	22.7765
2272.71	25.6464
2272.95	24.6903
2273.18	24.6911
2273.42	27.5625
2273.65	20.8651
2273.89	24.6934
2274.12	25.6513
2274.36	27.5662
2274.6	23.7384
2274.83	26.6106
2275.07	23.7398
2275.3	23.7409
2275.54	26.6138
2275.77	23.7426
2276.01	24.6987
2276.24	23.7442
2276.48	22.7914
2276.72	23.7545
2276.95	24.7175
2277.18	23.7634
2277.42	28.5617
2277.66	24.7344
2277.89	26.6619
2278.13	25.712
2278.36	22.8417
2278.6	22.8446
2278.83	21.8853
2279.07	24.7663
2279.3	22.844
2279.54	25.723
2279.78	28.5985
2280.01	25.7057
2280.24	27.6167
2280.48	24.7309
2280.72	21.8475
2280.95	22.8015
2281.19	23.7563
2281.42	22.7948
2281.66	26.6253
2281.89	24.7054
2282.13	25.6661
2282.36	22.7915
2282.6	25.6705
2282.83	24.716
2283.07	26.6396
2283.3	26.6452
2283.54	24.7328
2283.77	25.7021
2284.01	21.8713
2284.24	26.6848
2284.48	24.7739
2284.71	22.8566
2284.95	20.935
2285.19	29.5977
2285.42	27.6793
2285.65	22.8691
2285.89	20.9444
2286.12	25.7503
2286.36	26.7018
2286.59	27.6622
2286.83	26.7018
2287.06	26.7056
2287.3	22.8675
2287.54	27.6903
2287.77	24.8048
2288	23.8438
2288.24	27.7035
2288.47	22.884
2288.71	22.88
2288.94	26.7284
2289.18	26.723
2289.41	23.8264
2289.65	27.666
2289.88	24.7701
2290.12	27.6439
2290.35	27.6394
2290.59	24.752
2290.82	27.6356
2291.06	27.6356
2291.29	23.793
2291.53	21.8752
2291.76	26.6924
2292	25.7356
2292.23	24.777
2292.47	26.7061
2292.7	28.6365
2292.94	23.8271
2293.17	27.6852
2293.41	21.9084
2293.64	25.7658
2293.88	27.6957
2294.11	23.8413
2294.34	22.8751
2294.58	24.7992
2294.81	20.9406
2295.05	24.7895
2295.28	25.7486
2295.52	25.7445
2295.75	19.9624
2295.99	24.7732
2296.22	25.7324
2296.46	19.9508
2296.69	27.6389
2296.93	26.6747
2297.16	26.6764
2297.39	25.7173
2297.63	25.7215
2297.86	23.8013
2298.1	24.7705
2298.33	20.925
2298.57	24.7832
2298.8	23.8225
2299.04	23.8266
2299.27	26.7246
2299.51	24.8011
2299.74	26.734
2299.97	22.8775
2300.21	26.7351
2300.44	25.7701
2300.68	25.7688
2300.91	26.736
2301.15	25.7751
2301.38	23.8478
2301.61	25.7802
2301.85	26.7467
2302.08	22.8856
2302.32	24.8148
2302.55	24.812
2302.79	26.7399
2303.02	25.7749
2303.25	24.8086
2303.49	21.9114
2303.72	24.8056
2303.96	24.8055
2304.19	25.7725
2304.43	24.811
2304.66	26.7454
2304.89	21.9197
2305.13	25.7854
2305.36	24.8237
2305.6	26.7582
2305.83	24.8266
2306.07	22.8956
2306.3	25.7971
2306.53	26.7662
2306.77	24.8337
2307	27.7333
2307.24	23.8661
2307.47	24.8313
2307.7	28.6942
2307.94	22.892
2308.17	28.6873
2308.41	23.8532
2308.64	23.8506
2308.87	22.8838
2309.11	23.8504
2309.34	23.8534
2309.58	28.6894
2309.81	25.7958
2310.04	21.9351
2310.28	22.9065
2310.51	28.7124
2310.75	25.8104
2310.98	26.7765
2311.21	27.7403
2311.45	26.7662
2311.68	29.6499
2311.92	26.7324
2312.15	25.7568
2312.38	23.8191
2312.62	28.6409
2312.85	23.8101
2313.08	25.7362
2313.32	21.8757
2313.55	27.6677
2313.79	26.7102
2314.02	27.6858
2314.25	27.6934
2314.49	24.8022
2314.72	27.7089
2314.95	28.6858
2315.19	30.6295
2315.42	24.8295
2315.66	22.8879
2315.89	22.8815
2316.12	25.7766
2316.36	21.903
2316.59	25.7543
2316.82	25.7464
2317.06	26.7077
2317.29	24.7754
2317.52	27.673
2317.76	26.7083
2317.99	21.885
2318.23	27.6852
2318.46	23.8119
2318.69	28.6356
2318.93	24.7691
2319.16	26.6953
2319.39	22.8293
2319.63	27.6507
2319.86	24.7521
2320.09	22.8198
2320.33	27.6439
2320.56	23.7843
2320.79	26.6784
2321.03	26.6803
2321.26	23.7881
2321.5	27.653
2321.73	27.6576
2321.96	26.6973
2322.2	20.9079
2322.43	25.7457
2322.66	25.7519
2322.9	23.8204
2323.13	30.5856
2323.36	25.7527
2323.6	28.6545
2323.83	30.5894
2324.06	30.5909
2324.3	30.5913
2324.53	30.5894
2324.76	33.4881
2325	34.446
2325.23	32.5019
2325.46	35.3878
2325.7	31.5156
2325.93	31.5088
2326.16	36.3291
2326.4	36.321
2326.63	39.2078
2326.86	45.9525
2327.09	55.5882
2327.33	60.3976
2327.56	63.276
2327.79	89.2958
2328.03	101.811
2328.26	158.663
2328.49	210.719
2328.73	222.287
2328.96	205.907
2329.19	154.789
2329.43	114.291
2329.66	79.5827
2329.89	63.2008
2330.13	50.6768
2330.36	43.9401
2330.59	42.9732
2330.82	34.301
2331.06	32.3711
2331.29	32.3693
2331.52	31.4079
2331.76	27.5591
2331.99	30.4532
2332.22	30.46
2332.46	28.5243
2332.69	27.5548
2332.92	23.6979
2333.16	25.6198
2333.39	25.6158
2333.62	23.6865
2333.85	22.7207
2334.09	26.5678
2334.32	25.6011
2334.55	26.5583
2334.79	25.5888
2335.02	28.4697
2335.25	24.6193
2335.48	23.6561
2335.72	23.6541
2335.95	25.5777
2336.18	25.5789
2336.41	20.7689
2336.65	24.6125
2336.88	30.3795
2337.11	25.57
2337.34	30.3758
2337.58	26.5279
2337.81	23.6419
2338.04	27.4845
2338.28	24.5982
2338.51	25.5577
2338.74	25.5558
2338.97	24.5932
2339.21	25.5547
2339.44	27.4771
2339.67	26.5152
2339.91	26.5137
2340.14	23.6276
2340.37	25.546
2340.6	27.4627
2340.84	27.4573
2341.07	21.6877
2341.3	25.5217
2341.53	28.3925
2341.77	27.4215
2342	26.4536
2342.23	25.4891
2342.46	22.6074
2342.7	27.3972
2342.93	23.5588
2343.16	24.5153
2343.39	23.5556
2343.63	21.6379
2343.86	26.4291
2344.09	27.3859
2344.32	25.4686
2344.56	21.6352
2344.79	23.5526
2345.02	24.5099
2345.25	20.6734
2345.49	27.3799
2345.72	26.4165
2345.95	26.4089
2346.18	26.4033
2346.41	26.3977
2346.65	22.5645
2346.88	21.6049
2347.11	23.5183
2347.34	25.4306
2347.58	26.3853
2347.81	26.3841
2348.04	24.4693
2348.27	24.4702
2348.5	23.5149
2348.74	23.5161
2348.97	26.3884
2349.2	24.4701
2349.43	29.2526
2349.67	24.4543
2349.9	25.3997
2350.13	27.2985
2350.36	24.4148
2350.59	28.2157
2350.83	24.3636
2351.06	24.311
2351.29	28.1616
2351.52	23.4761
2351.75	25.4148
2351.99	25.3618
2352.22	23.4239
2352.45	26.2888
2352.68	27.246
2352.91	23.4126
2353.15	27.203
2353.38	27.183
2353.61	25.284
2353.84	26.2337
2354.07	22.4182
2354.31	22.4179
2354.54	25.2737
2354.77	28.1374
2355	23.379
2355.23	28.142
2355.47	27.1867
2355.7	27.1836
2355.93	25.2751
2356.16	26.224
2356.39	22.4093
2356.63	25.2576
2356.86	24.2932
2357.09	28.0884
2357.32	26.1798
2357.55	24.2728
2357.79	26.1696
2358.02	24.2639
2358.25	24.2598
2358.48	27.1077
2358.71	27.1049
2358.94	26.1483
2359.18	28.045
2359.41	24.2425
2359.64	24.2404
2359.87	26.1364
2360.1	24.232
2360.33	19.4789
2360.57	26.1181
2360.8	27.0604
2361.03	28.0022
2361.26	25.1493
2361.49	24.1941
2361.72	26.0836
2361.96	25.1284
2362.19	25.1212
2362.42	25.1134
2362.65	25.106
2362.88	24.1528
2363.11	26.0406
2363.34	26.9817
2363.58	25.0841
2363.81	25.0804
2364.04	26.0231
2364.27	22.2352
2364.5	24.1231
2364.73	26.9561
2364.97	23.1688
