#Acq. time (s)=	30
#Accumulations=	2
#Range (cm-¹)=	1200...2365
#Windows=	3
#Auto scanning=	Off
#Autofocus=	Off
#Macrospot=	Off
#AutoExposure=	Off
#Spike filter=	Multiple accum.
#Delay time (s)=	2
#Binning=	1
#Readout mode=	Signal
#DeNoise=	Off
#ICS correction=	On
#Dark correction=	Off
#Inst. Process=	Off
#Detector Gain=	Best Dynamic
#Detector ADC=	50 kHz HS
#Detector temperature (°C)=	-60.09
#Instrument=	LabRAM HR Evol
#Detector=	SIN-EM FIVIS
#Objective=	x100_VIS_LWD
#Grating=	1800 (450-850nm)
#ND Filter=	100%
#Laser=	532nm_Edge
#Hole=	100.021
#Temperature=	0
#Range=	Visible
#StageXY=	75x50mm Scan+
#StageZ=	Z motor
#X (µm)=	0
#Y (µm)=	0
#Z (µm)=	-16.5
#Full time(mm:ss)=	3:18
#Project=	21_11_26
#Sample=	BU02Aw
#Site=	
#Title=	BU02aW-A-FF1-FI04-S_1800 (450-850nm)_532nm_Edge_100%_x100_VIS_LWD_H100um_30sX2
#Remark=	
#Date=	26.11.2021 11:05
#Acquired=	26.11.2021 11:05:18
1202.72	67.2137
1203	70.5414
1203.28	69.4872
1203.56	60.8318
1203.84	65.0884
1204.11	66.132
1204.39	68.2557
1204.67	69.3335
1204.95	70.4164
1205.23	70.4024
1205.5	65.0026
1205.78	64.9755
1206.06	67.0919
1206.34	71.3515
1206.61	70.2451
1206.89	68.0676
1207.17	65.892
1207.45	65.866
1207.73	67.9905
1208	71.1855
1208.28	59.399
1208.56	65.8076
1208.84	66.8573
1209.11	62.5603
1209.39	65.7516
1209.67	62.5357
1209.95	58.2563
1210.23	71.079
1210.5	57.1695
1210.78	69.9658
1211.06	61.3939
1211.34	67.7793
1211.61	66.686
1211.89	62.3982
1212.17	67.705
1212.45	63.4144
1212.72	64.4625
1213	59.1161
1213.28	64.4236
1213.56	62.2805
1213.83	67.5961
1214.11	60.1294
1214.39	67.5841
1214.67	65.4568
1214.94	64.3926
1215.22	60.133
1215.5	64.3887
1215.78	62.2559
1216.05	64.3793
1216.33	70.7476
1216.61	64.3391
1216.89	60.0574
1217.16	66.4107
1217.44	60.0142
1217.72	61.0588
1218	61.0407
1218.27	61.0261
1218.55	69.5042
1218.83	63.1214
1219.1	59.9301
1219.38	65.2309
1219.66	66.2853
1219.94	66.2766
1220.21	66.2645
1220.49	70.5045
1220.77	63.0798
1221.04	70.4999
1221.32	64.1295
1221.6	61.997
1221.88	64.1057
1222.15	64.0866
1222.43	64.0612
1222.71	66.1493
1222.98	69.2908
1223.26	63.9681
1223.54	68.1682
1223.81	63.9116
1224.09	61.7756
1224.37	58.5848
1224.65	64.9056
1224.92	70.1714
1225.2	66.9948
1225.48	60.6589
1225.76	68.0559
1226.03	57.5045
1226.31	65.9591
1226.59	67.0108
1226.86	67.0055
1227.14	63.8256
1227.42	70.1468
1227.69	62.7259
1227.97	66.8807
1228.25	59.4672
1228.52	60.4854
1228.8	65.6857
1229.08	60.381
1229.35	68.7817
1229.63	56.3112
1229.91	60.6529
1230.18	64.8136
1230.46	64.7519
1230.74	61.5688
1231.01	71.0551
1231.29	59.4329
1231.57	66.6703
1231.84	63.5295
1232.12	59.3245
1232.4	70.8807
1232.67	61.4158
1232.95	59.3126
1233.23	67.7133
1233.5	65.6054
1233.78	65.6032
1234.06	67.7074
1234.33	64.5612
1234.61	65.618
1234.89	63.5254
1235.16	66.6886
1235.44	66.6935
1235.71	65.648
1235.99	57.2449
1236.27	58.3005
1236.54	65.659
1236.82	61.4452
1237.1	63.5373
1237.37	62.4721
1237.65	68.7538
1237.93	62.4277
1238.2	67.6539
1238.48	66.5796
1238.76	63.4081
1239.03	64.4389
1239.31	61.2816
1239.58	61.2727
1239.86	65.4591
1240.14	57.0685
1240.41	62.3071
1240.69	57.0655
1240.97	67.5488
1241.24	64.407
1241.52	69.6505
1241.79	67.5474
1242.07	68.5827
1242.35	67.5265
1242.62	71.719
1242.9	60.195
1243.18	62.2994
1243.45	65.4521
1243.73	70.6921
1244	56.0164
1244.28	68.5998
1244.56	64.4052
1244.83	68.5936
1245.11	63.3456
1245.39	70.6669
1245.66	67.5057
1245.94	70.6238
1246.21	70.5998
1246.49	67.449
1246.76	64.303
1247.04	68.4898
1247.32	73.7215
1247.59	67.4351
1247.87	71.6197
1248.14	75.7975
1248.42	78.9072
1248.7	68.4324
1248.97	71.5662
1249.25	69.4783
1249.52	68.437
1249.8	68.432
1250.08	75.7505
1250.35	67.3838
1250.63	64.2322
1250.9	63.1697
1251.18	68.381
1251.45	65.2322
1251.73	68.3546
1252.01	70.4316
1252.28	69.3738
1252.56	70.4048
1252.83	69.3472
1253.11	69.3321
1253.39	68.2748
1253.66	77.6592
1253.94	69.311
1254.21	68.278
1254.49	72.466
1254.76	67.2607
1255.04	70.3986
1255.31	77.7075
1255.59	68.3147
1255.87	78.7569
1256.14	77.7084
1256.42	70.4017
1256.69	70.4068
1256.97	73.5502
1257.24	72.5088
1257.52	73.549
1257.79	71.4494
1258.07	78.7524
1258.35	77.7017
1258.62	81.8711
1258.9	91.2572
1259.17	91.2352
1259.45	93.3199
1259.72	80.8045
1260	86.0358
1260.27	81.8933
1260.55	79.7835
1260.82	86.0271
1261.1	82.8651
1261.37	95.3634
1261.65	95.3476
1261.92	98.4902
1262.2	101.71
1262.48	100.797
1262.75	109.229
1263.02	123.673
1263.3	132.913
1263.58	149.535
1263.85	153.856
1264.13	165.464
1264.4	188.621
1264.68	191.853
1264.95	183.369
1265.23	170.782
1265.5	144.652
1265.78	134.189
1266.05	116.401
1266.33	104.907
1266.6	94.4644
1266.88	97.6119
1267.15	105.992
1267.43	88.2423
1267.7	87.2197
1267.98	86.1987
1268.25	84.1337
1268.53	82.0768
1268.8	94.6738
1269.08	93.6444
1269.35	84.2302
1269.63	82.1448
1269.9	83.1872
1270.18	86.311
1270.45	75.8124
1270.73	86.2654
1271	87.2909
1271.28	89.3685
1271.55	92.5015
1271.83	88.3035
1272.1	87.2633
1272.38	92.5164
1272.65	88.3544
1272.93	87.3405
1273.2	85.2676
1273.47	82.1459
1273.75	92.6493
1274.03	81.1404
1274.3	82.2102
1274.57	85.3701
1274.85	85.3737
1275.12	88.5165
1275.4	86.4187
1275.67	85.3788
1275.95	84.3432
1276.22	86.4564
1276.5	89.6258
1276.77	88.5919
1277.05	88.6087
1277.32	93.8717
1277.6	97.0457
1277.87	91.8155
1278.14	94.9899
1278.42	91.8551
1278.69	97.1287
1278.97	97.1561
1279.24	101.379
1279.52	109.811
1279.79	101.389
1280.07	107.692
1280.34	121.351
1280.61	120.295
1280.89	127.666
1281.16	133.989
1281.44	152.961
1281.71	175.111
1281.99	208.818
1282.26	249.865
1282.53	317.261
1282.81	403.629
1283.08	528.826
1283.36	715.846
1283.63	975.922
1283.91	1293.97
1284.18	1676.43
1284.45	1999.04
1284.73	2114.85
1285	1936.09
1285.28	1429.23
1285.55	995.668
1285.83	653.154
1286.1	439.436
1286.37	322.638
1286.65	226.805
1286.92	185.7
1287.2	174.115
1287.47	144.626
1287.75	127.762
1288.02	123.529
1288.29	117.201
1288.57	117.2
1288.84	109.836
1289.12	97.2139
1289.39	99.3335
1289.66	98.2981
1289.94	94.1039
1290.21	94.1233
1290.49	96.2461
1290.76	96.2454
1291.03	84.6484
1291.31	84.6433
1291.58	96.2272
1291.86	87.8002
1292.13	86.7434
1292.4	86.7439
1292.68	77.2699
1292.95	77.2651
1293.22	81.4712
1293.5	73.0497
1293.77	80.4478
1294.05	81.5347
1294.32	82.6235
1294.59	83.6873
1294.87	85.7964
1295.14	84.7356
1295.42	79.4773
1295.69	84.7861
1295.96	77.4424
1296.24	80.6668
1296.51	75.4156
1296.79	78.5942
1297.06	66.9688
1297.33	74.3596
1297.61	74.3465
1297.88	75.3876
1298.15	78.539
1298.43	79.574
1298.7	80.6393
1298.97	79.5766
1299.25	69.0044
1299.52	75.3291
1299.79	73.2056
1300.07	77.4267
1300.34	73.2171
1300.62	73.2243
1300.89	75.3379
1301.16	77.4458
1301.44	72.1636
1301.71	77.4462
1301.98	64.7866
1302.25	76.4147
1302.53	75.3647
1302.8	71.1413
1303.08	73.2527
1303.35	69.0226
1303.62	73.2394
1303.9	70.0581
1304.17	71.1112
1304.44	75.3363
1304.72	77.4481
1304.99	64.7756
1305.26	72.1581
1305.54	71.0895
1305.81	72.1285
1306.08	73.1672
1306.35	71.0393
1306.63	75.2438
1306.9	66.8
1307.18	69.9633
1307.45	71.0239
1307.72	73.1352
1308	72.0792
1308.27	76.2973
1308.54	65.7533
1308.81	64.6944
1309.09	73.1358
1309.36	71.0372
1309.63	65.7715
1309.91	67.8912
1310.18	66.842
1310.45	70.0059
1310.73	70.0012
1311	67.8904
1311.27	70.0037
1311.55	68.9518
1311.82	74.2318
1312.09	66.849
1312.37	62.6374
1312.64	68.9814
1312.91	70.0418
1313.18	70.0385
1313.46	65.8043
1313.73	65.8017
1314	77.407
1314.28	70.0125
1314.55	70.0121
1314.82	74.2383
1315.09	68.9669
1315.37	73.1986
1315.64	73.207
1315.91	64.7676
1316.18	62.6633
1316.46	61.6042
1316.73	62.6561
1317	61.597
1317.28	66.8753
1317.55	67.931
1317.82	74.2777
1318.09	62.6652
1318.37	66.8945
1318.64	66.8969
1318.91	66.8981
1319.18	69.011
1319.46	71.1217
1319.73	67.9493
1320	70.0593
1320.28	63.7251
1320.55	63.7256
1320.82	69.0038
1321.09	62.656
1321.37	63.6977
1321.64	64.7351
1321.91	75.2683
1322.18	69.9784
1322.46	68.9035
1322.73	66.7843
1323	69.9386
1323.27	64.6556
1323.55	65.6971
1323.82	67.8131
1324.09	66.7614
1324.36	66.7622
1324.64	67.8143
1324.91	63.5973
1325.18	69.9216
1325.45	59.3809
1325.73	66.7449
1326	63.5533
1326.27	65.6228
1326.54	64.5235
1326.81	67.6606
1327.09	65.5511
1327.36	64.5203
1327.63	66.6686
1327.9	65.6384
1328.18	71.984
1328.45	74.12
1328.72	62.5476
1328.99	66.787
1329.27	60.4626
1329.54	66.7844
1329.81	67.8463
1330.08	65.733
1330.35	67.8372
1330.63	69.9377
1330.9	60.4331
1331.17	66.7446
1331.44	74.1027
1331.71	68.8055
1331.99	65.6155
1332.26	61.3813
1332.53	70.8367
1332.8	68.7105
1333.07	60.2716
1333.35	69.7132
1333.62	60.2298
1333.89	61.262
1334.16	67.5474
1334.43	71.7293
1334.71	68.5602
1334.98	65.394
1335.25	69.578
1335.52	72.7121
1335.79	64.3052
1336.07	63.2447
1336.34	65.3313
1336.61	70.5642
1336.88	68.4574
1337.15	67.4008
1337.43	60.0564
1337.7	71.5807
1337.97	68.4284
1338.24	70.5067
1338.51	67.3474
1338.78	68.3847
1339.06	61.0424
1339.33	71.5066
1339.6	66.2687
1339.87	64.1766
1340.14	64.1798
1340.42	67.3224
1340.69	66.2774
1340.96	69.4211
1341.23	70.4666
1341.5	67.3215
1341.77	70.4578
1342.04	65.2144
1342.32	71.4849
1342.59	64.1426
1342.86	66.218
1343.13	65.1543
1343.4	66.1908
1343.67	65.1396
1343.95	72.4579
1344.22	71.4111
1344.49	67.2287
1344.76	70.3659
1345.03	70.3591
1345.3	67.2105
1345.58	71.3765
1345.85	68.2185
1346.12	67.1562
1346.39	66.0887
1346.66	66.0555
1346.93	64.9904
1347.2	68.1004
1347.47	71.2077
1347.75	68.0596
1348.02	65.9618
1348.29	60.7414
1348.56	64.9047
1348.83	59.6887
1349.1	68.0151
1349.37	64.8766
1349.65	63.822
1349.92	72.1413
1350.19	60.6743
1350.46	67.9506
1350.73	72.1013
1351	65.8396
1351.27	68.9437
1351.54	66.8517
1351.81	65.7942
1352.09	68.9084
1352.36	60.5882
1352.63	66.8346
1352.9	68.929
1353.17	71.0306
1353.44	73.1229
1353.71	66.9352
1353.98	64.9121
1354.25	67.9754
1354.53	69.9533
1354.8	70.9203
1355.07	71.9668
1355.34	63.6594
1355.61	68.8306
1355.88	68.8177
1356.15	59.4903
1356.42	70.9238
1356.69	72.9858
1356.96	63.63
1357.24	66.74
1357.51	64.656
1357.78	76.0693
1358.05	69.8279
1358.32	72.9296
1358.59	70.8403
1358.86	71.8657
1359.13	72.8882
1359.4	71.8365
1359.67	70.7887
1359.94	72.8533
1360.22	69.724
1360.49	68.6666
1360.76	73.8277
1361.03	76.9213
1361.3	76.9148
1361.57	67.5907
1361.84	74.8383
1362.11	68.6192
1362.38	70.6819
1362.65	76.8872
1362.92	70.6668
1363.19	73.7701
1363.46	71.7035
1363.73	71.7154
1364	82.0816
1364.28	77.9479
1364.55	81.0544
1364.82	78.977
1365.09	83.111
1365.36	88.2734
1365.63	82.0418
1365.9	87.1972
1366.17	84.0727
1366.44	79.9152
1366.71	82.9991
1366.98	81.9408
1367.25	77.7774
1367.52	74.6643
1367.79	75.6901
1368.06	80.8675
1368.33	73.6379
1368.6	80.878
1368.87	82.9502
1369.15	96.3947
1369.41	107.776
1369.68	133.633
1369.95	165.666
1370.23	159.445
1370.5	132.552
1370.77	98.4156
1371.04	90.1365
1371.31	91.1527
1371.58	96.2909
1371.85	93.1613
1372.12	90.0281
1372.39	87.9302
1372.66	90.9931
1372.93	85.8137
1373.2	86.8296
1373.47	86.8177
1373.74	86.8066
1374.01	90.9191
1374.28	91.9415
1374.55	95.0256
1374.82	98.1098
1375.09	92.951
1375.36	94.999
1375.63	89.8521
1375.9	101.195
1376.17	89.8605
1376.44	108.41
1376.71	105.292
1376.98	100.117
1377.25	105.231
1377.52	105.187
1377.79	104.171
1378.06	105.226
1378.33	110.416
1378.6	113.562
1378.87	118.778
1379.14	120.86
1379.41	124.979
1379.68	129.086
1379.95	130.098
1380.22	134.192
1380.49	131.044
1380.76	127.851
1381.03	136.022
1381.3	142.141
1381.57	142.165
1381.84	150.354
1382.11	142.062
1382.38	141.991
1382.65	154.254
1382.92	157.277
1383.19	159.269
1383.46	166.405
1383.73	168.407
1384	183.758
1384.27	178.606
1384.54	189.889
1384.81	201.184
1385.08	222.756
1385.34	243.334
1385.61	263.953
1385.88	330.744
1386.15	400.633
1386.42	512.612
1386.69	689.371
1386.96	1014.02
1387.23	1531.68
1387.5	2421.32
1387.77	3611.07
1388.04	4511.02
1388.31	4089.38
1388.58	2886.75
1388.85	1743.42
1389.12	1029.35
1389.39	639.846
1389.66	424.273
1389.93	328.82
1390.2	260.957
1390.46	210.491
1390.73	188.881
1391	176.57
1391.27	161.124
1391.54	144.712
1391.81	126.253
1392.08	127.248
1392.35	128.24
1392.62	115.922
1392.89	117.95
1393.16	105.649
1393.43	103.589
1393.7	112.79
1393.97	106.639
1394.23	106.63
1394.5	94.3432
1394.77	93.3138
1395.04	95.3563
1395.31	91.273
1395.58	93.335
1395.85	96.4167
1396.12	86.1846
1396.39	99.4886
1396.66	89.2448
1396.93	82.07
1397.2	80.0127
1397.46	86.136
1397.73	83.0511
1398	85.0886
1398.27	89.1787
1398.54	84.0701
1398.81	88.1718
1399.08	81.0162
1399.35	85.1127
1399.62	85.1269
1399.89	81.0423
1400.16	86.1674
1400.42	84.1194
1400.69	81.06
1400.96	93.3672
1401.23	83.1376
1401.5	79.0382
1401.77	84.1682
1402.04	82.1191
1402.31	82.1466
1402.58	77.0675
1402.84	89.4227
1403.11	79.2006
1403.38	81.2785
1403.65	86.424
1403.92	81.2914
1404.19	80.2481
1404.46	78.1511
1404.73	89.4487
1404.99	84.311
1405.26	88.4041
1405.53	80.1833
1405.8	86.3209
1406.07	89.3813
1406.34	87.3167
1406.61	102.682
1406.87	103.699
1407.14	113.954
1407.41	116.012
1407.68	117.047
1407.95	131.407
1408.22	147.819
1408.49	189.867
1408.76	203.208
1409.02	222.708
1409.29	259.649
1409.56	290.441
1409.83	267.898
1410.1	246.372
1410.37	192.004
1410.63	162.224
1410.9	127.318
1411.17	114.978
1411.44	104.703
1411.71	96.4881
1411.98	88.2794
1412.25	90.3252
1412.51	83.1655
1412.78	73.965
1413.05	77.0878
1413.32	79.2332
1413.59	71.0622
1413.86	76.1407
1414.12	76.0405
1414.39	75.0317
1414.66	64.8197
1414.93	81.2767
1415.2	65.8719
1415.47	64.8475
1415.73	67.9277
1416	67.9296
1416.27	62.8011
1416.54	68.9681
1416.81	62.8128
1417.07	65.9005
1417.34	58.7176
1417.61	66.9434
1417.88	66.9505
1418.15	63.8715
1418.42	63.8727
1418.68	63.8753
1418.95	62.8505
1419.22	60.7958
1419.49	63.8801
1419.76	62.8455
1420.02	61.8063
1420.29	58.7121
1420.56	60.7552
1420.83	63.8232
1421.1	61.756
1421.36	65.8503
1421.63	61.7389
1421.9	60.716
1422.17	61.7587
1422.44	61.7794
1422.7	62.8275
1422.97	61.8332
1423.24	60.8572
1423.51	60.9108
1423.77	61.7943
1424.04	66.7912
1424.31	69.8856
1424.58	60.5977
1424.85	65.7207
1425.11	60.6153
1425.38	58.6061
1425.65	63.7419
1425.92	66.8095
1426.19	67.8584
1426.45	62.7242
1426.72	64.7643
1426.99	65.773
1427.26	59.6041
1427.52	61.6363
1427.79	62.6355
1428.06	57.4944
1428.33	56.4611
1428.59	63.6244
1428.86	62.6014
1429.13	59.5331
1429.4	57.4899
1429.67	60.5689
1429.93	59.5539
1430.2	57.5174
1430.47	64.7065
1430.74	60.62
1431	58.5876
1431.27	57.5874
1431.54	60.6857
1431.81	53.5115
1432.07	57.617
1432.34	54.5278
1432.61	54.5148
1432.87	58.6097
1433.14	56.5408
1433.41	51.3938
1433.68	52.3966
1433.95	52.3758
1434.21	58.5072
1434.48	50.3095
1434.75	54.4305
1435.01	53.4171
1435.28	51.3698
1435.55	56.4936
1435.82	55.4675
1436.08	52.3908
1436.35	52.3874
1436.62	50.3346
1436.89	58.5254
1437.15	50.3247
1437.42	56.4659
1437.69	57.4885
1437.95	51.3371
1438.22	53.3826
1438.49	57.4818
1438.76	47.2472
1439.02	55.4469
1439.29	55.4485
1439.56	55.4513
1439.82	46.2376
1440.09	57.5222
1440.36	50.3617
1440.63	54.4693
1440.89	56.5234
1441.16	56.5242
1441.43	49.3487
1441.69	48.3193
1441.96	53.4375
1442.23	52.4075
1442.49	53.4436
1442.76	53.4448
1443.03	53.4554
1443.3	52.423
1443.56	53.4392
1443.83	47.2801
1444.1	54.4511
1444.36	55.474
1444.63	51.3767
1444.9	50.3658
1445.16	52.4294
1445.43	48.3419
1445.7	52.4415
1445.97	53.4623
1446.23	57.5609
1446.5	53.453
1446.77	56.5258
1447.03	52.419
1447.3	54.4657
1447.57	53.4347
1447.83	51.3772
1448.1	52.3971
1448.37	43.1699
1448.63	47.2787
1448.9	52.4172
1449.17	52.4202
1449.43	49.3424
1449.7	49.338
1449.97	51.3824
1450.23	53.4244
1450.5	51.3652
1450.77	50.3356
1451.03	49.3065
1451.3	50.3273
1451.57	48.2732
1451.83	51.3423
1452.1	53.3863
1452.37	49.2838
1452.63	44.159
1452.9	49.2821
1453.17	50.3088
1453.43	52.3638
1453.7	48.2694
1453.97	52.3689
1454.23	56.4641
1454.5	50.3126
1454.77	52.3618
1455.03	49.2876
1455.3	44.1625
1455.56	51.3318
1455.83	50.308
1456.1	52.3662
1456.36	49.2962
1456.63	50.3208
1456.9	44.1672
1457.16	47.2336
1457.43	49.2749
1457.7	50.2954
1457.96	45.1699
1458.23	52.3384
1458.49	44.1435
1458.76	46.1931
1459.03	48.2445
1459.29	48.2466
1459.56	47.2235
1459.82	46.1997
1460.09	40.0503
1460.36	50.2925
1460.62	44.1421
1460.89	46.1868
1461.16	48.2301
1461.42	43.103
1461.69	44.1212
1461.95	53.3292
1462.22	50.249
1462.49	49.2161
1462.75	44.0894
1463.02	47.1488
1463.28	47.1377
1463.55	46.1036
1463.82	49.1608
1464.08	42.0022
1464.35	45.0831
1464.61	45.1037
1464.88	45.1196
1465.15	53.3327
1465.41	46.1289
1465.68	51.1518
1465.94	47.0275
1466.21	44.9816
1466.48	42.9536
1466.74	47.0321
1467.01	51.0922
1467.27	52.1053
1467.54	48.0291
1467.8	56.1872
1468.07	50.0623
1468.34	50.0598
1468.6	45.9784
1468.87	51.0773
1469.13	46.9941
1469.4	43.9295
1469.67	50.0424
1469.93	44.9347
1470.2	41.8658
1470.46	47.9724
1470.73	42.8705
1470.99	41.8463
1471.26	49.9935
1471.53	44.8929
1471.79	45.9022
1472.06	44.8773
1472.32	46.9103
1472.59	50.9813
1472.85	49.9613
1473.12	49.9595
1473.39	45.8829
1473.65	49.9479
1473.92	52.9936
1474.18	46.8806
1474.45	44.8417
1474.71	43.8236
1474.98	47.8982
1475.24	48.9188
1475.51	48.9192
1475.78	46.8817
1476.04	42.8063
1476.31	43.8178
1476.57	48.9006
1476.84	45.8438
1477.1	45.8362
1477.37	45.8284
1477.63	45.8242
1477.9	44.8053
1478.16	46.8377
1478.43	43.7815
1478.69	46.8225
1478.96	48.8483
1479.22	54.9388
1479.49	47.8159
1479.76	45.7746
1480.02	47.7959
1480.29	46.77
1480.55	42.6921
1480.82	45.7241
1481.08	50.7884
1481.35	46.7249
1481.61	46.7166
1481.88	44.6914
1482.14	48.7571
1482.41	41.6613
1482.67	47.7603
1482.94	41.6758
1483.2	49.7975
1483.47	43.7109
1483.73	47.7753
1484	50.8215
1484.26	43.7114
1484.53	47.7535
1484.79	50.77
1485.06	48.6887
1485.32	50.6468
1485.59	47.5872
1485.85	44.5177
1486.12	46.6467
1486.38	51.7266
1486.65	42.6218
1486.91	47.6399
1487.18	48.6771
1487.44	49.6976
1487.71	41.5777
1487.97	46.6322
1488.24	41.5616
1488.5	44.5922
1488.77	42.5573
1489.03	43.5588
1489.3	46.5861
1489.56	47.5924
1489.83	49.6114
1490.09	45.561
1490.36	41.5136
1490.62	44.5476
1490.89	46.5649
1491.15	44.5326
1491.42	46.5457
1491.68	48.563
1491.95	43.5055
1492.21	51.593
1492.48	44.5176
1492.74	41.4827
1493	45.524
1493.27	43.5002
1493.53	40.4669
1493.8	44.5072
1494.06	44.5051
1494.33	47.5378
1494.59	45.5188
1494.86	41.4783
1495.12	43.4982
1495.39	47.534
1495.65	42.4672
1495.92	40.4312
1496.18	46.4783
1496.45	46.4694
1496.71	46.4627
1496.97	43.4283
1497.24	47.4591
1497.5	47.4583
1497.77	44.4297
1498.03	43.4176
1498.3	42.407
1498.56	42.407
1498.82	42.4075
1499.09	45.4364
1499.35	38.3728
1499.62	51.4968
1499.88	44.4348
1500.15	41.4095
1500.41	42.4202
1500.68	44.4387
1500.94	51.5037
1501.2	46.4541
1501.47	48.4676
1501.73	42.4025
1502	43.4086
1502.26	45.4252
1502.52	39.3685
1502.79	51.4724
1503.05	43.3907
1503.32	42.3731
1503.58	48.4187
1503.85	51.4345
1504.11	43.3675
1504.37	47.4049
1504.64	45.3897
1504.9	45.3897
1505.17	47.4041
1505.43	46.3905
1505.7	49.4075
1505.96	42.3381
1506.22	44.3377
1506.49	43.3268
1506.75	45.3399
1507.02	47.3564
1507.28	46.3553
1507.54	47.3644
1507.81	48.3738
1508.07	44.3423
1508.34	40.3083
1508.6	42.3209
1508.86	47.3593
1509.13	39.2996
1509.39	44.3381
1509.66	47.36
1509.92	44.3365
1510.18	48.372
1510.45	50.3904
1510.71	45.3423
1510.98	42.3108
1511.24	46.3294
1511.5	42.2884
1511.77	46.297
1512.03	46.2724
1512.29	48.2587
1512.56	45.2196
1512.82	53.2367
1513.08	48.2009
1513.35	45.1772
1513.61	47.1759
1513.88	48.1755
1514.14	47.1824
1514.4	49.2091
1514.67	43.1863
1514.93	43.181
1515.2	42.1666
1515.46	43.1588
1515.72	45.1548
1515.99	52.1645
1516.25	53.1516
1516.51	48.1256
1516.78	46.1149
1517.04	43.1027
1517.3	41.0941
1517.57	42.0953
1517.83	43.0983
1518.09	43.101
1518.36	49.1259
1518.62	41.1045
1518.88	43.1132
1519.15	43.1153
1519.41	49.1378
1519.67	40.112
1519.94	48.1401
1520.2	47.1353
1520.47	45.1243
1520.73	48.1301
1520.99	43.1166
1521.26	47.1337
1521.52	45.1308
1521.78	49.1457
1522.05	48.1399
1522.31	46.1287
1522.57	45.12
1522.84	48.1234
1523.1	50.1239
1523.36	40.0873
1523.62	42.0798
1523.89	46.0711
1524.15	50.0658
1524.41	47.05
1524.68	48.0429
1524.94	44.0297
1525.2	44.0343
1525.47	44.0361
1525.73	41.0328
1525.99	51.055
1526.26	42.0476
1526.52	43.0605
1526.78	47.0783
1527.05	46.0793
1527.31	46.0779
1527.57	45.0687
1527.84	46.0676
1528.1	42.055
1528.36	45.0571
1528.63	47.0551
1528.89	43.0426
1529.15	44.04
1529.41	43.0357
1529.68	46.0395
1529.94	48.0392
1530.2	44.0255
1530.47	45.0245
1530.73	48.0327
1530.99	44.0354
1531.25	45.046
1531.52	45.0525
1531.78	39.0408
1532.04	49.0577
1532.31	47.0547
1532.57	45.0442
1532.83	41.0412
1533.09	42.0541
1533.36	50.0898
1533.62	45.0904
1533.88	46.0995
1534.15	47.1061
1534.41	48.1084
1534.67	47.1023
1534.94	47.0982
1535.2	47.0928
1535.46	45.0826
1535.72	43.0683
1535.99	47.055
1536.25	44.0348
1536.51	40.0179
1536.77	40.0037
1537.04	43.9921
1537.3	46.979
1537.56	48.973
1537.82	48.9613
1538.09	40.9594
1538.35	44.9508
1538.61	48.9353
1538.87	41.9325
1539.14	47.9252
1539.4	44.9386
1539.66	48.9655
1539.92	39.991
1540.19	51.0285
1540.45	47.0417
1540.71	48.0643
1540.97	36.0443
1541.24	46.0765
1541.5	46.057
1541.76	47.0567
1542.02	47.0435
1542.29	48.0333
1542.55	41.0094
1542.81	43.0015
1543.07	47.9968
1543.34	41.98
1543.6	46.9727
1543.86	45.9566
1544.12	47.9407
1544.39	45.9423
1544.65	46.9449
1544.91	47.9547
1545.17	39.9636
1545.43	37.9703
1545.7	50.0004
1545.96	51.0123
1546.22	44.0073
1546.48	43.0101
1546.74	37.9988
1547.01	44.0106
1547.27	48.0225
1547.53	38.0084
1547.79	49.0348
1548.06	50.0255
1548.32	45.9937
1548.58	44.9919
1548.84	47.9981
1549.1	46.0085
1549.37	46.9663
1549.63	47.917
1549.89	41.9089
1550.15	40.932
1550.42	48.9833
1550.68	47.052
1550.94	45.096
1551.2	46.1444
1551.46	45.1088
1551.73	47.1211
1551.99	46.1073
1552.25	43.0817
1552.51	48.1208
1552.77	54.1669
1553.03	48.1336
1553.3	46.1113
1553.56	44.0705
1553.82	40.0505
1554.08	50.0774
1554.34	42.0439
1554.61	49.0496
1554.87	47.0282
1555.13	51.0187
1555.39	50.01
1555.65	49.0046
1555.91	49.0039
1556.18	48.0048
1556.44	43.9978
1556.7	48.9989
1556.96	47.9974
1557.22	43.9933
1557.48	48.0026
1557.75	48.003
1558.01	49.0017
1558.27	47.9907
1558.53	43.9702
1558.79	46.9617
1559.06	46.9453
1559.32	44.9298
1559.58	49.9179
1559.84	47.9068
1560.1	50.897
1560.36	41.8932
1560.63	42.8879
1560.89	43.8834
1561.15	42.881
1561.41	46.8775
1561.67	44.8816
1561.93	48.8877
1562.19	40.902
1562.46	43.9143
1562.72	42.9141
1562.98	48.9122
1563.24	49.9079
1563.5	46.9097
1563.76	44.9047
1564.02	39.902
1564.29	48.9181
1564.55	47.9361
1564.81	47.9417
1565.07	41.9337
1565.33	45.9101
1565.59	46.8273
1565.85	47.709
1566.11	48.6429
1566.38	47.8448
1566.64	39.902
1566.9	46.8776
1567.16	47.845
1567.42	41.8857
1567.68	43.9238
1567.94	45.9138
1568.2	41.8826
1568.47	42.887
1568.73	45.8923
1568.99	46.8951
1569.25	47.89
1569.51	48.8714
1569.77	51.8583
1570.03	45.8625
1570.29	44.8664
1570.55	44.867
1570.82	50.8637
1571.08	53.8605
1571.34	46.8622
1571.6	39.8626
1571.86	49.847
1572.12	49.8377
1572.38	50.8346
1572.64	43.8363
1572.9	46.823
1573.17	45.8172
1573.43	42.8154
1573.69	52.7892
1573.95	47.7913
1574.21	44.7979
1574.47	42.8092
1574.73	48.8092
1574.99	48.8205
1575.25	46.8347
1575.51	44.8473
1575.78	51.8504
1576.04	45.8562
1576.3	48.8504
1576.56	48.849
1576.82	45.8455
1577.08	49.826
1577.34	47.8094
1577.6	46.7935
1577.86	41.7878
1578.12	45.7639
1578.38	51.7329
1578.64	48.7318
1578.9	42.7468
1579.17	49.7244
1579.43	45.7359
1579.69	48.7267
1579.95	50.723
1580.21	48.7357
1580.47	44.75
1580.73	49.7365
1580.99	41.7566
1581.25	42.7484
1581.51	48.7226
1581.77	48.7157
1582.03	45.7156
1582.29	44.709
1582.55	45.7015
1582.81	45.6978
1583.07	45.6938
1583.33	49.6751
1583.59	46.6849
1583.85	49.6714
1584.11	45.6821
1584.38	48.6694
1584.64	42.6971
1584.9	48.676
1585.16	43.6969
1585.42	48.6766
1585.68	49.6695
1585.94	44.6876
1586.2	46.6747
1586.46	48.6547
1586.72	51.6286
1586.98	48.633
1587.24	47.6309
1587.5	50.6105
1587.76	47.6208
1588.02	55.5773
1588.28	50.6026
1588.54	47.6213
1588.8	46.6311
1589.06	51.6139
1589.32	46.6429
1589.58	53.6169
1589.84	49.6391
1590.1	48.6447
1590.36	49.6398
1590.62	43.6691
1590.88	48.6529
1591.14	44.6733
1591.4	39.6921
1591.66	47.6584
1591.92	48.6505
1592.18	47.6493
1592.44	49.6291
1592.7	40.6563
1592.96	48.6058
1593.22	44.6187
1593.48	51.5628
1593.74	46.5716
1594	46.5517
1594.26	45.5459
1594.52	49.5122
1594.78	50.505
1595.04	48.5238
1595.3	47.5396
1595.56	45.5582
1595.82	49.5325
1596.08	47.5229
1596.34	50.5011
1596.6	46.5277
1596.86	51.4937
1597.12	46.5289
1597.38	47.525
1597.64	52.4959
1597.9	43.5584
1598.16	48.5242
1598.42	50.5059
1598.68	55.4623
1598.94	46.5104
1599.2	51.462
1599.46	49.4668
1599.72	49.4579
1599.98	47.4647
1600.24	58.3682
1600.5	46.456
1600.76	49.4214
1601.02	49.4087
1601.28	48.4017
1601.54	52.3483
1601.8	56.2926
1602.06	47.3651
1602.32	49.3347
1602.58	52.294
1602.84	49.3134
1603.1	54.2477
1603.36	48.3003
1603.62	43.3461
1603.88	46.3066
1604.14	53.2234
1604.4	50.2555
1604.66	50.2559
1604.92	51.2456
1605.17	51.2457
1605.43	48.28
1605.69	45.3148
1605.95	44.3292
1606.21	52.246
1606.47	49.285
1606.73	49.291
1606.99	50.2851
1607.25	49.2953
1607.51	55.1656
1607.77	51.2028
1608.03	51.1226
1608.29	46.386
1608.55	51.1832
1608.81	49.9976
1609.07	53.9187
1609.32	46.7525
1609.58	52.7908
1609.84	45.4291
1610.1	50.667
1610.36	48.5247
1610.62	48.4761
1610.88	51.1541
1611.14	46.7534
1611.4	55.5359
1611.66	51.8333
1611.92	53.5528
1612.18	49.6272
1612.44	51.0785
1612.69	48.9665
1612.95	51.6832
1613.21	47.9865
1613.47	50.545
1613.73	50.0934
1613.99	50.8124
1614.25	50.9606
1614.51	48.99
1614.77	52.6085
1615.03	46.9183
1615.29	50.96
1615.54	47.7192
1615.8	50.6326
1616.06	53.3324
1616.32	53.4329
1616.58	48.5552
1616.84	48.3019
1617.1	54.335
1617.36	48.9131
1617.62	52.3354
1617.88	51.118
1618.13	50.9889
1618.39	49.1239
1618.65	52.6103
1618.91	52.712
1619.17	50.8729
1619.43	50.8508
1619.69	50.5569
1619.95	48.1719
1620.2	52.1792
1620.46	48.8733
1620.72	50.506
1620.98	49.7333
1621.24	49.0641
1621.5	48.352
1621.76	49.5421
1622.02	48.2513
1622.27	50.7931
1622.53	54.2963
1622.79	52.8588
1623.05	52.104
1623.31	50.8872
1623.57	51.9202
1623.83	49.7184
1624.09	52.8477
1624.34	51.4084
1624.6	52.254
1624.86	54.1082
1625.12	55.0393
1625.38	51.2555
1625.64	49.122
1625.9	51.385
1626.15	53.4583
1626.41	52.6659
1626.67	52.494
1626.93	50.4465
1627.19	52.4199
1627.45	54.0295
1627.7	50.1023
1627.96	48.3465
1628.22	52.9309
1628.48	52.1553
1628.74	48.1328
1629	51.2082
1629.26	52.9131
1629.51	55.5736
1629.77	53.8479
1630.03	52.719
1630.29	53.2979
1630.55	53.4668
1630.81	52.5728
1631.06	50.8957
1631.32	52.3627
1631.53	52.4138
1631.79	48.4805
1632.05	53.4156
1632.31	54.4097
1632.57	51.4498
1632.84	53.435
1633.1	51.489
1633.36	51.4697
1633.62	49.4717
1633.88	56.3625
1634.14	49.4717
1634.4	53.4213
1634.66	50.4665
1634.93	49.4814
1635.19	51.4514
1635.45	52.4343
1635.71	58.344
1635.97	48.4834
1636.23	54.3903
1636.49	52.4123
1636.75	52.405
1637.02	52.3972
1637.28	48.4485
1637.54	45.4849
1637.8	56.3108
1638.06	53.3544
1638.32	50.3953
1638.58	48.4206
1638.84	53.3378
1639.1	46.4473
1639.37	52.3529
1639.63	55.3047
1639.89	49.3976
1640.15	50.3804
1640.41	49.3936
1640.67	51.3631
1640.93	58.2639
1641.19	54.3325
1641.46	53.3493
1641.72	54.3295
1641.98	48.4156
1642.24	52.3494
1642.5	51.3615
1642.76	54.3117
1643.02	49.3869
1643.28	56.2747
1643.54	52.3355
1643.8	50.3649
1644.06	50.3601
1644.33	53.3061
1644.59	48.3773
1644.85	53.2892
1645.11	49.3517
1645.37	51.3225
1645.63	52.3127
1645.89	52.316
1646.15	53.3001
1646.41	48.3741
1646.67	52.3031
1646.93	50.3293
1647.19	48.3578
1647.46	54.2538
1647.72	51.2966
1647.98	50.3078
1648.24	56.2065
1648.5	49.3238
1648.76	51.299
1649.02	50.3245
1649.28	51.3335
1649.54	54.2965
1649.8	55.2743
1650.06	49.3615
1650.32	54.282
1650.58	50.359
1650.85	46.4311
1651.11	49.3942
1651.37	57.285
1651.63	52.3649
1651.89	52.3671
1652.15	52.3667
1652.41	53.3516
1652.67	52.3676
1652.93	51.3763
1653.19	51.3693
1653.45	48.4101
1653.71	51.3653
1653.97	48.4111
1654.23	51.3714
1654.49	43.4904
1654.75	49.4045
1655.01	52.364
1655.27	55.3271
1655.53	52.3799
1655.8	48.4496
1656.06	52.4127
1656.32	53.4115
1656.57	53.4192
1656.84	51.4492
1657.1	55.3994
1657.36	55.3972
1657.62	52.4306
1657.88	51.4372
1658.14	57.3542
1658.4	47.4814
1658.66	52.4089
1658.92	47.4681
1659.18	55.3516
1659.44	51.3976
1659.7	51.3893
1659.96	51.3809
1660.22	43.483
1660.48	50.3867
1660.74	40.5328
1661	55.3303
1661.26	50.408
1661.52	53.3763
1661.78	51.4133
1662.04	50.4301
1662.3	52.4071
1662.56	55.3164
1662.82	52.4571
1663.08	55.478
1663.34	50.5048
1663.6	51.4866
1663.86	51.4728
1664.12	56.2955
1664.38	57.3415
1664.64	57.355
1664.9	51.4354
1665.16	49.4847
1665.42	50.4821
1665.68	54.3747
1665.94	53.337
1666.2	54.4627
1666.46	51.5073
1666.72	48.5349
1666.98	44.5168
1667.24	50.2831
1667.5	50.4311
1667.76	48.4454
1668.02	49.4235
1668.28	46.4575
1668.54	49.4086
1668.8	54.342
1669.06	47.4567
1669.32	46.4953
1669.58	48.4751
1669.84	47.4878
1670.1	46.501
1670.36	48.4708
1670.62	47.4824
1670.88	49.4828
1671.14	50.4873
1671.4	50.4814
1671.66	48.4999
1671.92	47.5087
1672.18	49.4869
1672.44	43.5596
1672.69	47.5144
1672.95	53.4445
1673.21	47.5125
1673.47	44.5475
1673.73	50.4802
1673.99	47.517
1674.25	49.4988
1674.51	47.527
1674.77	48.5212
1675.03	47.5376
1675.29	51.5034
1675.55	45.5735
1675.81	51.5145
1676.07	48.5456
1676.33	54.4819
1676.59	53.4934
1676.85	44.588
1677.11	47.5578
1677.37	53.4947
1677.63	51.5116
1677.89	54.475
1678.14	52.4876
1678.4	44.5626
1678.66	49.4974
1678.92	51.4654
1679.18	45.5251
1679.44	50.4618
1679.7	48.4797
1679.96	49.4624
1680.22	51.4333
1680.48	46.4873
1680.74	47.4699
1681	48.4524
1681.26	53.3872
1681.52	47.4563
1681.78	48.4426
1682.03	44.4897
1682.29	47.4526
1682.55	45.4764
1682.81	50.4164
1683.07	50.4135
1683.33	45.4719
1683.59	48.4342
1683.85	47.4455
1684.11	47.4434
1684.37	45.464
1684.63	51.382
1684.89	52.3645
1685.14	50.386
1685.4	41.4963
1685.66	48.4069
1685.92	52.3557
1686.18	52.3553
1686.44	46.4308
1686.7	49.3966
1686.96	52.3693
1687.22	48.4224
1687.48	51.3864
1687.73	51.3817
1687.99	46.4363
1688.25	48.4054
1688.51	48.4001
1688.77	50.3688
1689.03	47.3988
1689.29	50.3491
1689.55	44.4185
1689.81	47.37
1690.06	43.4138
1690.32	47.3485
1690.58	42.4135
1690.84	44.3954
1691.1	44.4004
1691.36	52.2971
1691.62	44.4051
1691.88	46.3828
1692.13	49.347
1692.39	48.3593
1692.65	40.4606
1692.91	44.4009
1693.17	45.3782
1693.43	53.2578
1693.69	42.3958
1693.95	43.3681
1694.2	45.3297
1694.46	51.2323
1694.72	44.3245
1694.98	49.2424
1695.24	51.2109
1695.5	45.3027
1695.76	45.3044
1696.01	45.3062
1696.27	46.2938
1696.53	48.2703
1696.79	47.2885
1697.05	41.3743
1697.31	48.2675
1697.57	46.2872
1697.82	44.3046
1698.08	46.2615
1698.34	44.2819
1698.6	53.1325
1698.86	48.202
1699.12	48.1946
1699.38	43.2705
1699.63	47.2043
1699.89	46.2221
1700.15	41.3017
1700.41	46.2217
1700.67	44.2447
1700.92	46.2095
1701.18	44.2391
1701.44	44.2358
1701.7	47.1819
1701.96	42.2561
1702.22	47.1632
1702.47	47.1539
1702.73	44.1951
1702.99	47.1343
1703.25	42.2174
1703.51	42.2154
1703.77	40.2467
1704.02	43.1895
1704.28	44.1685
1704.54	44.1717
1704.8	44.1767
1705.06	47.1253
1705.32	45.157
1705.57	46.1359
1705.83	45.1525
1706.09	42.204
1706.35	44.1614
1706.61	43.1689
1706.86	49.0498
1707.12	45.1098
1707.38	42.1533
1707.64	44.1059
1707.9	48.0173
1708.16	43.0977
1708.41	43.0832
1708.67	46.009
1708.93	42.0725
1709.19	43.0374
1709.44	43.0267
1709.7	45.9565
1709.96	52.8052
1710.22	47.9088
1710.48	46.9299
1710.73	42.0356
1710.99	43.9964
1711.25	43.0229
1711.51	45.9641
1711.77	46.9468
1712.02	44.011
1712.28	39.1134
1712.54	46.9434
1712.8	50.8458
1713.06	42.0157
1713.31	44.9316
1713.57	43.935
1713.83	46.8508
1714.09	43.9008
1714.34	39.007
1714.6	43.8855
1714.86	41.927
1715.12	41.9238
1715.38	42.8989
1715.63	48.7666
1715.89	44.8682
1716.15	41.9358
1716.41	41.9315
1716.66	38.0172
1716.92	43.8681
1717.18	43.8549
1717.44	43.8386
1717.69	42.8437
1717.95	45.7469
1718.21	38.9032
1718.47	46.682
1718.72	42.7698
1718.98	40.8119
1719.24	43.7269
1719.5	42.7516
1719.75	46.6448
1720.01	42.747
1720.27	43.7229
1720.53	44.6976
1720.78	49.5603
1721.04	44.6834
1721.3	49.5362
1721.56	46.6059
1721.81	44.6502
1722.07	44.6392
1722.33	46.5718
1722.59	43.6429
1722.84	44.6027
1723.1	45.5628
1723.36	49.4376
1723.62	50.3994
1723.87	41.6532
1724.13	47.4782
1724.39	47.4733
1724.64	46.4991
1724.9	37.7538
1725.16	42.5956
1725.42	47.4286
1725.67	44.5015
1725.93	43.5144
1726.19	45.4412
1726.45	42.5277
1726.7	40.5918
1726.96	44.4641
1727.22	43.4877
1727.47	52.1884
1727.73	41.5324
1727.99	42.5103
1728.24	43.4754
1728.5	41.5302
1728.76	44.4181
1729.02	48.2232
1729.27	41.3906
1729.53	45.2255
1729.79	43.3199
1730.05	38.5125
1730.3	42.3916
1730.56	49.1243
1730.82	44.2832
1731.07	46.2087
1731.33	42.3946
1731.59	41.4302
1731.84	41.4302
1732.1	38.5291
1732.36	43.3579
1732.61	41.4203
1732.87	42.3811
1733.13	43.3399
1733.39	45.2615
1733.64	46.2124
1733.9	42.3326
1734.16	38.455
1734.41	40.3714
1734.67	47.107
1734.93	43.2356
1735.18	48.0383
1735.44	42.2428
1735.7	41.2671
1735.95	43.1832
1736.21	41.2505
1736.47	38.3583
1736.72	38.3535
1736.98	47.0081
1737.24	45.0766
1737.49	42.1832
1737.75	48.9098
1738.01	42.1705
1738.26	42.1622
1738.52	41.1911
1738.78	42.1427
1739.03	39.2501
1739.29	39.2399
1739.55	44.9905
1739.8	39.2121
1740.06	38.2339
1740.32	44.9316
1740.57	41.0781
1740.83	40.1058
1741.09	38.1784
1741.34	41.0434
1741.6	41.9914
1741.86	41.982
1742.11	46.7621
1742.37	42.9264
1742.63	47.7102
1742.88	41.9615
1743.14	37.17
1743.4	42.91
1743.65	42.908
1743.91	40.9888
1744.16	46.7208
1744.42	38.1015
1744.68	40.0081
1744.93	42.8739
1745.19	41.9165
1745.45	49.5685
1745.7	40.9591
1745.96	41.9126
1746.22	37.1247
1746.47	39.9849
1746.73	47.621
1746.98	41.8721
1747.24	42.8169
1747.5	43.759
1747.75	39.9285
1748.01	40.873
1748.27	44.6857
1748.52	37.0475
1748.78	37.0471
1749.03	39.9116
1749.29	44.6869
1749.55	43.7365
1749.8	46.6077
1750.06	39.9302
1750.32	40.8938
1750.57	39.9471
1750.83	41.8664
1751.08	42.8249
1751.34	44.7411
1751.6	36.1374
1751.85	42.8232
1752.11	38.032
1752.36	41.8409
1752.62	42.7855
1752.88	46.5952
1753.13	37.0369
1753.39	39.8912
1753.64	43.7
1753.9	41.7835
1754.15	44.6378
1754.41	50.3498
1754.67	38.895
1754.92	41.7485
1755.18	36.9754
1755.43	47.4552
1755.69	39.824
1755.95	40.7693
1756.2	41.7125
1756.46	36.9391
1756.71	40.7372
1756.97	41.6751
1757.23	39.7577
1757.48	44.5019
1757.74	42.5932
1757.99	40.685
1758.25	48.2959
1758.5	40.6982
1758.76	40.7012
1759.02	42.6045
1759.27	44.5074
1759.53	44.5072
1759.78	43.5571
1760.04	43.5556
1760.3	39.7454
1760.55	38.7897
1760.81	44.4935
1761.06	45.4388
1761.32	36.8706
1761.57	37.8133
1761.83	44.4611
1762.08	42.5535
1762.34	41.5989
1762.6	40.6459
1762.85	42.5535
1763.11	40.6559
1763.36	35.9018
1763.62	41.6043
1763.87	43.5065
1764.13	38.7544
1764.38	36.8557
1764.64	42.5699
1764.89	42.5851
1765.15	44.4946
1765.4	42.5961
1765.66	38.7915
1765.92	35.9374
1766.17	43.5544
1766.43	41.6497
1766.68	39.7434
1766.94	40.6915
1767.19	43.5436
1767.45	40.6865
1767.7	36.8751
1767.96	44.4827
1768.21	45.4267
1768.47	38.7606
1768.73	34.951
1768.98	43.5093
1769.24	42.5396
1769.49	45.3662
1769.75	42.4923
1770	42.4769
1770.26	44.3765
1770.51	41.5369
1770.77	38.6965
1771.02	40.5966
1771.28	42.4991
1771.53	41.5594
1771.79	38.7215
1772.04	40.6275
1772.3	38.7271
1772.55	41.5861
1772.81	44.4479
1773.06	40.6483
1773.32	38.7494
1773.57	45.415
1773.83	41.6119
1774.08	42.5671
1774.34	42.5698
1774.59	43.5236
1774.85	43.5249
1775.1	42.5782
1775.36	43.5331
1775.61	39.7303
1775.87	41.6536
1776.12	41.6638
1776.38	40.7152
1776.63	38.8094
1776.89	35.9469
1777.14	36.8947
1777.4	41.6527
1777.65	41.6474
1777.91	37.8282
1778.16	44.4887
1778.42	43.5272
1778.67	40.6619
1778.93	43.5085
1779.18	43.4962
1779.44	43.4833
1779.69	45.3781
1779.95	44.4253
1780.2	43.4858
1780.46	45.3916
1780.71	34.9247
1780.97	41.5901
1781.22	43.4976
1781.47	37.7858
1781.73	41.5949
1781.98	37.7894
1782.24	39.6985
1782.49	41.6091
1782.75	47.3342
1783	42.5768
1783.26	41.6282
1783.51	43.5382
1783.77	44.4964
1784.02	46.4082
1784.28	38.7867
1784.53	38.7931
1784.79	42.6179
1785.04	46.44
1785.29	41.6726
1785.55	40.7178
1785.8	41.669
1786.06	44.5258
1786.31	40.7048
1786.57	44.5204
1786.82	47.3855
1787.08	41.6677
1787.33	43.5847
1787.58	38.823
1787.84	40.747
1788.09	40.771
1788.35	43.6654
1788.6	34.1245
1788.86	43.7108
1789.11	41.8029
1789.37	37.0239
1789.62	37.9953
1789.87	41.8374
1790.13	42.8006
1790.38	42.8055
1790.64	40.8932
1790.89	40.8929
1791.15	40.8902
1791.4	42.7971
1791.65	41.8121
1791.91	39.8923
1792.16	36.0569
1792.42	40.8451
1792.67	40.8461
1792.93	39.8898
1793.18	41.8102
1793.43	39.897
1793.69	44.6875
1793.94	41.8132
1794.2	44.6926
1794.45	43.7355
1794.7	42.7758
1794.96	42.7685
1795.21	38.9466
1795.47	40.8947
1795.72	39.9557
1795.97	39.9656
1796.23	40.9314
1796.48	39.978
1796.74	40.9454
1796.99	39.0317
1797.25	37.1174
1797.5	36.1627
1797.75	40.0125
1798.01	45.7849
1798.26	42.9052
1798.51	40.0241
1798.77	37.1412
1799.02	40.987
1799.28	36.1764
1799.53	38.0946
1799.78	43.8554
1800.04	41.9239
1800.29	43.8373
1800.55	38.0656
1800.8	39.9816
1801.05	38.0561
1801.31	37.0925
1801.56	40.9326
1801.81	40.9319
1802.07	36.1299
1802.32	39.0135
1802.58	40.938
1802.83	36.1385
1803.08	37.1049
1803.34	41.9177
1803.59	44.8104
1803.84	40.0097
1804.1	38.0893
1804.35	40.0142
1804.61	43.8662
1804.86	43.8738
1805.11	38.1078
1805.37	37.1533
1805.62	41.0128
1805.87	37.1704
1806.13	44.8832
1806.38	42.9639
1806.64	41.043
1806.89	44.9026
1807.14	39.1234
1807.4	45.8705
1807.65	33.341
1807.9	39.1231
1808.16	42.9782
1808.41	41.0506
1808.66	43.9425
1808.92	38.1597
1809.17	42.0162
1809.42	39.1252
1809.68	42.982
1809.93	36.2346
1810.18	41.056
1810.44	42.985
1810.69	38.1639
1810.94	42.0178
1811.2	42.0149
1811.45	42.0136
1811.7	46.8322
1811.96	34.2983
1812.21	42.0104
1812.46	42.0118
1812.72	37.1946
1812.97	38.1635
1813.22	40.0987
1813.48	38.1745
1813.73	42.0351
1813.98	40.1106
1814.24	41.084
1814.49	38.1983
1814.74	44.0023
1815	43.0503
1815.25	37.261
1815.5	44.9968
1815.76	38.235
1816.01	44.0352
1816.26	38.2374
1816.52	41.1385
1816.77	38.2406
1817.02	40.1761
1817.27	36.3063
1817.53	38.2334
1817.78	39.1807
1818.03	42.0639
1818.29	40.1337
1818.54	38.2082
1818.79	45.948
1819.05	40.1561
1819.3	37.2542
1819.55	42.0885
1819.8	40.1597
1820.06	38.2304
1820.31	45.0007
1820.56	43.0715
1820.82	45.9778
1821.07	40.1793
1821.32	40.1824
1821.58	41.1546
1821.83	41.1605
1822.08	41.1658
1822.33	41.1699
1822.59	41.173
1822.84	40.2072
1823.09	41.1768
1823.34	40.21
1823.6	39.2405
1823.85	38.2683
1824.1	37.2958
1824.36	43.1013
1824.61	40.2002
1824.86	40.2031
1825.11	38.2696
1825.37	41.1774
1825.62	45.0545
1825.87	37.3098
1826.12	41.1836
1826.38	38.2773
1826.63	44.0881
1826.88	38.2776
1827.14	38.2778
1827.39	44.0911
1827.64	43.1259
1827.89	44.0988
1828.15	44.1025
1828.4	43.1332
1828.65	42.1618
1828.9	41.1881
1829.16	37.3069
1829.41	43.1139
1829.66	37.3004
1829.91	41.1721
1830.17	43.1058
1830.42	41.1633
1830.67	48.9036
1830.92	39.2165
1831.18	39.2159
1831.43	41.156
1831.68	40.1925
1831.93	44.0714
1832.19	41.1704
1832.44	38.2687
1832.69	40.2112
1832.94	41.1878
1833.2	47.0085
1833.45	42.1623
1833.7	45.0705
1833.95	44.1046
1834.2	44.1059
1834.46	41.1997
1834.71	44.096
1834.96	41.1656
1835.21	44.0492
1835.47	47.8993
1835.72	41.1114
1835.97	42.0666
1836.22	43.9998
1836.48	42.0547
1836.73	41.2549
1836.98	44.1616
1837.23	40.2227
1837.48	36.3262
1837.74	42.1099
1837.99	38.2115
1838.24	40.1053
1838.49	43.9447
1838.74	41.04
1839	46.9152
1839.25	41.138
1839.5	44.0592
1839.75	36.313
1840	41.1628
1840.26	40.203
1840.51	43.0704
1840.76	44.0071
1841.01	42.0456
1841.27	39.1232
1841.52	40.0701
1841.77	42.9488
1842.02	37.1379
1842.27	43.8791
1842.53	44.8281
1842.78	44.8124
1843.03	43.8549
1843.28	39.9917
1843.53	40.9601
1843.78	39.0295
1844.04	44.8165
1844.29	44.8109
1844.54	38.0582
1844.79	38.0622
1845.04	41.9209
1845.3	44.8066
1845.55	41.914
1845.8	40.949
1846.05	44.8252
1846.3	43.8789
1846.55	40.9982
1846.81	42.9595
1847.06	37.139
1847.31	40.9427
1847.56	39.9094
1847.81	41.8205
1848.07	40.858
1848.32	40.8781
1848.57	44.7507
1848.82	38.9484
1849.07	41.8256
1849.32	44.7146
1849.57	40.8544
1849.83	42.7665
1850.08	39.866
1850.33	43.7006
1850.58	42.7218
1850.83	41.7472
1851.09	43.6572
1851.34	45.5684
1851.59	44.5984
1851.84	41.7099
1852.09	39.7842
1852.34	44.5827
1852.59	40.7406
1852.84	39.7797
1853.1	42.6595
1853.35	42.6575
1853.6	44.5742
1853.85	43.6085
1854.1	46.4787
1854.35	44.5457
1854.6	37.8153
1854.86	44.5167
1855.11	44.5089
1855.36	43.5426
1855.61	43.529
1855.86	39.6814
1856.11	43.5048
1856.36	38.7108
1856.61	43.497
1856.87	43.4963
1857.12	45.4108
1857.37	43.4925
1857.62	44.4455
1857.87	45.397
1858.12	45.3906
1858.37	44.4254
1858.63	40.5871
1858.88	41.5339
1859.13	46.3067
1859.38	42.4688
1859.63	48.1942
1859.88	42.4487
1860.13	41.4909
1860.38	41.4903
1860.63	45.3164
1860.89	36.7179
1861.14	37.68
1861.39	43.4243
1861.64	43.4318
1861.89	44.395
1862.14	46.3106
1862.39	42.4796
1862.64	41.5156
1862.9	39.5927
1863.15	43.4079
1863.4	46.2651
1863.65	46.2536
1863.9	44.3313
1864.15	40.4997
1864.4	45.2682
1864.65	45.2594
1864.9	45.2505
1865.15	46.195
1865.4	45.2277
1865.66	43.3047
1865.91	42.3354
1866.16	47.0863
1866.41	42.2996
1866.66	48.9501
1866.91	44.1666
1867.16	45.0992
1867.41	46.0314
1867.66	40.3055
1867.91	49.8025
1868.16	44.0881
1868.41	46.9344
1868.67	43.1278
1868.92	46.9304
1869.17	42.1786
1869.42	45.0295
1869.67	41.2237
1869.92	45.9733
1870.17	43.1182
1870.42	45.9667
1870.67	48.815
1870.92	47.8618
1871.17	42.1574
1871.42	47.8583
1871.67	44.0528
1871.92	44.9972
1872.17	49.7389
1872.42	42.1325
1872.68	46.8767
1872.93	44.0182
1873.18	45.9073
1873.43	51.5963
1873.68	45.8973
1873.93	41.1467
1874.18	54.4275
1874.43	49.6717
1874.68	40.1726
1874.93	46.8011
1875.18	49.6329
1875.43	45.8265
1875.68	44.865
1875.93	53.3744
1876.18	47.6627
1876.43	47.6442
1876.68	47.6287
1876.93	48.5623
1877.18	48.5545
1877.43	50.42
1877.68	49.4436
1877.93	51.2733
1878.18	42.8143
1878.44	42.9706
1878.69	51.429
1878.93	48.5663
1879.19	46.6671
1879.44	45.7641
1879.69	48.6269
1879.94	50.5055
1880.19	53.3297
1880.44	47.6455
1880.69	42.9077
1880.94	41.9697
1881.19	47.6399
1881.44	49.5302
1881.69	50.4549
1881.94	47.5914
1882.19	48.5119
1882.44	45.6503
1882.69	46.5672
1882.94	52.1955
1883.19	41.8025
1883.44	52.1406
1883.69	53.4378
1883.94	48.4793
1884.19	48.3508
1884.44	50.2388
1884.69	47.4391
1884.94	47.4128
1885.19	51.2015
1885.44	50.2841
1885.69	49.3471
1885.94	50.2964
1886.19	51.2647
1886.44	46.5545
1886.69	50.339
1886.94	53.1663
1887.19	55.031
1887.44	52.1864
1887.69	48.3991
1887.94	45.5564
1888.19	44.6007
1888.44	53.0726
1888.69	50.2234
1888.94	44.5522
1889.19	48.3044
1889.44	43.5808
1889.69	52.045
1889.94	49.2183
1890.19	51.0978
1890.44	51.1019
1890.69	48.2881
1890.94	44.5313
1891.19	51.127
1891.43	48.2987
1891.68	48.2935
1891.94	47.35
1892.18	49.2295
1892.43	44.5178
1892.68	50.1652
1892.93	48.2741
1893.18	53.911
1893.43	52.0089
1893.68	53.8597
1893.93	47.2525
1894.18	48.1858
1894.43	47.2529
1894.68	50.9935
1894.93	49.1045
1895.18	47.221
1895.43	48.1611
1895.68	47.2244
1895.93	45.3493
1896.18	46.2937
1896.43	47.239
1896.68	45.3659
1896.93	48.1948
1897.18	47.262
1897.42	45.3865
1897.68	46.3307
1897.92	44.4508
1898.17	56.6785
1898.42	47.2682
1898.67	52.9049
1898.92	45.3721
1899.17	44.4207
1899.42	49.1079
1899.67	49.0977
1899.92	50.0313
1900.17	50.9636
1900.42	48.1382
1900.67	44.3783
1900.92	41.5609
1901.16	47.2013
1901.41	44.3896
1901.66	50.0373
1901.91	47.2264
1902.16	51.9365
1902.41	48.1864
1902.66	46.3149
1902.91	49.1367
1903.16	40.6664
1903.41	52.8879
1903.66	46.298
1903.91	49.1141
1904.16	52.8711
1904.41	43.4658
1904.65	50.0449
1904.9	49.1023
1905.15	46.2785
1905.4	47.216
1905.65	46.2745
1905.9	50.0311
1906.15	43.4379
1906.4	38.7249
1906.65	46.2331
1906.9	41.5309
1907.14	49.0386
1907.39	49.9733
1907.64	44.3389
1907.89	47.1581
1908.14	47.1636
1908.39	44.3537
1908.64	47.1752
1908.89	46.2376
1909.14	38.7246
1909.39	49.0679
1909.63	50.0173
1909.88	46.2684
1910.13	52.8654
1910.38	48.1781
1910.63	51.018
1910.88	45.3844
1911.13	55.7527
1911.38	42.575
1911.62	49.1722
1911.87	46.3475
1912.12	47.2884
1912.37	42.5748
1912.62	49.1641
1912.87	43.5113
1913.12	49.1615
1913.37	44.4517
1913.61	49.162
1913.86	51.995
1914.11	44.4709
1914.36	47.3123
1914.61	45.4371
1914.86	50.1611
1915.11	49.2282
1915.36	48.2939
1915.6	48.3002
1915.85	46.4151
1916.1	44.526
1916.35	43.578
1916.6	50.1794
1916.85	47.3414
1917.1	42.6146
1917.34	51.0934
1917.59	47.3136
1917.84	50.1363
1918.09	51.0752
1918.34	48.2476
1918.59	52.9682
1918.83	49.2069
1919.08	45.4462
1919.33	44.5156
1919.58	44.5294
1919.83	48.3249
1920.08	46.4521
1920.33	47.4053
1920.57	48.3517
1920.82	49.2901
1921.07	46.4581
1921.32	44.5792
1921.57	50.2627
1921.81	41.76
1922.06	51.2219
1922.31	44.6055
1922.56	54.0626
1922.81	47.4377
1923.06	46.4841
1923.31	46.4766
1923.55	44.5807
1923.8	48.3574
1924.05	50.2424
1924.3	47.3994
1924.55	49.2799
1924.79	44.5492
1925.04	45.4915
1925.29	49.2717
1925.54	43.6081
1925.79	48.3422
1926.04	46.4657
1926.28	47.4237
1926.53	54.0568
1926.78	51.2326
1927.03	50.3018
1927.28	43.6848
1927.52	46.5314
1927.77	48.4312
1928.02	50.3309
1928.27	43.7056
1928.52	48.4463
1928.76	48.4491
1929.01	44.6647
1929.26	50.3558
1929.51	47.5199
1929.76	48.4778
1930	46.5958
1930.25	45.6585
1930.5	47.5696
1930.75	50.4279
1931	44.7448
1931.24	49.4947
1931.49	48.5459
1931.74	46.6427
1931.99	45.6866
1932.24	45.6796
1932.48	47.5705
1932.73	46.6142
1932.98	44.7087
1933.23	41.8598
1933.47	44.6991
1933.72	51.3418
1933.97	45.6625
1934.22	41.8867
1934.46	46.6638
1934.71	43.8523
1934.96	46.7446
1935.21	43.9218
1935.46	45.8543
1935.7	45.8764
1935.95	46.8451
1936.2	48.7194
1936.45	47.7607
1936.69	43.9448
1936.94	46.7971
1937.19	49.6448
1937.44	45.8219
1937.68	47.7162
1937.93	47.7053
1938.18	42.9363
1938.43	48.6369
1938.68	43.8773
1938.92	45.796
1939.17	43.8965
1939.42	38.1888
1939.67	44.8619
1939.91	42.9618
1940.16	46.7794
1940.41	47.7334
1940.66	51.5567
1940.9	46.8023
1941.15	45.879
1941.4	45.8961
1941.64	45.8954
1941.89	41.1178
1942.14	44.9176
1942.39	45.8429
1942.63	43.9518
1942.88	48.7697
1943.13	45.9161
1943.38	45.9173
1943.62	44.9433
1943.87	52.5547
1944.12	45.8595
1944.37	43.9795
1944.61	46.8521
1944.86	47.8161
1945.11	44.0065
1945.35	46.8825
1945.6	44.9826
1945.85	44.9931
1946.1	42.1347
1946.34	44.0542
1946.59	43.104
1946.84	49.8028
1947.09	42.1537
1947.33	43.1085
1947.58	47.8857
1947.83	45.0113
1948.07	41.1846
1948.32	47.877
1948.57	48.8321
1948.82	44.0467
1949.06	46.9168
1949.31	45.0119
1949.56	51.7164
1949.8	45.0294
1950.05	48.8684
1950.3	45.0516
1950.54	39.3239
1950.79	42.2159
1951.04	43.1889
1951.29	45.1229
1951.53	45.141
1951.78	44.1982
1952.03	45.171
1952.27	41.3389
1952.52	43.2651
1952.77	45.1923
1953.01	43.2691
1953.26	46.1581
1953.51	44.2476
1953.76	45.195
1954	49.978
1954.25	44.1873
1954.49	43.2025
1954.74	50.847
1954.99	43.1579
1955.24	40.277
1955.48	46.0225
1955.73	44.1112
1955.98	45.081
1956.22	47.9763
1956.47	46.091
1956.72	47.0632
1956.96	43.2379
1957.21	45.1652
1957.46	49.9775
1957.7	46.1449
1957.95	44.2314
1958.2	44.2372
1958.44	44.2411
1958.69	42.3213
1958.94	39.4392
1959.18	40.3964
1959.43	43.2705
1959.68	50.9523
1959.92	46.1455
1960.17	46.1376
1960.42	45.169
1960.66	43.2406
1960.91	46.1131
1961.16	44.1835
1961.4	37.4557
1961.65	41.2881
1961.9	43.2024
1962.14	46.0821
1962.39	46.0841
1962.63	45.1255
1962.88	45.1268
1963.13	41.2885
1963.37	48.9688
1963.62	44.1701
1963.87	42.251
1964.11	46.0926
1964.36	39.3766
1964.61	44.1816
1964.85	40.339
1965.1	47.0564
1965.35	39.375
1965.59	42.2533
1965.84	38.4127
1966.08	43.2174
1966.33	47.0671
1966.58	44.195
1966.82	41.3215
1967.07	42.2884
1967.32	46.1381
1967.56	44.2136
1967.81	47.0968
1968.05	44.2165
1968.3	43.2562
1968.55	41.3347
1968.79	42.2945
1969.04	44.2124
1969.29	48.0482
1969.53	46.1138
1969.78	44.1771
1970.02	39.3607
1970.27	37.4296
1970.52	47.0193
1970.76	44.1327
1971.01	48.9219
1971.25	42.1979
1971.5	39.3144
1971.75	43.1466
1971.99	45.0607
1972.24	44.1041
1972.48	40.2705
1972.73	39.3126
1972.98	45.0675
1973.22	46.022
1973.47	40.2589
1973.71	42.1669
1973.96	45.9932
1974.21	43.1105
1974.45	40.2304
1974.7	43.1036
1974.94	42.1445
1975.19	45.9795
1975.44	43.1068
1975.68	45.0292
1975.93	42.1588
1976.17	45.0409
1976.42	41.2084
1976.66	46.9656
1976.91	47.9259
1977.16	43.1292
1977.4	43.1271
1977.65	44.0826
1977.89	45.0359
1978.14	46.9459
1978.39	43.1024
1978.63	38.3025
1978.88	47.8829
1979.12	43.0867
1979.37	45.0028
1979.61	41.1695
1979.86	45.0031
1980.1	41.17
1980.35	38.2942
1980.6	39.2482
1980.84	44.0319
1981.09	46.8982
1981.33	45.9353
1981.58	39.2222
1981.82	45.9221
1982.07	46.876
1982.31	43.0425
1982.56	41.1246
1982.81	46.8627
1983.05	47.8114
1983.3	43.0134
1983.54	41.086
1983.79	47.7731
1984.03	43.9411
1984.28	49.6765
1984.52	43.9321
1984.77	47.7522
1985.02	46.791
1985.26	47.7385
1985.51	42.9457
1985.75	42.9395
1986	43.8947
1986.24	45.8084
1986.49	43.9022
1986.73	45.8212
1986.98	46.7806
1987.22	43.9095
1987.47	40.087
1987.71	41.0354
1987.96	44.8458
1988.21	42.9188
1988.45	42.9017
1988.7	43.8365
1988.94	45.699
1989.19	42.8617
1989.43	37.2457
1989.68	50.1874
1989.92	40.1024
1990.17	46.4647
1990.41	43.7548
1990.66	39.2016
1990.9	44.5428
1991.15	40.3432
1991.39	46.3901
1991.64	42.6465
1991.88	43.0033
1992.13	48.1549
1992.37	45.8415
1992.62	39.5515
1992.86	45.5762
1993.11	42.7142
1993.35	45.3757
1993.6	43.2548
1993.84	48.3372
1994.09	43.4288
1994.33	43.2287
1994.58	46.3459
1994.82	45.867
1995.07	47.0032
1995.31	45.0777
1995.56	44.587
1995.8	44.5496
1996.05	42.5773
1996.29	47.8641
1996.54	46.8591
1996.78	41.4176
1997.03	44.9511
1997.27	36.4246
1997.52	44.8851
1997.76	43.0726
1998.01	45.2077
1998.25	44.7969
1998.5	45.7546
1998.74	47.0966
1998.99	46.37
1999.23	44.2363
1999.48	46.9658
1999.72	42.3988
1999.97	43.0208
2000.21	42.8813
2000.46	45.7966
2000.7	44.5168
2000.95	43.7277
2001.19	42.3242
2001.43	44.5497
2001.68	43.1957
2001.92	41.5249
2002.17	43.8905
2002.41	44.4592
2002.66	43.1223
2002.9	43.4195
2003.15	42.8553
2003.39	44.5874
2003.64	43.5244
2003.88	44.6062
2004.13	45.1494
2004.37	46.0674
2004.61	46.6529
2004.86	45.0791
2005.1	44.7281
2005.35	41.6525
2005.59	45.4465
2005.84	43.6581
2006.08	42.1582
2006.33	46.7404
2006.57	45.5148
2006.81	48.8006
2007.06	45.0531
2007.3	45.9958
2007.55	48.5926
2007.79	45.766
2008.04	43.8631
2008.28	41.5961
2008.53	43.2558
2008.77	45.2335
2009.01	44.7247
2009.26	44.4885
2009.5	45.3818
2009.75	44.7703
2009.99	47.6974
2010.24	45.3885
2010.48	44.4292
2010.73	43.2156
2010.97	46.4473
2011.21	45.412
2011.46	44.4223
2011.7	42.8396
2011.95	42.7783
2012.19	44.6608
2012.43	48.3243
2012.68	46.4366
2012.92	43.6081
2013.17	47.3641
2013.42	44.5241
2013.67	46.3826
2013.91	46.3689
2014.16	48.2313
2014.41	46.3306
2014.66	44.4278
2014.9	44.4067
2015.15	39.7083
2015.4	41.5866
2015.64	41.5918
2015.89	46.2925
2016.14	49.1143
2016.39	43.4758
2016.63	47.2426
2016.88	40.6987
2017.13	47.2834
2017.37	46.3403
2017.62	43.5137
2017.87	44.4426
2018.11	47.2462
2018.36	43.4723
2018.61	40.6386
2018.86	46.2519
2019.1	43.4214
2019.35	42.4663
2019.6	45.2615
2019.84	44.3156
2020.09	46.1823
2020.34	43.3684
2020.58	45.2403
2020.83	48.0474
2021.08	47.1085
2021.33	43.3644
2021.57	48.9866
2021.82	42.4299
2022.07	42.4275
2022.31	41.4866
2022.56	45.2259
2022.81	46.1531
2023.05	45.2055
2023.3	46.128
2023.55	45.1822
2023.8	43.3012
2024.04	46.0967
2024.29	46.0862
2024.54	47.9463
2024.78	44.1925
2025.03	46.045
2025.27	45.0955
2025.52	46.0144
2025.77	42.2676
2026.02	46.9204
2026.26	44.1057
2026.51	45.975
2026.76	41.3264
2027	42.2857
2027.25	46.055
2027.5	41.4181
2027.74	41.4397
2027.99	40.4982
2028.23	45.1471
2028.48	46.0392
2028.73	45.9136
2028.98	48.8374
2029.22	49.0159
2029.47	39.5612
2029.72	51.7722
2029.96	44.2026
2030.21	48.8231
2030.45	44.1035
2030.7	39.4371
2030.95	44.0642
2031.19	41.298
2031.44	42.2552
2031.69	43.1814
2031.93	45.0474
2032.18	44.1152
2032.43	46.9277
2032.67	42.2744
2032.92	47.8936
2033.17	47.909
2033.41	45.1172
2033.66	46.0609
2033.91	46.0741
2034.15	45.1451
2034.4	49.7948
2034.64	44.1563
2034.89	43.1778
2035.14	45.9648
2035.38	44.1174
2035.63	45.9993
2035.87	45.0909
2036.12	46.9929
2036.37	49.8226
2036.61	49.82
2036.86	46.0545
2037.11	46.0555
2037.35	43.261
2037.6	48.8705
2037.84	44.1927
2038.09	43.253
2038.34	46.0516
2038.58	47.914
2038.83	46.0371
2039.08	49.7667
2039.32	46.0215
2039.57	45.0791
2039.81	46.0048
2040.06	51.5964
2040.31	45.0473
2040.55	45.9677
2040.8	38.492
2041.04	48.7419
2041.29	45.0014
2041.54	45.9255
2041.78	47.7858
2042.03	43.1214
2042.27	47.7755
2042.52	46.8374
2042.77	44.9636
2043.01	44.0279
2043.26	46.8224
2043.5	44.0308
2043.75	44.9743
2044	48.7216
2044.24	43.1446
2044.49	45.0168
2044.73	40.3495
2044.98	44.0703
2045.23	45.9145
2045.47	44.0103
2045.72	46.8616
2045.96	45.9428
2046.21	45.0736
2046.45	39.532
2046.7	44.1728
2046.95	48.8002
2047.19	40.3634
2047.44	41.2981
2047.68	43.1517
2047.93	44.9816
2048.17	46.836
2048.42	49.6343
2048.67	43.1104
2048.91	45.9099
2049.16	47.7791
2049.4	44.0604
2049.65	40.3378
2049.89	42.2153
2050.14	42.2304
2050.39	45.0428
2050.63	44.1211
2050.88	44.1278
2051.12	41.3269
2051.37	44.1265
2051.61	44.1171
2051.86	45.9712
2052.11	42.2355
2052.35	47.8385
2052.6	45.0438
2052.84	45.0454
2053.09	46.9185
2053.33	47.8599
2053.58	49.7379
2053.82	49.7504
2054.07	42.2929
2054.31	49.7828
2054.56	47.9183
2054.8	51.6614
2055.05	41.37
2055.3	47.9152
2055.54	44.1701
2055.79	49.7698
2056.03	46.9588
2056.28	48.8261
2056.52	46.0164
2056.77	49.7502
2057.01	50.6813
2057.26	40.3988
2057.5	43.2046
2057.75	39.4683
2058	44.1476
2058.24	45.0891
2058.49	45.0956
2058.73	44.1709
2058.98	47.9234
2059.22	44.1895
2059.47	46.0681
2059.71	43.2623
2059.96	45.1367
2060.2	47.9459
2060.45	47.9395
2060.69	46.06
2060.94	46.0547
2061.18	44.1879
2061.43	43.2578
2061.67	46.0705
2061.92	47.0085
2062.16	47.0092
2062.41	45.1379
2062.65	43.268
2062.9	50.7642
2063.14	47.0246
2063.39	42.3487
2063.63	44.2294
2063.88	47.0463
2064.12	47.9884
2064.37	45.1803
2064.61	46.121
2064.86	46.1261
2065.1	45.1949
2065.35	47.0809
2065.59	48.033
2065.84	42.4155
2066.08	43.3641
2066.33	46.189
2066.57	38.6831
2066.82	49.0138
2067.06	48.0796
2067.31	43.3885
2067.55	49.9674
2067.8	49.9737
2068.04	47.1628
2068.29	47.169
2068.53	50.9332
2068.78	46.2363
2069.02	46.2429
2069.27	40.6026
2069.51	44.3562
2069.76	49.9813
2070	47.1413
2070.25	48.0721
2070.49	45.2586
2070.73	42.4584
2070.98	48.1201
2071.22	47.2042
2071.47	48.141
2071.71	45.3055
2071.96	50.064
2072.2	44.4336
2072.45	44.43
2072.69	46.3097
2072.94	49.1327
2073.18	49.128
2073.43	47.2446
2073.67	47.2417
2073.92	41.5943
2074.16	48.1862
2074.4	46.3055
2074.65	44.4269
2074.89	44.4349
2075.14	48.2151
2075.38	48.2315
2075.63	43.538
2075.87	46.3911
2076.12	41.6886
2076.36	49.2478
2076.6	47.3607
2076.85	52.0827
2077.09	45.469
2077.34	45.4593
2077.58	44.505
2077.83	49.1996
2078.07	44.4786
2078.31	52.0286
2078.56	46.3796
2078.8	45.44
2079.05	52.0482
2079.29	43.5626
2079.54	46.4043
2079.78	49.2588
2080.03	43.6013
2080.27	48.332
2080.51	42.6703
2080.76	41.7306
2081	44.5658
2081.25	47.3956
2081.49	42.6677
2081.74	46.4453
2081.98	46.4445
2082.22	46.4424
2082.47	45.5008
2082.71	47.3938
2082.96	49.2862
2083.2	42.6717
2083.45	44.5606
2083.69	46.4484
2083.93	49.2809
2084.18	48.3357
2084.42	47.3911
2084.67	49.2801
2084.91	47.3906
2085.15	45.5018
2085.4	53.0619
2085.64	51.1714
2085.89	45.5012
2086.13	44.5589
2086.37	52.1328
2086.62	51.2036
2086.86	44.594
2087.11	46.4901
2087.35	44.6032
2087.59	49.3416
2087.84	45.5607
2088.08	41.7752
2088.32	42.7219
2088.57	48.4012
2088.81	43.6708
2089.06	44.6193
2089.3	43.6745
2089.54	45.5744
2089.79	49.3694
2090.03	45.5936
2090.28	45.5976
2090.52	38.9685
2090.76	48.4447
2091.01	49.3964
2091.25	47.5063
2091.5	44.6683
2091.74	49.4116
2091.98	46.58
2092.23	46.5933
2092.47	40.9161
2092.72	45.6737
2092.96	46.6386
2093.2	46.6509
2093.45	47.6121
2093.69	48.574
2093.93	47.6353
2094.18	45.7439
2094.42	45.7522
2094.66	47.656
2094.91	46.7049
2095.15	45.7516
2095.39	43.8466
2095.64	46.6903
2095.88	53.3335
2096.13	50.475
2096.37	46.6686
2096.61	42.8647
2096.86	49.5126
2097.1	43.8106
2097.34	45.7039
2097.59	50.4425
2097.83	39.9883
2098.07	50.4275
2098.32	47.5765
2098.56	51.3708
2098.8	44.7192
2099.05	48.5154
2099.29	48.5138
2099.53	47.5615
2099.78	44.712
2100.02	50.4048
2100.27	44.7108
2100.51	50.4061
2100.75	49.4594
2101	44.7181
2101.24	44.7287
2101.48	48.5356
2101.73	48.5414
2101.97	44.7448
2102.21	47.5939
2102.45	49.492
2102.7	45.6927
2102.94	44.7399
2103.18	50.4299
2103.43	48.5203
2103.67	44.7173
2103.92	43.7664
2104.16	48.5097
2104.4	41.8655
2104.64	54.21
2104.89	46.6222
2105.13	48.5281
2105.37	51.3839
2105.62	51.3926
2105.86	48.5534
2106.1	53.3142
2106.35	47.617
2106.59	47.6214
2106.83	50.4754
2107.08	46.6746
2107.32	47.6294
2107.56	44.7782
2107.8	43.8222
2108.05	47.6154
2108.29	44.752
2108.53	50.4393
2108.78	45.6765
2109.02	43.7673
2109.26	47.5612
2109.51	49.4619
2109.75	49.4743
2109.99	49.484
2110.23	44.7343
2110.48	46.6341
2110.72	43.7837
2110.96	49.4831
2111.21	44.7329
2111.45	47.582
2111.69	49.4782
2111.93	48.5212
2112.18	50.4152
2112.42	47.5629
2112.66	44.7134
2112.91	51.3656
2113.15	47.5712
2113.39	47.5765
2113.63	48.5381
2113.88	40.9445
2114.12	45.7006
2114.36	47.5984
2114.61	48.5441
2114.85	49.4931
2115.09	39.9912
2115.33	45.6942
2115.58	50.4431
2115.82	49.4881
2116.06	44.7328
2116.31	51.3796
2116.55	48.519
2116.79	49.459
2117.03	45.6554
2117.28	42.8038
2117.52	49.4487
2117.76	54.1985
2118	42.7982
2118.25	45.6392
2118.49	46.5805
2118.73	51.3126
2118.97	46.5536
2119.22	49.388
2119.46	44.6357
2119.7	47.4702
2119.94	52.1994
2120.19	49.3463
2120.43	49.3388
2120.67	46.4932
2120.91	42.7039
2121.16	55.031
2121.4	45.5576
2121.64	40.8273
2121.88	44.63
2122.13	47.485
2122.37	47.4945
2122.61	48.4519
2122.85	46.5609
2123.1	51.3126
2123.34	45.6226
2123.58	47.5247
2123.82	43.7286
2124.07	46.5727
2124.31	50.364
2124.55	47.5078
2124.79	45.5975
2125.03	47.4759
2125.28	45.5568
2125.52	48.3789
2125.76	47.4146
2126	48.3466
2126.25	42.6521
2126.49	44.5334
2126.73	49.2546
2126.97	46.4058
2127.21	49.2327
2127.46	50.1676
2127.7	46.3807
2127.94	46.3779
2128.18	50.1563
2128.43	51.0959
2128.67	51.0922
2128.91	44.4752
2129.15	44.475
2129.39	44.4728
2129.64	51.0849
2129.88	48.2457
2130.12	45.408
2130.36	52.9655
2130.6	46.3472
2130.85	48.233
2131.09	47.2831
2131.33	46.3322
2131.57	47.2695
2131.81	51.0392
2132.06	45.366
2132.3	45.3611
2132.54	49.1318
2132.78	45.3462
2133.02	46.2811
2133.27	49.1071
2133.51	49.106
2133.75	46.2767
2133.99	50.9965
2134.23	48.1655
2134.48	50.9985
2134.72	46.2809
2134.96	47.223
2135.2	47.2212
2135.44	52.8816
2135.68	50.0476
2135.93	46.2679
2136.17	49.0897
2136.41	42.4725
2136.65	50.0019
2136.89	42.4526
2137.14	45.2822
2137.38	52.8259
2137.62	48.1126
2137.86	53.7748
2138.1	45.2981
2138.34	49.0664
2138.59	52.823
2138.83	47.156
2139.07	48.107
2139.31	47.1791
2139.55	45.3032
2139.79	51.8798
2140.03	49.0323
2140.28	50.9079
2140.52	49.9576
2140.76	42.4146
2141	49.945
2141.24	48.0569
2141.49	47.1109
2141.73	49.9365
2141.97	50.8675
2142.21	51.797
2142.45	45.203
2142.69	49.9091
2142.93	52.7429
2143.18	54.6341
2143.42	49.024
2143.66	45.2359
2143.9	47.0014
2144.14	50.7594
2144.38	47.0091
2144.62	51.7261
2144.87	45.16
2145.11	47.05
2145.35	46.0823
2145.59	46.0858
2145.83	47.0278
2146.07	44.204
2146.31	48.9006
2146.55	45.1357
2146.8	47.9516
2147.04	44.1876
2147.28	46.0624
2147.52	49.8143
2147.76	46.0489
2148	46.0427
2148.24	49.7949
2148.48	52.6064
2148.73	41.3301
2148.97	41.3243
2149.21	46.9507
2149.45	43.1859
2149.69	44.1136
2149.93	48.785
2150.17	47.8355
2150.42	47.8219
2150.66	44.9996
2150.9	41.2454
2151.14	43.1187
2151.38	44.9967
2151.62	43.1287
2151.86	52.509
2152.1	45.0146
2152.34	49.7065
2152.58	50.6512
2152.83	49.7053
2153.07	49.6979
2153.31	43.1255
2153.55	50.6169
2153.79	45.9257
2154.03	50.6071
2154.27	44.9758
2154.51	48.7115
2154.75	46.8214
2154.99	44.9288
2155.24	50.5248
2155.48	47.6956
2155.72	47.6799
2155.96	44.8611
2156.2	47.6526
2156.44	46.7087
2156.68	53.2428
2156.92	45.7667
2157.16	46.6992
2157.4	45.7648
2157.64	46.702
2157.89	48.5768
2158.13	45.7818
2158.37	48.5928
2158.61	45.7903
2158.85	48.5937
2159.09	49.5258
2159.33	50.4556
2159.57	42.0385
2159.81	46.7028
2160.05	49.4953
2160.29	45.7471
2160.53	43.8677
2160.77	49.4584
2161.01	49.4482
2161.25	48.5091
2161.5	46.6398
2161.74	43.8358
2161.98	45.6971
2162.22	46.6279
2162.46	49.4261
2162.7	44.7612
2162.94	46.6258
2163.18	45.6885
2163.42	42.8838
2163.66	47.5417
2163.9	48.4688
2164.14	53.1251
2164.38	43.7954
2164.62	44.7176
2164.86	44.7054
2165.11	54.0146
2165.35	46.5625
2165.59	50.294
2165.83	47.4987
2166.07	47.499
2166.31	42.8397
2166.55	49.3566
2166.79	48.4191
2167.03	41.8908
2167.27	55.8519
2167.51	45.6
2167.75	44.658
2167.99	38.1293
2168.23	45.5522
2168.47	46.4613
2168.71	51.1019
2168.95	45.5223
2169.19	48.3136
2169.43	49.2495
2169.67	43.679
2169.91	45.5515
2170.15	49.2894
2170.39	51.1702
2170.63	49.3189
2170.87	47.4602
2171.11	39.0754
2171.35	49.3088
2171.59	46.511
2171.83	44.6306
2172.07	46.4587
2172.31	44.5818
2172.56	49.2199
2172.79	44.5647
2173.04	44.5582
2173.28	52.9183
2173.51	48.2716
2173.76	49.1996
2174	51.9902
2174.24	48.2794
2174.48	45.4955
2174.72	45.4971
2174.96	43.6385
2175.2	48.2848
2175.44	49.2128
2175.68	48.2799
2175.92	50.1349
2176.16	48.2742
2176.4	48.2713
2176.64	46.4086
2176.88	45.4718
2177.12	41.7529
2177.36	45.4682
2177.6	44.54
2177.84	44.5404
2178.08	48.2548
2178.32	44.5403
2178.55	46.3934
2178.8	46.3804
2179.03	50.0845
2179.28	47.2975
2179.52	50.0846
2179.75	50.085
2180	47.2996
2180.23	44.5134
2180.47	45.4412
2180.71	44.511
2180.95	46.3645
2181.19	44.5044
2181.43	49.1444
2181.67	50.9975
2181.91	45.4219
2182.15	41.7041
2182.39	44.4855
2182.63	43.5514
2182.87	47.258
2183.11	44.4699
2183.35	51.8812
2183.59	49.087
2183.83	48.1452
2184.07	48.1345
2184.31	47.1998
2184.55	47.1924
2184.79	48.1164
2185.03	47.191
2185.27	45.3419
2185.51	41.6379
2185.75	50.909
2185.99	45.3533
2186.23	41.6521
2186.47	45.3683
2186.7	48.1583
2186.95	46.3162
2187.18	43.5458
2187.42	50.9845
2187.66	46.3563
2187.9	44.5084
2188.14	46.3681
2188.38	46.3628
2188.62	49.14
2188.86	44.4882
2189.1	48.1909
2189.34	50.0348
2189.58	46.3098
2189.82	50.9311
2190.06	48.1352
2190.3	42.5663
2190.54	50.9069
2190.78	46.2727
2191.01	48.1304
2191.25	48.134
2191.49	41.6435
2191.73	46.2817
2191.97	45.3579
2192.21	44.4342
2192.45	43.5103
2192.69	49.0788
2192.93	47.2276
2193.17	48.163
2193.41	43.5312
2193.65	44.4661
2193.89	48.1891
2194.13	51.9244
2194.36	46.3741
2194.6	47.3183
2194.84	51.0452
2195.08	50.1124
2195.32	47.3175
2195.56	49.1712
2195.8	47.3045
2196.04	44.5067
2196.28	47.2801
2196.52	48.1918
2196.76	51.8887
2197	44.4517
2197.23	46.2984
2197.47	42.5796
2197.71	45.3554
2197.95	47.2103
2198.19	44.4287
2198.43	49.0714
2198.67	44.4434
2198.91	50.9512
2199.15	48.1809
2199.38	46.3398
2199.62	50.069
2199.86	44.5094
2200.1	43.5941
2200.34	51.0556
2200.58	47.3603
2200.82	51.1062
2201.06	48.3325
2201.3	45.5514
2201.54	53.9499
2201.77	43.68
2202.01	50.1491
2202.25	46.3277
2202.49	51.8245
2202.73	49.0737
2202.97	46.3702
2203.21	50.1273
2203.45	49.1827
2203.68	45.453
2203.92	50.1453
2204.16	49.3733
2204.4	44.6497
2204.64	51.1728
2204.88	49.316
2205.12	46.486
2205.36	46.4442
2205.59	43.6159
2205.83	45.4509
2206.07	51.9515
2206.31	47.3037
2206.55	47.3143
2206.79	49.1755
2207.03	51.0162
2207.26	48.2299
2207.5	47.3069
2207.74	47.3154
2207.98	46.3947
2208.22	48.2653
2208.46	49.206
2208.7	49.2157
2208.93	39.9143
2209.17	48.3
2209.41	49.236
2209.65	52.0327
2209.89	47.3762
2210.13	49.237
2210.36	51.1012
2210.6	46.4502
2210.84	49.2514
2211.08	50.1908
2211.32	49.2667
2211.56	48.3419
2211.8	47.4176
2212.03	50.2249
2212.27	47.4375
2212.51	51.1755
2212.75	47.4477
2212.99	47.4441
2213.23	46.5063
2213.46	46.5015
2213.7	47.4263
2213.94	50.2145
2214.18	50.217
2214.42	46.4965
2214.66	49.3143
2214.89	45.5998
2215.13	48.4048
2215.37	50.2757
2215.61	47.478
2215.85	49.3472
2216.08	53.0828
2216.32	49.3481
2216.56	47.4798
2216.8	50.2792
2217.04	46.5422
2217.28	46.54
2217.51	45.6061
2217.75	47.4747
2217.99	51.2113
2218.23	47.4762
2218.47	43.7408
2218.7	46.5435
2218.94	49.3492
2219.18	49.3559
2219.42	47.4962
2219.66	50.3077
2219.9	48.4442
2220.13	51.2536
2220.37	47.52
2220.61	51.257
2220.85	48.4508
2221.09	52.1869
2221.32	50.3125
2221.56	52.1687
2221.8	51.2204
2222.04	45.6062
2222.27	44.6636
2222.51	48.3916
2222.75	46.523
2222.99	45.5926
2223.23	45.5989
2223.46	47.473
2223.7	48.4148
2223.94	47.4919
2224.18	46.5711
2224.42	46.5852
2224.65	44.7282
2224.89	44.7391
2225.13	48.4908
2225.37	41.9509
2225.6	45.7049
2225.84	46.654
2226.08	52.283
2226.32	47.6104
2226.56	53.2418
2226.79	48.5647
2227.03	43.8887
2227.27	44.8344
2227.51	48.5917
2227.74	49.535
2227.98	49.5381
2228.22	50.4744
2228.46	46.7195
2228.69	44.8406
2228.93	46.7124
2229.17	50.4597
2229.41	49.5193
2229.64	52.3314
2229.88	47.6518
2230.12	48.602
2230.36	46.7373
2230.6	49.5604
2230.83	53.3237
2231.07	44.8861
2231.31	46.7733
2231.55	45.8448
2231.78	46.7951
2232.02	46.804
2232.26	45.8734
2232.5	46.8221
2232.73	44.9509
2232.97	48.7202
2233.21	53.4317
2233.45	44.9751
2233.68	53.4508
2233.92	48.7555
2234.16	45.9387
2234.39	51.5914
2234.63	50.6471
2234.87	47.8192
2235.11	46.8722
2235.34	47.8044
2235.58	48.7277
2235.82	44.0134
2236.06	43.0737
2236.29	47.7773
2236.53	47.7797
2236.77	48.7227
2237	47.7839
2237.24	43.0831
2237.48	50.6199
2237.72	48.7483
2237.95	52.5325
2238.19	51.6125
2238.43	49.7477
2238.67	46.9339
2238.9	52.6024
2239.14	44.131
2239.38	52.6372
2239.61	52.6406
2239.85	46.0323
2240.09	47.9123
2240.33	52.6136
2240.56	52.6006
2240.8	54.4795
2241.04	44.1289
2241.27	47.9192
2241.51	50.7525
2241.75	46.9814
2241.99	49.8158
2242.22	51.7062
2242.46	52.6544
2242.7	46.9965
2242.93	44.17
2243.17	47.947
2243.41	51.721
2243.64	49.8261
2243.88	44.1557
2244.12	47.9269
2244.36	47.9253
2244.59	42.2643
2244.83	50.7654
2245.07	46.0593
2245.3	49.8561
2245.54	54.5988
2245.78	47.0503
2246.01	53.6767
2246.25	49.9058
2246.49	48.97
2246.72	48.9782
2246.96	48.0369
2247.2	48.044
2247.43	50.89
2247.67	45.2165
2247.91	43.3254
2248.14	49.0034
2248.38	45.2149
2248.62	46.1583
2248.85	46.1552
2249.09	49.9374
2249.33	48.042
2249.56	45.2013
2249.8	42.3698
2250.04	43.3213
2250.27	48.0529
2250.51	47.1003
2250.75	50.8756
2250.98	53.7029
2251.22	46.1237
2251.46	48.9518
2251.69	51.781
2251.93	48.9417
2252.17	48.9433
2252.4	50.8396
2252.64	48.0102
2252.88	40.4523
2253.11	50.8736
2253.35	48.0607
2253.59	45.2375
2253.82	51.8827
2254.06	49.9996
2254.3	50.9565
2254.53	50.9662
2254.77	46.2321
2255.01	46.2328
2255.24	50.9686
2255.48	50.9709
2255.72	49.0747
2255.95	48.1281
2256.19	48.13
2256.42	50.9833
2256.66	48.1469
2256.9	49.1039
2257.13	52.9075
2257.37	48.1707
2257.61	47.2291
2257.84	46.2868
2258.08	42.4935
2258.32	47.2438
2258.55	49.1449
2258.79	49.148
2259.02	48.2027
2259.26	50.1093
2259.5	47.2664
2259.73	51.0716
2259.97	47.2745
2260.2	50.1311
2260.44	50.1362
2260.68	51.0916
2260.91	48.2441
2261.15	53.0058
2261.39	47.3154
2261.62	48.2767
2261.86	51.1332
2262.1	45.427
2262.33	53.0434
2262.57	49.2411
2262.8	51.1516
2263.04	53.0663
2263.28	49.269
2263.51	45.4718
2263.75	49.297
2263.98	47.4078
2264.22	48.3799
2264.46	51.2599
2264.69	54.1404
2264.93	46.5196
2265.16	44.6211
2265.4	51.3152
2265.64	49.4138
2265.87	49.4153
2266.11	46.5514
2266.34	48.4579
2266.58	50.357
2266.81	46.5258
2267.05	51.2868
2267.29	47.4579
2267.52	54.1291
2267.76	43.6264
2267.99	56.9738
2268.23	50.2852
2268.47	51.2299
2268.7	46.4592
2268.94	50.2746
2269.17	49.3277
2269.41	48.3842
2269.65	50.3052
2269.88	48.4106
2270.12	49.3796
2270.35	43.6664
2270.59	47.5015
2270.82	46.5549
2271.06	51.339
2271.3	46.5706
2271.53	49.447
2271.77	50.4094
2272	41.8092
2272.24	52.3389
2272.47	50.4309
2272.71	46.6051
2272.95	49.4773
2273.18	50.4366
2273.42	52.3531
2273.65	50.4419
2273.89	44.7027
2274.12	48.533
2274.36	46.6212
2274.6	50.4517
2274.83	44.7111
2275.07	41.8416
2275.3	47.5883
2275.54	53.3351
2275.77	52.381
2276.01	48.5494
2276.24	49.5141
2276.48	49.5258
2276.72	49.538
2276.95	48.5905
2277.18	49.5587
2277.42	49.5697
2277.66	46.7088
2277.89	50.5638
2278.13	53.463
2278.36	45.8041
2278.6	47.7316
2278.83	46.7745
2279.07	47.7354
2279.3	49.6542
2279.54	49.6508
2279.78	45.8008
2280.01	47.6995
2280.24	48.6448
2280.48	46.7129
2280.72	49.5789
2280.95	48.6101
2281.19	51.479
2281.42	48.5978
2281.66	50.5084
2281.89	51.4619
2282.13	48.5918
2282.36	49.5537
2282.6	45.7257
2282.83	46.6935
2283.07	52.4595
2283.3	51.5121
2283.54	46.7282
2283.77	49.6268
2284.01	49.6499
2284.24	44.866
2284.48	49.6942
2284.71	44.8989
2284.95	52.5985
2285.19	47.8004
2285.42	44.9242
2285.65	51.6639
2285.89	49.7405
2286.12	47.8052
2286.36	47.7869
2286.59	44.8997
2286.83	53.5598
2287.06	45.8721
2287.3	46.856
2287.54	48.8
2287.77	47.8441
2288	51.7019
2288.24	49.7891
2288.47	48.8219
2288.71	47.8511
2288.94	47.8437
2289.18	47.8348
2289.41	48.7826
2289.65	50.6886
2289.88	51.6329
2290.12	51.6112
2290.35	57.3721
2290.59	46.7915
2290.82	52.5595
2291.06	52.5605
2291.29	51.6066
2291.53	43.9259
2291.76	49.7131
2292	49.7243
2292.23	47.8078
2292.47	44.9278
2292.7	52.6394
2292.94	44.9468
2293.17	50.7367
2293.41	50.7455
2293.64	47.862
2293.88	50.7585
2294.11	47.8698
2294.34	49.7935
2294.58	48.8237
2294.81	51.7065
2295.05	46.8797
2295.28	48.7992
2295.52	42.0506
2295.75	53.5998
2295.99	52.6293
2296.22	45.8837
2296.46	51.6477
2296.69	49.7021
2296.93	50.6611
2297.16	47.7787
2297.39	54.5214
2297.63	48.7565
2297.86	48.7674
2298.1	57.448
2298.33	47.8343
2298.57	45.9176
2298.8	49.7787
2299.04	52.6802
2299.27	44.9805
2299.51	46.9188
2299.74	44.0333
2299.97	44.0375
2300.21	50.7891
2300.44	49.8245
2300.68	46.9291
2300.91	45.9697
2301.15	51.767
2301.38	49.8434
2301.61	53.7096
2301.85	52.7479
2302.08	52.7489
2302.32	49.8513
2302.55	47.9162
2302.79	48.8778
2303.02	51.7743
2303.25	48.8775
2303.49	46.9444
2303.72	45.9783
2303.96	47.9091
2304.19	38.2617
2304.43	54.6793
2304.66	48.8947
2304.89	42.1405
2305.13	48.9069
2305.36	46.9841
2305.6	52.7859
2305.83	36.3638
2306.07	46.9951
2306.3	47.001
2306.53	48.9396
2306.77	47.975
2307	50.8755
2307.24	47.9749
2307.47	49.9062
2307.7	43.1361
2307.94	46.9958
2308.17	49.8908
2308.41	49.886
2308.64	46.9832
2308.87	49.8813
2309.11	49.8834
2309.34	49.8907
2309.58	47.9661
2309.81	50.8782
2310.04	47.0259
2310.28	48.0032
2310.51	47.0402
2310.75	50.911
2310.98	50.9093
2311.21	49.9364
2311.45	51.8586
2311.68	45.0629
2311.92	45.0335
2312.15	44.0517
2312.38	48.8668
2312.62	49.8245
2312.85	49.8154
2313.08	48.8437
2313.32	50.7725
2313.55	49.8133
2313.79	50.7936
2314.02	45.9849
2314.25	46.9643
2314.49	49.8768
2314.72	47.9588
2314.95	49.9106
2315.19	43.1564
2315.42	50.9033
2315.66	55.7256
2315.89	50.8765
2316.12	44.0985
2316.36	47.9523
2316.59	45.9937
2316.82	45.0145
2317.06	45.9734
2317.29	45.0066
2317.52	49.8368
2317.76	48.8738
2317.99	51.7845
2318.23	55.6582
2318.46	48.8783
2318.69	52.7324
2318.93	45.9664
2319.16	44.0281
2319.39	45.9508
2319.63	48.8389
2319.86	48.8333
2320.09	47.8645
2320.33	50.7592
2320.56	55.5852
2320.79	54.6196
2321.03	54.6247
2321.26	51.7371
2321.5	49.8148
2321.73	52.7206
2321.96	50.8004
2322.2	49.8486
2322.43	51.7968
2322.66	52.7768
2322.9	50.8485
2323.13	54.7127
2323.36	58.582
2323.6	56.6525
2323.83	56.6557
2324.06	56.6595
2324.3	56.661
2324.53	59.5592
2324.76	65.3577
2325	66.3081
2325.23	62.4217
2325.46	65.2971
2325.7	70.1106
2325.93	65.2683
2326.16	74.9095
2326.4	80.6853
2326.63	81.6328
2326.86	92.2279
2327.09	101.854
2327.33	119.191
2327.56	135.555
2327.79	173.134
2328.03	232.867
2328.26	316.691
2328.49	376.466
2328.73	404.422
2328.96	374.553
2329.19	288.709
2329.43	220.243
2329.66	167.205
2329.89	125.773
2330.13	102.652
2330.36	92.07
2330.59	78.5785
2330.82	76.6455
2331.06	75.6751
2331.29	67.9681
2331.52	62.1941
2331.76	56.4238
2331.99	55.4696
2332.22	55.4828
2332.46	51.6137
2332.69	53.5294
2332.92	54.4844
2333.16	51.5877
2333.39	54.4689
2333.62	49.6483
2333.85	53.4927
2334.09	50.5999
2334.32	42.8937
2334.55	51.5458
2334.79	54.4178
2335.02	53.4474
2335.25	44.7863
2335.48	52.4777
2335.72	51.5128
2335.95	48.6295
2336.18	48.6327
2336.41	44.7839
2336.65	50.5485
2336.88	44.7756
2337.11	51.5038
2337.34	51.5015
2337.58	46.6915
2337.81	46.6891
2338.04	53.414
2338.28	46.6812
2338.51	50.5236
2338.74	48.5985
2338.97	56.2858
2339.21	51.4817
2339.44	42.8318
2339.67	48.5986
2339.91	49.5579
2340.14	47.6313
2340.37	46.664
2340.6	52.4208
2340.84	49.5294
2341.07	48.5575
2341.3	46.6231
2341.53	46.6077
2341.77	48.5085
2342	53.2903
2342.23	50.403
2342.46	45.5996
2342.7	48.4686
2342.93	47.5041
2343.16	47.5009
2343.39	49.4168
2343.63	48.4584
2343.86	49.4143
2344.09	45.5778
2344.32	50.3709
2344.56	48.4568
2344.79	46.5409
2345.02	48.4565
2345.25	50.3701
2345.49	45.5721
2345.72	49.3976
2345.95	52.2585
2346.18	52.2484
2346.41	49.3651
2346.65	49.3611
2346.88	51.2732
2347.11	45.5249
2347.34	46.478
2347.58	50.3037
2347.81	50.3023
2348.04	48.3883
2348.27	47.4335
2348.5	48.3966
2348.74	50.3155
2348.97	49.3573
2349.2	46.4795
2349.43	55.0884
2349.67	53.1504
2349.9	50.2573
2350.13	50.2315
2350.36	49.2455
2350.59	52.0735
2350.83	52.9587
2351.06	49.0389
2351.29	51.9762
2351.52	50.2427
2351.75	53.1671
2351.99	49.2354
2352.22	53.9515
2352.45	49.1838
2352.68	51.0988
2352.91	47.251
2353.15	51.0198
2353.38	45.2684
2353.61	50.0433
2353.84	47.1806
2354.07	48.1236
2354.31	44.3141
2354.54	49.0742
2354.77	47.1809
2355	45.286
2355.23	49.0958
2355.47	47.1867
2355.7	52.8986
2355.93	45.2719
2356.16	40.5035
2356.39	51.9247
2356.63	48.0992
2356.86	56.6405
2357.09	50.911
2357.32	49.9491
2357.55	48.0383
2357.79	45.1777
2358.02	48.0225
2358.25	50.8668
2358.48	48.9602
2358.71	48.956
2358.94	49.8951
2359.18	47.9896
2359.41	47.9859
2359.64	46.0829
2359.87	51.7757
2360.1	57.4642
2360.33	48.9065
2360.57	48.8947
2360.8	47.934
2361.03	48.8712
2361.26	49.8078
2361.49	48.8469
2361.72	50.7305
2361.96	52.613
2362.19	49.756
2362.42	45.0048
2362.65	49.7279
2362.88	46.8756
2363.11	46.8656
2363.34	45.9103
2363.58	44.01
2363.81	47.7894
2364.04	50.6222
2364.27	46.8316
2364.5	44.9326
2364.73	50.6001
2364.97	49.6465
