#Acq. time (s)=	30
#Accumulations=	2
#Range (cm-¹)=	1200...2365
#Windows=	3
#Auto scanning=	Off
#Autofocus=	Off
#Macrospot=	Off
#AutoExposure=	Off
#Spike filter=	Multiple accum.
#Delay time (s)=	2
#Binning=	1
#Readout mode=	Signal
#DeNoise=	Off
#ICS correction=	On
#Dark correction=	Off
#Inst. Process=	Off
#Detector Gain=	Best Dynamic
#Detector ADC=	50 kHz HS
#Detector temperature (°C)=	-60.09
#Instrument=	LabRAM HR Evol
#Detector=	SIN-EM FIVIS
#Objective=	x100_VIS_LWD
#Grating=	1800 (450-850nm)
#ND Filter=	100%
#Laser=	532nm_Edge
#Hole=	100.021
#Temperature=	0
#Range=	Visible
#StageXY=	75x50mm Scan+
#StageZ=	Z motor
#X (µm)=	0
#Y (µm)=	0
#Z (µm)=	-18
#Full time(mm:ss)=	3:18
#Project=	21_11_26
#Sample=	BU02Aw
#Site=	
#Title=	BU02aW-A-FF1-FI02-V_1800 (450-850nm)_532nm_Edge_100%_x100_VIS_LWD_H100um_30sX2
#Remark=	
#Date=	26.11.2021 11:26
#Acquired=	26.11.2021 11:26:23
1202.72	72.5908
1203	73.772
1203.28	69.4865
1203.56	81.2879
1203.84	69.3904
1204.11	75.8084
1204.39	72.5532
1204.67	75.7809
1204.95	63.9628
1205.23	66.0995
1205.5	76.8185
1205.78	78.9342
1206.06	70.3083
1206.34	71.3468
1206.61	69.1675
1206.89	76.6385
1207.17	74.4584
1207.45	65.8599
1207.73	67.984
1208	74.3904
1208.28	73.3071
1208.56	73.2914
1208.84	67.9193
1209.11	67.8999
1209.39	75.3667
1209.67	74.2876
1209.95	70.0074
1210.23	73.2074
1210.5	65.71
1210.78	75.2972
1211.06	73.1305
1211.34	77.3766
1211.61	68.8089
1211.89	67.7207
1212.17	71.9586
1212.45	65.5339
1212.72	70.8441
1213	66.5609
1213.28	69.7356
1213.56	69.7209
1213.83	70.776
1214.11	68.6311
1214.39	72.892
1214.67	69.6999
1214.94	73.9587
1215.22	70.7634
1215.5	69.6952
1215.78	72.8846
1216.05	78.2002
1216.33	73.9225
1216.61	72.8316
1216.89	70.6726
1217.16	72.7696
1217.44	75.9343
1217.72	65.2886
1218	68.4549
1218.27	72.6853
1218.55	67.3607
1218.83	75.8361
1219.1	69.4594
1219.38	73.6981
1219.66	62.0194
1219.94	67.3151
1220.21	66.2418
1220.49	71.5421
1220.77	69.4202
1221.04	72.5973
1221.32	76.8312
1221.6	71.5151
1221.88	66.201
1222.15	69.3604
1222.43	73.5701
1222.71	69.3
1222.98	72.4396
1223.26	70.2887
1223.54	72.3707
1223.81	67.055
1224.09	68.0873
1224.37	68.0625
1224.65	70.1569
1224.92	69.0869
1225.2	69.0768
1225.48	66.9628
1225.76	73.3045
1226.03	73.3114
1226.31	71.2082
1226.59	68.0357
1226.86	74.3649
1227.14	69.0719
1227.42	70.1147
1227.69	65.8582
1227.97	70.0095
1228.25	72.0729
1228.52	73.0836
1228.8	70.91
1229.08	71.9059
1229.35	69.7978
1229.63	66.8097
1229.91	69.0623
1230.18	76.3785
1230.46	74.1982
1230.74	71.0114
1231.01	73.125
1231.29	74.1339
1231.57	67.6834
1231.84	68.7458
1232.12	67.6929
1232.4	73.9945
1232.67	71.8835
1232.95	72.9315
1233.23	80.2806
1233.5	75.0196
1233.78	77.1178
1234.06	69.7676
1234.33	81.3297
1234.61	70.83
1234.89	65.5853
1235.16	68.7485
1235.44	70.8554
1235.71	75.066
1235.99	72.9717
1236.27	74.0284
1236.54	72.9749
1236.82	70.8624
1237.1	70.8504
1237.37	77.1394
1237.65	75.0115
1237.93	76.034
1238.2	77.0558
1238.48	81.2247
1238.76	76.9986
1239.03	78.0252
1239.31	80.1079
1239.58	71.7088
1239.86	72.7489
1240.14	75.8879
1240.41	71.6919
1240.69	69.5943
1240.97	71.6919
1241.24	72.7431
1241.52	72.745
1241.79	74.834
1242.07	76.9157
1242.35	83.1935
1242.62	79.0025
1242.9	73.7667
1243.18	88.4502
1243.45	81.1233
1243.73	77.9766
1244	79.0247
1244.28	76.9324
1244.56	81.124
1244.83	83.2144
1245.11	73.772
1245.39	80.0428
1245.66	78.9742
1245.94	83.1352
1246.21	83.1067
1246.49	74.7197
1246.76	78.8998
1247.04	82.0396
1247.32	83.0839
1247.59	78.8896
1247.87	83.0736
1248.14	75.7384
1248.42	86.1704
1248.7	85.1069
1248.97	84.0561
1249.25	78.8309
1249.52	85.1119
1249.8	83.0136
1250.08	85.1018
1250.35	80.9184
1250.63	92.403
1250.9	88.1966
1251.18	89.2213
1251.45	81.8882
1251.73	79.7834
1252.01	89.1702
1252.28	84.9755
1252.56	87.0475
1252.83	83.8983
1253.11	88.055
1253.39	81.7757
1253.66	76.5494
1253.94	82.8099
1254.21	84.9097
1254.49	83.8811
1254.76	82.8544
1255.04	90.17
1255.31	83.9041
1255.59	85.9984
1255.87	81.8205
1256.14	85.9926
1256.42	90.1728
1256.69	81.8244
1256.97	82.88
1257.24	86.0169
1257.52	86.0116
1257.79	89.1316
1258.07	97.4769
1258.35	96.4244
1258.62	109.989
1258.9	126.679
1259.17	119.342
1259.45	117.251
1259.72	113.089
1260	94.313
1260.27	105.84
1260.55	105.812
1260.82	104.741
1261.1	114.094
1261.37	117.195
1261.65	129.693
1261.92	121.364
1262.2	139.222
1262.48	142.54
1262.75	156.229
1263.02	173.729
1263.3	186.038
1263.58	212.02
1263.85	244.583
1264.13	258.349
1264.4	264.865
1264.68	268.135
1264.95	279.465
1265.23	267.899
1265.5	226.092
1265.78	192.63
1266.05	164.383
1266.33	150.798
1266.6	141.403
1266.88	125.745
1267.15	124.723
1267.43	119.524
1267.7	111.188
1267.98	110.174
1268.25	103.931
1268.53	107.117
1268.8	102.966
1269.08	99.8429
1269.35	101.954
1269.63	101.966
1269.9	98.8157
1270.18	109.268
1270.45	99.8094
1270.73	108.163
1271	107.089
1271.28	109.163
1271.55	108.109
1271.83	117.51
1272.1	100.776
1272.38	112.312
1272.65	107.108
1272.93	99.8171
1273.2	108.223
1273.47	105.107
1273.75	108.279
1274.03	105.162
1274.3	105.189
1274.57	109.401
1274.85	99.965
1275.12	109.4
1275.4	104.155
1275.67	106.264
1275.95	114.675
1276.22	113.645
1276.5	98.9763
1276.77	107.392
1277.05	101.112
1277.32	121.079
1277.6	114.806
1277.87	112.731
1278.14	109.605
1278.42	116.984
1278.69	115.954
1278.97	118.09
1279.24	127.575
1279.52	141.271
1279.79	144.418
1280.07	142.302
1280.34	150.699
1280.61	157.002
1280.89	184.36
1281.16	204.363
1281.44	217.04
1281.71	259.206
1281.99	311.872
1282.26	392.915
1282.53	483.484
1282.81	665.677
1283.08	879.253
1283.36	1195.51
1283.63	1573.96
1283.91	2189.17
1284.18	2740.79
1284.45	3284.75
1284.73	3608.66
1285	3338.5
1285.28	2635.62
1285.55	1902.37
1285.83	1265.8
1286.1	824.675
1286.37	558.422
1286.65	430.993
1286.92	306.672
1287.2	272.975
1287.47	232.951
1287.75	208.705
1288.02	182.356
1288.29	170.76
1288.57	158.129
1288.84	153.924
1289.12	154.987
1289.39	140.273
1289.66	136.086
1289.94	132.951
1290.21	128.766
1290.49	121.413
1290.76	125.626
1291.03	123.505
1291.31	115.072
1291.58	122.442
1291.86	103.482
1292.13	115.062
1292.4	114.01
1292.68	108.75
1292.95	108.743
1293.22	107.681
1293.5	107.686
1293.77	111.934
1294.05	99.3326
1294.32	104.646
1294.59	110.985
1294.87	97.2759
1295.14	106.759
1295.42	101.504
1295.69	102.601
1295.96	102.657
1296.24	97.4475
1296.51	101.715
1296.79	107.01
1297.06	97.4991
1297.33	99.6018
1297.61	103.811
1297.88	103.789
1298.15	91.0896
1298.43	93.177
1298.7	93.1874
1298.97	97.4036
1299.25	91.0516
1299.52	94.2058
1299.79	94.1901
1300.07	95.244
1300.34	88.9257
1300.62	94.2135
1300.89	94.2155
1301.16	98.4339
1301.44	92.0949
1301.71	98.434
1301.98	84.7216
1302.25	95.2963
1302.53	92.135
1302.8	91.0808
1303.08	84.741
1303.35	95.2975
1303.62	85.7812
1303.9	94.2128
1304.17	89.9851
1304.44	89.9866
1304.72	91.0421
1304.99	86.8166
1305.26	83.6379
1305.54	82.567
1305.81	86.7692
1306.08	88.8595
1306.35	88.8372
1306.63	89.8738
1306.9	90.9198
1307.18	89.8643
1307.45	89.8717
1307.72	83.5453
1308	81.4341
1308.27	84.597
1308.54	83.5462
1308.81	81.4312
1309.09	85.6541
1309.36	83.5571
1309.63	79.3479
1309.91	87.8009
1310.18	80.421
1310.45	86.7503
1310.73	90.9652
1311	85.6883
1311.27	87.8021
1311.55	82.5293
1311.82	88.865
1312.09	84.6497
1312.37	94.1649
1312.64	89.9548
1312.91	95.24
1313.18	83.6205
1313.46	81.4953
1313.73	87.8259
1314	78.317
1314.28	86.7549
1314.55	87.8096
1314.82	84.6475
1315.09	84.6553
1315.37	83.6094
1315.64	87.8427
1315.91	84.6853
1316.18	92.0895
1316.46	91.0288
1316.73	92.0786
1317	78.3449
1317.28	88.9027
1317.55	87.8459
1317.82	86.8017
1318.09	86.8096
1318.37	79.4198
1318.64	80.4788
1318.91	77.3107
1319.18	87.8751
1319.46	86.8155
1319.73	81.5294
1320	85.7513
1320.28	79.4178
1320.55	86.8133
1320.82	92.09
1321.09	87.8511
1321.37	79.3827
1321.64	85.6939
1321.91	81.4446
1322.18	77.2085
1322.46	81.4056
1322.73	83.5035
1323	87.7098
1323.27	84.5327
1323.55	80.2987
1323.82	82.4161
1324.09	95.0724
1324.36	85.5832
1324.64	85.58
1324.91	82.4174
1325.18	78.1967
1325.45	83.4735
1325.73	87.6683
1326	84.467
1326.27	79.152
1326.54	79.0951
1326.81	81.1755
1327.09	85.3768
1327.36	85.4046
1327.63	89.6726
1327.9	82.3295
1328.18	82.3579
1328.45	79.2264
1328.72	78.2021
1328.99	89.831
1329.27	80.3432
1329.54	79.2776
1329.81	90.8911
1330.08	77.1713
1330.35	84.5489
1330.63	77.1537
1330.9	86.6303
1331.17	83.446
1331.44	74.9881
1331.71	76.0119
1331.99	85.4567
1332.26	88.585
1332.53	79.0869
1332.8	88.5322
1333.07	84.2936
1333.35	79.0055
1333.62	85.2859
1333.89	84.2085
1334.16	78.931
1334.43	85.2099
1334.71	86.2367
1334.98	83.0659
1335.25	80.9488
1335.52	84.0804
1335.79	75.671
1336.07	82.9995
1336.34	90.3262
1336.61	84.0204
1336.88	88.2022
1337.15	73.5146
1337.43	82.9411
1337.7	76.6445
1337.97	70.3471
1338.24	80.8069
1338.51	81.8351
1338.78	74.4907
1339.06	77.6192
1339.33	88.0813
1339.6	75.513
1339.87	78.6565
1340.14	83.8961
1340.42	83.8972
1340.69	87.0415
1340.96	81.8072
1341.23	80.7576
1341.5	82.8478
1341.77	81.794
1342.04	83.8783
1342.32	73.3955
1342.59	80.7055
1342.86	78.5906
1343.13	83.7999
1343.4	85.8794
1343.67	82.7346
1343.95	75.4102
1344.22	81.6839
1344.49	81.6847
1344.76	83.7758
1345.03	83.7674
1345.3	76.4338
1345.58	75.3705
1345.85	83.7063
1346.12	81.5949
1346.39	81.5665
1346.66	81.5252
1346.93	79.4113
1347.2	75.2137
1347.47	84.576
1347.75	85.5945
1348.02	88.7055
1348.29	74.1007
1348.56	81.3893
1348.83	79.2983
1349.1	88.6632
1349.37	79.2696
1349.65	84.4615
1349.92	81.321
1350.19	79.2231
1350.46	80.2494
1350.73	83.3566
1351	80.2137
1351.27	94.7576
1351.54	87.4601
1351.81	79.1176
1352.09	72.8717
1352.36	73.9096
1352.63	84.317
1352.9	80.1738
1353.17	82.2786
1353.44	88.535
1353.71	86.5263
1353.98	79.3086
1354.25	84.441
1354.53	80.1538
1354.8	89.4212
1355.07	87.3524
1355.34	90.4763
1355.61	87.3277
1355.88	94.5811
1356.15	83.1842
1356.42	79.0341
1356.69	83.1715
1356.96	83.1626
1357.24	89.3863
1357.51	85.2228
1357.78	78.9808
1358.05	78.9678
1358.32	94.5239
1358.59	82.0519
1358.86	90.3387
1359.13	92.3946
1359.4	80.9661
1359.67	95.4734
1359.94	85.0906
1360.22	96.4719
1360.49	93.3334
1360.76	85.0176
1361.03	83.9649
1361.3	83.9575
1361.57	91.2064
1361.84	86.0232
1362.11	94.3035
1362.38	94.2916
1362.65	92.2098
1362.92	91.1646
1363.19	81.8424
1363.46	89.0949
1363.73	83.9314
1364	93.263
1364.28	101.561
1364.55	104.667
1364.82	92.2295
1365.09	106.719
1365.36	101.521
1365.63	111.851
1365.9	112.859
1366.17	104.554
1366.44	102.461
1366.71	98.2988
1366.98	99.3037
1367.25	102.37
1367.52	99.2525
1367.79	96.1418
1368.06	95.1202
1368.33	107.531
1368.6	96.1657
1368.87	107.542
1369.15	109.616
1369.41	131.337
1369.68	187.181
1369.95	232.649
1370.23	237.791
1370.5	191.249
1370.77	143.663
1371.04	128.145
1371.31	107.46
1371.58	98.1344
1371.85	110.49
1372.12	102.19
1372.39	101.118
1372.66	108.301
1372.93	110.334
1373.2	107.222
1373.47	109.269
1373.74	106.163
1374.01	106.151
1374.28	104.081
1374.55	105.103
1374.82	108.186
1375.09	107.147
1375.36	106.102
1375.63	119.497
1375.9	112.3
1376.17	118.478
1376.44	121.574
1376.71	112.273
1376.98	112.245
1377.25	117.354
1377.52	121.421
1377.79	119.377
1378.06	126.612
1378.33	118.424
1378.6	125.694
1378.87	123.7
1379.14	129.907
1379.41	137.118
1379.68	132.976
1379.95	141.202
1380.22	143.233
1380.49	151.412
1380.76	152.319
1381.03	151.219
1381.3	148.077
1381.57	146.044
1381.84	156.288
1382.11	161.354
1382.38	166.41
1382.65	171.474
1382.92	168.332
1383.19	179.554
1383.46	197.968
1383.73	204.063
1384	216.331
1384.27	235.779
1384.54	246.039
1384.81	252.211
1385.08	301.482
1385.34	341.571
1385.61	396.093
1385.88	476.263
1386.15	604.706
1386.42	756.76
1386.69	1071.19
1386.96	1596.17
1387.23	2425.05
1387.5	3979.05
1387.77	5958.65
1388.04	7362.88
1388.31	7191.02
1388.58	5588.87
1388.85	3560.18
1389.12	2102.36
1389.39	1244.33
1389.66	799.83
1389.93	571.951
1390.2	412.642
1390.46	357.955
1390.73	295.275
1391	246.047
1391.27	225.448
1391.54	214.154
1391.81	200.812
1392.08	184.374
1392.35	162.816
1392.62	169.947
1392.89	161.727
1393.16	147.372
1393.43	142.236
1393.7	149.386
1393.97	132.997
1394.23	144.242
1394.5	131.952
1394.77	131.943
1395.04	126.822
1395.31	122.742
1395.58	122.762
1395.85	128.917
1396.12	123.805
1396.39	117.659
1396.66	122.766
1396.93	114.564
1397.2	114.548
1397.46	109.411
1397.73	106.321
1398	115.516
1398.27	105.286
1398.54	106.315
1398.81	114.512
1399.08	114.519
1399.35	102.247
1399.62	105.334
1399.89	107.392
1400.16	108.425
1400.42	107.4
1400.69	115.604
1400.96	101.297
1401.23	110.525
1401.5	112.569
1401.77	116.678
1402.04	105.411
1402.31	107.496
1402.58	110.631
1402.84	113.775
1403.11	111.773
1403.38	107.702
1403.65	112.851
1403.92	119.012
1404.19	107.696
1404.46	111.739
1404.73	113.807
1404.99	111.744
1405.26	115.834
1405.53	111.711
1405.8	120.918
1406.07	123.973
1406.34	132.153
1406.61	139.314
1406.87	137.253
1407.14	164.933
1407.41	158.795
1407.68	182.386
1407.95	207.002
1408.22	229.571
1408.49	266.496
1408.76	319.833
1409.02	398.819
1409.29	431.675
1409.56	459.404
1409.83	443.029
1410.1	399.97
1410.37	334.319
1410.63	265.538
1410.9	217.274
1411.17	173.13
1411.44	153.618
1411.71	139.247
1411.98	124.885
1412.25	112.587
1412.51	114.652
1412.78	106.485
1413.05	111.679
1413.32	105.652
1413.59	100.579
1413.86	103.581
1414.12	93.1914
1414.39	91.1608
1414.66	98.4048
1414.93	93.3169
1415.2	87.1507
1415.47	91.2601
1415.73	87.1534
1416	89.2091
1416.27	78.9481
1416.54	86.1432
1416.81	83.0703
1417.07	78.9702
1417.34	82.0609
1417.61	81.0429
1417.88	86.1887
1418.15	85.1657
1418.42	76.9464
1418.68	84.1426
1418.95	86.2016
1419.22	88.2578
1419.49	81.0652
1419.76	80.0285
1420.02	73.8486
1420.29	79.9968
1420.56	70.7381
1420.83	86.1259
1421.1	80.9737
1421.36	81.9848
1421.63	84.0298
1421.9	83.008
1422.17	79.9496
1422.44	78.9491
1422.7	78.9754
1422.97	77.9897
1423.24	80.114
1423.51	80.1845
1423.77	77.9398
1424.04	81.877
1424.31	83.9498
1424.58	80.795
1424.85	81.8198
1425.11	83.8926
1425.38	82.9249
1425.65	84.9866
1425.92	76.7701
1426.19	85.0034
1426.45	83.971
1426.72	81.9045
1426.99	76.7561
1427.26	71.6089
1427.52	79.7862
1427.79	74.6311
1428.06	72.5581
1428.33	77.6656
1428.59	69.4693
1428.86	69.4699
1429.13	69.4735
1429.4	64.3587
1429.67	70.5108
1429.93	67.4484
1430.2	64.3888
1430.47	68.505
1430.74	72.6194
1431	70.5905
1431.27	79.8537
1431.54	64.488
1431.81	65.5251
1432.07	68.6041
1432.34	68.5911
1432.61	67.5485
1432.87	68.5637
1433.14	69.5679
1433.41	61.3403
1433.68	70.5361
1433.95	65.3862
1434.21	63.3216
1434.48	68.4347
1434.75	66.4173
1435.01	69.5049
1435.28	67.4579
1435.55	64.3838
1435.82	70.5302
1436.08	70.5265
1436.35	69.497
1436.62	59.2463
1436.89	66.4116
1437.15	65.3803
1437.42	70.4957
1437.69	58.2021
1437.95	59.2194
1438.22	66.3847
1438.49	66.3876
1438.76	65.3731
1439.02	68.4521
1439.29	67.4294
1439.56	64.359
1439.82	68.4674
1440.09	66.4328
1440.36	63.3754
1440.63	60.3069
1440.89	65.4373
1441.16	62.3616
1441.43	64.4157
1441.69	64.4104
1441.96	61.3233
1442.23	58.242
1442.49	63.3806
1442.76	62.3563
1443.03	58.2658
1443.3	61.3345
1443.56	62.3489
1443.83	62.3395
1444.1	61.3077
1444.36	62.33
1444.63	63.3586
1444.9	58.2492
1445.16	61.3401
1445.43	62.3855
1445.7	62.3798
1445.97	64.4252
1446.23	62.3677
1446.5	62.3619
1446.77	60.3055
1447.03	57.2236
1447.3	62.3461
1447.57	59.2631
1447.83	60.2804
1448.1	57.1983
1448.37	59.2478
1448.63	60.283
1448.9	62.3474
1449.17	60.2995
1449.43	58.2468
1449.7	56.1902
1449.97	62.3351
1450.23	63.3497
1450.5	55.1378
1450.77	63.3329
1451.03	59.2276
1451.3	62.297
1451.57	55.1175
1451.83	58.1856
1452.1	56.1301
1452.37	51.0025
1452.63	60.2204
1452.9	56.1226
1453.17	58.174
1453.43	58.1802
1453.7	56.1357
1453.97	53.0611
1454.23	62.2797
1454.5	61.2511
1454.77	58.1764
1455.03	54.0771
1455.3	53.0503
1455.56	57.1448
1455.83	53.0468
1456.1	49.981
1456.36	54.085
1456.63	60.2341
1456.9	53.0544
1457.16	55.0942
1457.43	50.9866
1457.7	56.1045
1457.96	54.0515
1458.23	57.1219
1458.49	57.1217
1458.76	47.9029
1459.03	52.0029
1459.29	60.2011
1459.56	55.0798
1459.82	60.2035
1460.09	54.0533
1460.36	56.0982
1460.62	54.0448
1460.89	62.2345
1461.16	56.0817
1461.42	56.0738
1461.69	59.138
1461.95	51.9619
1462.22	50.9289
1462.49	58.0835
1462.75	48.8614
1463.02	54.9886
1463.28	59.0668
1463.55	55.9842
1463.82	53.9269
1464.08	52.902
1464.35	51.8954
1464.61	54.9884
1464.88	49.8899
1465.15	55.0329
1465.41	51.9202
1465.68	50.8033
1465.94	53.8227
1466.21	58.9192
1466.48	54.8537
1466.74	51.7857
1467.01	58.9041
1467.27	53.7949
1467.54	56.8603
1467.8	52.7753
1468.07	59.9116
1468.34	56.8482
1468.6	55.8265
1468.87	45.6243
1469.13	55.8208
1469.4	53.7748
1469.67	55.8071
1469.93	62.9328
1470.2	54.7626
1470.46	52.7132
1470.73	49.6483
1470.99	48.6229
1471.26	52.6939
1471.53	60.8355
1471.79	55.7304
1472.06	52.667
1472.32	54.6992
1472.59	56.7329
1472.85	48.5849
1473.12	52.6556
1473.39	57.7416
1473.65	49.5886
1473.92	56.7054
1474.18	52.627
1474.45	54.6578
1474.71	57.7099
1474.98	48.5548
1475.24	54.6643
1475.51	46.5217
1475.78	51.6086
1476.04	52.6209
1476.31	54.6483
1476.57	53.6248
1476.84	48.5324
1477.1	54.6274
1477.37	46.4811
1477.63	53.5955
1477.9	50.542
1478.16	53.5908
1478.43	54.6008
1478.69	57.6393
1478.96	52.5477
1479.22	48.4739
1479.49	52.5296
1479.76	53.5349
1480.02	57.5857
1480.29	53.5106
1480.55	49.4298
1480.82	55.5043
1481.08	49.4043
1481.35	54.4722
1481.61	51.4188
1481.88	51.4228
1482.14	50.4157
1482.41	47.3796
1482.67	52.4643
1482.94	53.4872
1483.2	50.4405
1483.47	52.4768
1483.73	52.4796
1484	56.541
1484.26	53.4921
1484.53	52.4546
1484.79	52.4246
1485.06	49.3273
1485.32	48.2475
1485.59	54.2927
1485.85	52.2282
1486.12	54.3755
1486.38	51.35
1486.65	47.3138
1486.91	51.3135
1487.18	51.3392
1487.44	49.3196
1487.71	53.3566
1487.97	50.3049
1488.24	51.3099
1488.5	54.3385
1488.77	50.2764
1489.03	50.2634
1489.3	52.2771
1489.56	55.306
1489.83	52.2654
1490.09	51.2494
1490.36	49.225
1490.62	50.2352
1490.89	49.2168
1491.15	53.2515
1491.42	49.1957
1491.68	53.2345
1491.95	51.2093
1492.21	54.2414
1492.48	54.2431
1492.74	52.2186
1493	50.1932
1493.27	55.2454
1493.53	50.1899
1493.8	49.1748
1494.06	50.183
1494.33	45.1287
1494.59	49.1747
1494.86	58.2771
1495.12	48.1645
1495.39	49.1668
1495.65	46.12
1495.92	52.1634
1496.18	54.1673
1496.45	51.1275
1496.71	51.1198
1496.97	50.1033
1497.24	50.0956
1497.5	55.1409
1497.77	50.0933
1498.03	53.1173
1498.3	50.0877
1498.56	48.069
1498.82	48.0694
1499.09	52.1073
1499.35	48.0717
1499.62	48.0741
1499.88	54.1344
1500.15	49.0906
1500.41	57.1684
1500.68	51.1097
1500.94	50.0977
1501.2	55.143
1501.47	56.1458
1501.73	49.0695
1502	54.1115
1502.26	48.0544
1502.52	52.0882
1502.79	50.0644
1503.05	55.0969
1503.32	54.0766
1503.58	51.0441
1503.85	54.059
1504.11	49.0166
1504.37	49.0206
1504.64	49.0221
1504.9	56.0809
1505.17	52.044
1505.43	51.0295
1505.7	47.9964
1505.96	49.9978
1506.22	57.0318
1506.49	51.9899
1506.75	51.9875
1507.02	47.9592
1507.28	43.935
1507.54	49.9819
1507.81	48.9758
1508.07	45.9515
1508.34	48.9705
1508.6	55.0125
1508.86	47.9597
1509.13	46.9531
1509.39	46.9531
1509.66	50.9822
1509.92	50.9813
1510.18	49.9785
1510.45	51.9967
1510.71	57.024
1510.98	52.9825
1511.24	50.955
1511.5	48.9261
1511.77	47.8989
1512.03	49.8848
1512.29	50.8633
1512.56	50.8373
1512.82	46.7967
1513.08	49.7966
1513.35	51.7925
1513.61	53.7895
1513.88	50.7729
1514.14	50.7842
1514.4	50.8032
1514.67	50.8075
1514.93	49.7965
1515.2	49.7843
1515.46	51.7781
1515.72	45.7419
1515.99	45.7272
1516.25	53.7374
1516.51	56.7339
1516.78	56.7276
1517.04	48.7006
1517.3	50.7019
1517.57	52.705
1517.83	46.6894
1518.09	49.7002
1518.36	49.7086
1518.62	53.7224
1518.88	56.7346
1519.15	47.7095
1519.41	48.7162
1519.67	51.7291
1519.94	47.7177
1520.2	56.7455
1520.47	48.714
1520.73	45.7004
1520.99	54.731
1521.26	53.7325
1521.52	55.7434
1521.78	53.7379
1522.05	48.7181
1522.31	51.7228
1522.57	47.7036
1522.84	47.697
1523.1	49.6972
1523.36	47.6826
1523.62	47.6674
1523.89	50.6539
1524.15	50.6396
1524.41	53.633
1524.68	52.6213
1524.94	50.6096
1525.2	53.619
1525.47	51.6179
1525.73	50.6176
1525.99	52.6277
1526.26	47.6276
1526.52	50.6461
1526.78	53.6628
1527.05	52.664
1527.31	52.6621
1527.57	48.6448
1527.84	54.654
1528.1	50.6402
1528.36	45.6253
1528.63	48.6247
1528.89	50.6223
1529.15	51.6186
1529.41	48.6103
1529.68	48.6087
1529.94	49.6063
1530.2	45.5919
1530.47	46.5905
1530.73	49.5985
1530.99	48.6063
1531.25	50.6193
1531.52	54.6346
1531.78	50.6269
1532.04	51.6248
1532.31	47.6174
1532.57	49.614
1532.83	55.6312
1533.09	53.6409
1533.36	45.6386
1533.62	48.6611
1533.88	49.6704
1534.15	52.6832
1534.41	53.6852
1534.67	56.6907
1534.94	44.6493
1535.2	48.6554
1535.46	53.6645
1535.72	47.6376
1535.99	52.6236
1536.25	50.6031
1536.51	47.5859
1536.77	54.5776
1537.04	44.5472
1537.3	51.5358
1537.56	53.5288
1537.82	48.5144
1538.09	48.5142
1538.35	53.5037
1538.61	48.4873
1538.87	52.4802
1539.14	50.4752
1539.4	53.4879
1539.66	47.5157
1539.92	47.5501
1540.19	54.5849
1540.45	53.6054
1540.71	53.6283
1540.97	52.6397
1541.24	45.625
1541.5	47.61
1541.76	44.5997
1542.02	47.593
1542.29	45.5765
1542.55	48.5691
1542.81	51.5602
1543.07	56.5532
1543.34	60.5434
1543.6	49.52
1543.86	58.5063
1544.12	52.4854
1544.39	50.4869
1544.65	52.4895
1544.91	54.5005
1545.17	53.5158
1545.43	49.5235
1545.7	50.544
1545.96	49.5528
1546.22	46.5537
1546.48	50.5652
1546.74	48.5581
1547.01	48.5597
1547.27	52.5719
1547.53	47.5678
1547.79	49.5763
1548.06	49.5646
1548.32	48.5364
1548.58	49.5369
1548.84	50.5402
1549.1	50.5546
1549.37	47.5044
1549.63	50.4532
1549.89	51.4407
1550.15	50.4689
1550.42	52.5236
1550.68	51.6005
1550.94	51.6571
1551.2	44.6745
1551.46	51.6713
1551.73	55.6921
1551.99	53.6723
1552.25	52.651
1552.51	54.6821
1552.77	52.6951
1553.03	56.7047
1553.3	48.6552
1553.56	50.6253
1553.82	46.6037
1554.08	46.599
1554.34	50.6002
1554.61	52.59
1554.87	55.5782
1555.13	55.5576
1555.39	50.5408
1555.65	54.5435
1555.91	49.5339
1556.18	52.5417
1556.44	56.5486
1556.7	51.531
1556.96	51.5309
1557.22	51.5335
1557.48	55.5429
1557.75	53.5396
1558.01	52.5341
1558.27	51.522
1558.53	52.5061
1558.79	53.493
1559.06	50.472
1559.32	52.4563
1559.58	48.441
1559.84	50.4293
1560.1	47.4204
1560.36	52.4106
1560.63	44.4086
1560.89	52.3993
1561.15	46.3994
1561.41	50.3955
1561.67	48.3995
1561.93	51.4064
1562.19	54.4195
1562.46	49.4344
1562.72	51.4344
1562.98	56.4316
1563.24	49.4261
1563.5	53.428
1563.76	50.4221
1564.02	50.4182
1564.29	46.4343
1564.55	44.4505
1564.81	50.46
1565.07	51.4565
1565.33	52.4265
1565.59	50.3358
1565.85	47.2236
1566.11	45.1728
1566.38	50.3551
1566.64	54.4159
1566.9	51.3884
1567.16	51.3532
1567.42	52.3946
1567.68	51.4403
1567.94	51.4274
1568.2	56.3884
1568.47	51.3957
1568.73	49.4025
1568.99	54.4051
1569.25	51.3994
1569.51	48.381
1569.77	53.3661
1570.03	54.365
1570.29	50.3711
1570.55	54.3691
1570.82	50.3715
1571.08	46.3721
1571.34	49.3673
1571.6	50.3612
1571.86	51.3515
1572.12	50.3426
1572.38	48.3423
1572.64	47.3366
1572.9	49.3236
1573.17	50.3139
1573.43	49.3076
1573.69	48.3005
1573.95	52.2848
1574.21	54.2812
1574.47	49.2993
1574.73	52.3053
1574.99	56.3118
1575.25	50.332
1575.51	45.3477
1575.78	53.35
1576.04	47.3555
1576.3	48.3505
1576.56	49.3481
1576.82	54.3375
1577.08	49.3251
1577.34	46.3096
1577.6	47.29
1577.86	47.2725
1578.12	54.2388
1578.38	51.2301
1578.64	47.2317
1578.9	46.2311
1579.17	52.2114
1579.43	51.2133
1579.69	44.2344
1579.95	50.2181
1580.21	51.2218
1580.47	46.2388
1580.73	52.2222
1580.99	58.2023
1581.25	52.2124
1581.51	45.2248
1581.77	53.1922
1582.03	48.1976
1582.29	50.1791
1582.55	48.1819
1582.81	52.1626
1583.07	49.1692
1583.33	51.1577
1583.59	46.175
1583.85	50.1571
1584.11	48.1593
1584.38	51.1462
1584.64	46.1698
1584.9	53.1447
1585.16	48.1655
1585.42	47.1681
1585.68	51.1488
1585.94	46.1665
1586.2	47.1571
1586.46	47.1451
1586.72	49.1235
1586.98	52.0996
1587.24	51.0966
1587.5	49.1001
1587.76	42.1302
1588.02	50.0866
1588.28	51.0811
1588.54	53.0745
1588.8	53.0798
1589.06	52.0916
1589.32	54.0881
1589.58	51.1077
1589.84	53.1029
1590.1	55.0952
1590.36	49.1205
1590.62	51.1151
1590.88	53.112
1591.14	52.1202
1591.4	53.1138
1591.66	52.1167
1591.92	53.1081
1592.18	49.1189
1592.44	47.116
1592.7	51.0807
1592.96	55.0475
1593.22	50.0642
1593.48	47.0615
1593.74	54.994
1594	53.9765
1594.26	53.9616
1594.52	49.9804
1594.78	50.9728
1595.04	46.0113
1595.3	50.9877
1595.56	50.9938
1595.82	49.0056
1596.08	48.9822
1596.34	48.9803
1596.6	49.9726
1596.86	50.9654
1597.12	46.9935
1597.38	49.976
1597.64	47.9928
1597.9	49.9832
1598.16	52.9615
1598.42	50.9688
1598.68	45.9927
1598.94	46.9721
1599.2	47.9524
1599.46	52.905
1599.72	50.9104
1599.98	55.8617
1600.24	49.8991
1600.5	49.89
1600.76	49.8794
1601.02	49.8661
1601.28	48.8584
1601.54	48.8411
1601.8	52.7861
1602.06	55.7414
1602.32	47.8088
1602.58	52.7476
1602.84	53.7248
1603.1	56.6788
1603.36	47.763
1603.62	51.709
1603.88	49.7238
1604.14	48.73
1604.4	52.6829
1604.66	46.7505
1604.92	45.7623
1605.17	49.7171
1605.43	54.6613
1605.69	51.696
1605.95	52.6884
1606.21	44.7816
1606.47	51.7108
1606.73	50.7275
1606.99	51.7215
1607.25	54.6633
1607.51	49.7299
1607.77	47.8169
1608.03	58.3267
1608.29	45.0258
1608.55	51.5539
1608.81	50.5085
1609.07	50.864
1609.32	44.2649
1609.58	49.4507
1609.84	49.184
1610.1	49.0698
1610.36	54.0188
1610.62	52.1298
1610.88	50.7409
1611.14	52.1898
1611.4	52.9439
1611.66	48.4471
1611.92	48.3756
1612.18	51.1661
1612.44	53.8018
1612.69	46.2029
1612.95	48.9739
1613.21	54.3573
1613.47	52.4075
1613.73	51.4895
1613.99	53.5114
1614.25	52.8253
1614.51	47.4964
1614.77	50.7444
1615.03	50.411
1615.29	45.8748
1615.54	53.9681
1615.8	53.6843
1616.06	52.1785
1616.32	48.3701
1616.58	51.1883
1616.84	50.4698
1617.1	52.7254
1617.36	53.5581
1617.62	47.3453
1617.88	49.1886
1618.13	50.4576
1618.39	52.8344
1618.65	47.4779
1618.91	49.9263
1619.17	47.1675
1619.43	53.0883
1619.69	49.3016
1619.95	53.2234
1620.2	50.5471
1620.46	53.164
1620.72	52.1377
1620.98	53.8051
1621.24	53.0234
1621.5	53.9536
1621.76	52.0167
1622.02	52.1968
1622.27	53.7645
1622.53	50.3296
1622.79	49.9924
1623.05	52.1606
1623.31	53.5174
1623.57	48.5138
1623.83	49.1577
1624.09	51.7603
1624.34	53.012
1624.6	51.349
1624.86	49.238
1625.12	50.7915
1625.38	46.5087
1625.64	46.9873
1625.9	48.8185
1626.15	51.5376
1626.41	51.5011
1626.67	50.7467
1626.93	50.623
1627.19	49.2248
1627.45	50.7231
1627.7	51.5358
1627.96	52.1311
1628.22	51.824
1628.48	54.8427
1628.74	53.0277
1629	54.304
1629.26	52.6728
1629.51	48.9784
1629.77	50.4341
1630.03	53.2793
1630.29	51.6467
1630.55	50.6093
1630.81	50.6863
1631.06	52.7263
1631.32	51.2995
1631.53	48.9923
1631.79	51.9536
1632.05	50.9763
1632.31	56.8966
1632.57	50.9792
1632.84	47.0486
1633.1	52.0019
1633.36	52.9677
1633.62	53.9244
1633.88	53.9168
1634.14	53.9227
1634.4	49.9872
1634.66	47.0312
1634.93	50.9736
1635.19	48.0142
1635.45	54.9103
1635.71	52.9342
1635.97	49.9717
1636.23	52.9212
1636.49	54.8838
1636.75	51.9198
1637.02	53.8813
1637.28	54.856
1637.54	51.8903
1637.8	57.7916
1638.06	48.9267
1638.32	56.7967
1638.58	54.8205
1638.84	52.846
1639.1	49.892
1639.37	52.8436
1639.63	50.8727
1639.89	52.8395
1640.15	52.837
1640.41	55.7864
1640.67	53.8178
1640.93	52.8418
1641.19	53.832
1641.46	51.8631
1641.72	53.8272
1641.98	51.8507
1642.24	47.9075
1642.5	53.8099
1642.76	50.8528
1643.02	44.9429
1643.28	51.8299
1643.54	50.8427
1643.8	52.8083
1644.06	52.8024
1644.33	47.8745
1644.59	58.6888
1644.85	56.7118
1645.11	51.7894
1645.37	46.8725
1645.63	53.7651
1645.89	52.7834
1646.15	48.8461
1646.41	47.8557
1646.67	52.7677
1646.93	54.7281
1647.19	48.8206
1647.46	52.7485
1647.72	47.8235
1647.98	50.7678
1648.24	47.8149
1648.5	51.7489
1648.76	49.789
1649.02	51.7646
1649.28	55.7261
1649.54	50.8128
1649.8	47.8524
1650.06	47.8454
1650.32	57.6866
1650.58	49.8251
1650.85	52.7901
1651.11	50.8281
1651.37	54.7772
1651.63	49.8557
1651.89	51.8278
1652.15	53.7973
1652.41	50.8395
1652.67	49.8544
1652.93	48.8624
1653.19	57.7224
1653.45	56.7325
1653.71	52.7901
1653.97	49.835
1654.23	52.7946
1654.49	54.7673
1654.75	55.7534
1655.01	60.6836
1655.27	49.8468
1655.53	50.8411
1655.8	50.8542
1656.06	47.911
1656.32	49.8944
1656.57	57.7965
1656.84	53.8517
1657.1	54.8397
1657.36	50.8882
1657.62	50.8822
1657.88	47.9142
1658.14	54.8174
1658.4	53.8249
1658.66	49.8708
1658.92	47.8891
1659.18	52.8125
1659.44	49.8442
1659.7	55.7519
1659.96	50.8122
1660.22	47.8423
1660.48	52.7738
1660.74	50.807
1661	51.7993
1661.26	50.8206
1661.52	52.8015
1661.78	48.8639
1662.04	51.8268
1662.3	48.8685
1662.56	53.7524
1662.82	52.8642
1663.08	50.9396
1663.34	50.91
1663.6	49.9143
1663.86	47.9241
1664.12	51.7681
1664.38	49.8469
1664.64	50.8448
1664.9	45.9109
1665.16	53.8349
1665.42	49.8918
1665.68	52.7976
1665.94	54.719
1666.2	55.8464
1666.46	51.9013
1666.72	50.9055
1666.98	53.7951
1667.24	52.6428
1667.5	48.847
1667.76	47.8479
1668.02	51.7856
1668.28	52.7653
1668.54	57.6877
1668.8	49.7948
1669.06	46.8544
1669.32	48.8544
1669.58	45.8949
1669.84	50.833
1670.1	57.7477
1670.36	45.8879
1670.62	52.8001
1670.88	50.8493
1671.14	48.8875
1671.4	55.8
1671.66	51.8405
1671.92	45.9066
1672.18	49.8605
1672.44	50.8516
1672.69	45.9091
1672.95	52.8268
1673.21	52.8249
1673.47	55.7904
1673.73	52.8254
1673.99	44.9181
1674.25	55.7976
1674.51	44.9255
1674.77	53.8307
1675.03	47.901
1675.29	51.8659
1675.55	50.8827
1675.81	54.844
1676.07	51.8742
1676.33	50.8821
1676.59	50.8822
1676.85	49.8935
1677.11	45.9342
1677.37	50.8806
1677.63	50.876
1677.89	50.8698
1678.14	44.9242
1678.4	52.828
1678.66	52.8149
1678.92	46.8704
1679.18	52.7947
1679.44	52.7866
1679.7	47.8379
1679.96	55.7388
1680.22	46.8364
1680.48	49.796
1680.74	56.7063
1681	51.7586
1681.26	51.7523
1681.52	50.7602
1681.78	51.7455
1682.03	49.7676
1682.29	48.7779
1682.55	52.7283
1682.81	46.8001
1683.07	48.7723
1683.33	47.7813
1683.59	47.779
1683.85	49.753
1684.11	47.7742
1684.37	52.7084
1684.63	46.7729
1684.89	49.7299
1685.14	45.7756
1685.4	54.6596
1685.66	51.6945
1685.92	53.6675
1686.18	49.7164
1686.44	50.7033
1686.7	49.7181
1686.96	49.7266
1687.22	51.7057
1687.48	56.6447
1687.73	47.7482
1687.99	49.7164
1688.25	48.7214
1688.51	49.7027
1688.77	49.6955
1689.03	47.7121
1689.29	45.7261
1689.55	51.638
1689.81	52.614
1690.06	56.5481
1690.32	44.6981
1690.58	50.611
1690.84	48.648
1691.1	42.733
1691.36	47.6685
1691.62	53.5898
1691.88	49.6463
1692.13	49.649
1692.39	55.5691
1692.65	49.6429
1692.91	47.6604
1693.17	51.5959
1693.43	49.6099
1693.69	45.6505
1693.95	50.5641
1694.2	54.4945
1694.46	54.4821
1694.72	47.5728
1694.98	44.6091
1695.24	45.5917
1695.5	48.5479
1695.76	48.5489
1696.01	41.6535
1696.27	52.4927
1696.53	48.5565
1696.79	53.4869
1697.05	50.5282
1697.31	51.5072
1697.57	47.555
1697.82	49.5111
1698.08	53.4352
1698.34	50.4687
1698.6	52.4269
1698.86	48.4799
1699.12	48.4716
1699.38	48.4664
1699.63	53.3831
1699.89	45.5123
1700.15	50.4311
1700.41	50.4302
1700.67	47.4676
1700.92	47.4638
1701.18	55.3301
1701.44	45.4881
1701.7	47.4496
1701.96	52.3574
1702.22	47.429
1702.47	50.3681
1702.73	51.3393
1702.99	47.3973
1703.25	48.3755
1703.51	43.4592
1703.77	52.2978
1704.02	54.256
1704.28	49.3389
1704.54	54.2542
1704.8	51.3118
1705.06	49.3463
1705.32	46.3943
1705.57	47.3722
1705.83	49.3356
1706.09	51.299
1706.35	46.3772
1706.61	50.2944
1706.86	50.2809
1707.12	48.3031
1707.38	54.1783
1707.64	47.296
1707.9	49.2437
1708.16	49.2264
1708.41	49.209
1708.67	47.2316
1708.93	42.3142
1709.19	54.0514
1709.44	52.079
1709.7	50.1115
1709.96	46.1904
1710.22	52.0615
1710.48	47.166
1710.73	52.0607
1710.99	49.126
1711.25	44.2355
1711.51	48.1551
1711.77	45.2194
1712.02	50.1184
1712.28	45.22
1712.54	49.1308
1712.8	46.178
1713.06	49.0934
1713.31	50.0489
1713.57	48.0715
1713.83	44.1422
1714.09	48.0326
1714.34	45.091
1714.6	46.0605
1714.86	48.9847
1715.12	47.0267
1715.38	51.9076
1715.63	51.9147
1715.89	48.016
1716.15	51.9223
1716.41	44.1002
1716.66	46.0458
1716.92	47.9876
1717.18	50.9014
1717.44	47.9537
1717.69	53.7855
1717.95	47.9063
1718.21	49.833
1718.47	45.915
1718.72	49.7941
1718.98	47.8338
1719.24	44.9051
1719.5	46.8497
1719.75	48.7947
1720.01	50.7373
1720.27	46.8446
1720.53	47.8185
1720.78	50.7328
1721.04	50.7219
1721.3	52.6527
1721.56	42.9103
1721.81	49.7092
1722.07	47.7511
1722.33	48.7097
1722.59	46.7514
1722.84	46.7378
1723.1	50.6111
1723.36	50.5986
1723.62	48.6457
1723.87	47.6673
1724.13	47.665
1724.39	45.7173
1724.64	49.5968
1724.9	46.6747
1725.16	50.5427
1725.42	50.5212
1725.67	50.5014
1725.93	46.603
1726.19	46.5898
1726.45	51.4277
1726.7	54.3371
1726.96	54.3312
1727.22	46.5701
1727.47	49.4575
1727.73	51.3916
1727.99	46.5582
1728.24	49.4597
1728.5	49.4496
1728.76	48.461
1729.02	53.2265
1729.27	44.4549
1729.53	49.2519
1729.79	43.4863
1730.05	52.1998
1730.3	47.3873
1730.56	53.1505
1730.82	48.3073
1731.07	46.3704
1731.33	45.4546
1731.59	50.2881
1731.84	52.2203
1732.1	48.3516
1732.36	53.1789
1732.61	46.4079
1732.87	45.4349
1733.13	47.3584
1733.39	42.5174
1733.64	42.5027
1733.9	47.3099
1734.16	49.2179
1734.41	50.1657
1734.67	49.1841
1734.93	45.3111
1735.18	49.1487
1735.44	50.0945
1735.7	50.0787
1735.95	49.1037
1736.21	44.2815
1736.47	45.2381
1736.72	47.1565
1736.98	47.1485
1737.24	49.0647
1737.49	45.2077
1737.75	50.9712
1738.01	50.963
1738.26	50.9523
1738.52	47.0942
1738.78	48.0437
1739.03	50.9148
1739.29	48.0186
1739.55	48.9635
1739.8	46.063
1740.06	49.8792
1740.32	48.897
1740.57	48.8767
1740.83	44.0666
1741.09	47.8875
1741.34	48.8331
1741.6	49.7785
1741.86	50.7243
1742.11	48.799
1742.37	47.8347
1742.63	46.8727
1742.88	52.6113
1743.14	50.6896
1743.4	46.8559
1743.65	49.7244
1743.91	49.7177
1744.16	51.6195
1744.42	43.9551
1744.68	51.5994
1744.93	49.681
1745.19	50.6356
1745.45	44.8956
1745.7	48.72
1745.96	45.8463
1746.22	53.4896
1746.47	50.6086
1746.73	45.8142
1746.98	47.71
1747.24	43.8755
1747.5	49.592
1747.75	47.669
1748.01	47.6561
1748.27	48.6035
1748.52	48.6006
1748.78	48.5995
1749.03	47.6452
1749.29	47.6467
1749.55	47.6505
1749.8	46.7016
1750.06	48.6194
1750.32	47.6734
1750.57	44.8161
1750.83	45.7798
1751.08	49.6054
1751.34	48.6534
1751.6	51.5211
1751.85	46.7333
1752.11	44.8069
1752.36	52.4342
1752.62	45.7346
1752.88	51.4525
1753.13	52.3938
1753.39	47.608
1753.64	51.4144
1753.9	52.358
1754.15	43.762
1754.41	47.5656
1754.67	49.4605
1754.92	51.358
1755.18	48.4892
1755.43	44.6692
1755.69	46.5679
1755.95	49.417
1756.2	47.4994
1756.46	49.3908
1756.71	45.567
1756.97	44.5986
1757.23	47.4374
1757.48	45.5192
1757.74	40.756
1757.99	43.6025
1758.25	53.1149
1758.5	44.5662
1758.76	52.1809
1759.02	39.8103
1759.27	50.2763
1759.53	50.2753
1759.78	45.5181
1760.04	48.3705
1760.3	45.5105
1760.55	45.5049
1760.81	49.3044
1761.06	48.3456
1761.32	46.4339
1761.57	50.2266
1761.83	49.2651
1762.08	49.2573
1762.34	50.2025
1762.6	47.3471
1762.85	44.5014
1763.11	51.1605
1763.36	48.3074
1763.62	44.5004
1763.87	48.3035
1764.13	46.4035
1764.38	49.2598
1764.64	40.7075
1764.89	49.2852
1765.15	48.3397
1765.4	51.2001
1765.66	44.5396
1765.92	43.5889
1766.17	47.3971
1766.43	44.5394
1766.68	52.1526
1766.94	48.3389
1767.19	45.4781
1767.45	47.3795
1767.7	52.133
1767.96	44.5106
1768.21	45.4537
1768.47	48.301
1768.73	50.1978
1768.98	49.2412
1769.24	49.2192
1769.49	52.0412
1769.75	46.3132
1770	49.1442
1770.26	45.3456
1770.51	47.2544
1770.77	47.2646
1771.02	38.7132
1771.28	46.3155
1771.53	42.5247
1771.79	47.2923
1772.04	48.2476
1772.3	47.2977
1772.55	49.2062
1772.81	45.4095
1773.06	46.3663
1773.32	51.1283
1773.57	48.2776
1773.83	45.4257
1774.08	52.0916
1774.34	48.2863
1774.59	49.2395
1774.85	46.384
1775.1	43.5323
1775.36	44.4864
1775.61	43.5403
1775.87	51.182
1776.12	54.0533
1776.38	52.1522
1776.63	45.4791
1776.89	48.3352
1777.14	48.3274
1777.4	49.2704
1777.65	47.3576
1777.91	48.3001
1778.16	47.3372
1778.42	42.5647
1778.67	44.4598
1778.93	51.1128
1779.18	46.3387
1779.44	52.0331
1779.69	48.2174
1779.95	45.3609
1780.2	44.4208
1780.46	48.2292
1780.71	49.1829
1780.97	47.2819
1781.22	47.2851
1781.47	45.3805
1781.73	47.2849
1781.98	44.4312
1782.24	50.1493
1782.49	50.1559
1782.75	45.4029
1783	53.0308
1783.26	47.318
1783.51	44.4625
1783.77	51.1389
1784.02	50.1908
1784.28	48.2897
1784.53	51.1577
1784.79	48.3077
1785.04	50.2218
1785.29	47.3621
1785.55	48.3146
1785.8	48.3104
1786.06	45.4418
1786.31	46.3891
1786.57	48.2961
1786.82	39.7128
1787.08	49.2591
1787.33	48.3138
1787.58	48.3257
1787.84	44.5225
1788.09	45.5035
1788.35	49.3563
1788.6	44.6023
1788.86	51.3206
1789.11	43.6686
1789.37	52.2963
1789.62	45.6084
1789.87	47.535
1790.13	44.6645
1790.38	54.2541
1790.64	49.4664
1790.89	48.5066
1791.15	44.6682
1791.4	47.5317
1791.65	51.332
1791.91	46.5372
1792.16	46.5309
1792.42	53.2337
1792.67	46.5303
1792.93	47.489
1793.18	52.2832
1793.43	49.4121
1793.69	48.4538
1793.94	45.5785
1794.2	50.3739
1794.45	43.6668
1794.7	47.4972
1794.96	44.614
1795.21	46.5419
1795.47	46.5769
1795.72	45.64
1795.97	45.6505
1796.23	50.4564
1796.48	46.6233
1796.74	46.6307
1796.99	49.5203
1797.25	45.6857
1797.5	49.5367
1797.75	49.5432
1798.01	44.7419
1798.26	43.784
1798.51	46.671
1798.77	45.7107
1799.02	44.7479
1799.28	47.6283
1799.53	47.6215
1799.78	43.7672
1800.04	48.5623
1800.29	44.7082
1800.55	52.3862
1800.8	44.693
1801.05	48.5297
1801.31	40.8409
1801.56	43.7194
1801.81	51.4018
1802.07	44.6782
1802.32	48.5221
1802.58	48.5253
1802.83	46.6085
1803.08	47.5758
1803.34	45.6613
1803.59	46.6311
1803.84	50.4842
1804.1	44.7172
1804.35	50.4885
1804.61	48.5697
1804.86	48.5774
1805.11	46.6604
1805.37	46.6694
1805.62	45.7169
1805.87	43.8007
1806.13	46.6981
1806.38	40.9248
1806.64	44.7838
1806.89	44.7884
1807.14	43.827
1807.4	48.6458
1807.65	44.7895
1807.9	44.788
1808.16	49.6061
1808.41	49.6054
1808.66	48.6411
1808.92	40.9298
1809.17	47.6773
1809.42	49.6056
1809.68	45.7496
1809.93	49.6063
1810.18	47.6785
1810.44	51.5352
1810.69	52.4983
1810.94	48.6376
1811.2	49.5976
1811.45	47.6671
1811.7	44.7722
1811.96	48.6262
1812.21	42.8407
1812.46	43.8053
1812.72	44.7727
1812.97	45.7419
1813.22	47.6776
1813.48	46.7183
1813.73	48.649
1813.98	47.6895
1814.24	42.8731
1814.49	48.6754
1814.74	50.6189
1815	43.8724
1815.25	47.7441
1815.5	46.7837
1815.76	45.8197
1816.01	47.7535
1816.26	47.7541
1816.52	52.588
1816.77	51.6233
1817.02	47.7586
1817.27	48.7208
1817.53	47.7455
1817.78	45.7891
1818.03	48.6692
1818.29	42.8751
1818.54	46.7452
1818.79	50.6214
1819.05	48.6951
1819.3	49.6573
1819.55	48.6929
1819.8	46.7641
1820.06	49.6682
1820.31	45.804
1820.56	45.8078
1820.82	43.8784
1821.07	46.7831
1821.32	45.8187
1821.58	41.9539
1821.83	45.8292
1822.08	45.8343
1822.33	47.7737
1822.59	41.9691
1822.84	48.7462
1823.09	45.8433
1823.34	50.6843
1823.6	48.7456
1823.85	47.7718
1824.1	41.9579
1824.36	47.7623
1824.61	53.5723
1824.86	49.7033
1825.11	47.7698
1825.37	43.9001
1825.62	50.6816
1825.87	46.8101
1826.12	49.7147
1826.38	45.8391
1826.63	47.7753
1826.88	52.6175
1827.14	47.7745
1827.39	53.5875
1827.64	50.685
1827.89	49.7203
1828.15	44.8791
1828.4	47.7845
1828.65	48.7498
1828.9	43.8994
1829.16	49.7033
1829.41	44.8541
1829.66	43.8822
1829.91	45.8158
1830.17	51.622
1830.42	42.8993
1830.67	46.7656
1830.92	47.7271
1831.18	53.5343
1831.43	46.7611
1831.68	48.7026
1831.93	44.8337
1832.19	48.7124
1832.44	43.8732
1832.69	41.94
1832.94	43.8852
1833.2	46.7976
1833.45	47.7662
1833.7	48.735
1833.95	48.7379
1834.2	46.7997
1834.46	45.8318
1834.71	50.6645
1834.96	50.6358
1835.21	51.5771
1835.47	50.5835
1835.72	52.5018
1835.97	51.5184
1836.22	48.6142
1836.48	51.5023
1836.73	51.7121
1836.98	48.7912
1837.23	47.7535
1837.48	55.4818
1837.74	43.8192
1837.99	45.7255
1838.24	48.5773
1838.49	49.5117
1838.74	51.436
1839	45.7152
1839.25	49.6211
1839.5	50.607
1839.75	44.7988
1840	48.6797
1840.26	47.721
1840.51	49.6119
1840.76	45.704
1841.01	48.5764
1841.27	49.5166
1841.52	46.5925
1841.77	48.5014
1842.02	48.4799
1842.27	50.3905
1842.53	45.5476
1842.78	50.3529
1843.03	49.3955
1843.28	49.3889
1843.53	45.5344
1843.78	46.4966
1844.04	46.4949
1844.29	45.5237
1844.54	52.2734
1844.79	50.349
1845.04	48.4191
1845.3	46.4802
1845.55	44.5513
1845.8	48.4082
1846.05	48.4268
1846.3	49.4121
1846.55	50.3959
1846.81	49.4638
1847.06	44.6045
1847.31	50.3252
1847.56	52.1634
1847.81	46.3688
1848.07	45.4054
1848.32	49.2794
1848.57	51.2281
1848.82	53.1259
1849.07	50.2215
1849.32	47.3328
1849.57	52.135
1849.83	48.2686
1850.08	48.2516
1850.33	47.2737
1850.58	49.1769
1850.83	47.2382
1851.09	43.3804
1851.34	52.9762
1851.59	51.0433
1851.84	51.9944
1852.09	49.1065
1852.34	48.1422
1852.59	46.2196
1852.84	51.9794
1853.1	49.0969
1853.35	51.9744
1853.6	46.2084
1853.85	51.0018
1854.1	50.0301
1854.35	50.9739
1854.6	49.0369
1854.86	51.898
1855.11	50.9293
1855.36	54.7546
1855.61	49.9446
1855.86	52.8006
1856.11	52.7889
1856.36	49.9088
1856.61	50.8623
1856.87	49.9028
1857.12	51.8164
1857.37	54.6857
1857.62	54.6791
1857.87	42.2224
1858.12	49.8751
1858.37	51.7801
1858.63	44.1108
1858.88	51.7542
1859.13	53.6536
1859.38	50.7693
1859.63	52.6669
1859.88	48.8316
1860.13	50.7408
1860.38	46.9152
1860.63	49.7847
1860.89	50.7489
1861.14	49.7997
1861.39	49.8055
1861.64	52.6837
1861.89	47.9059
1862.14	51.7348
1862.39	50.7734
1862.64	49.8072
1862.9	53.621
1863.15	56.4755
1863.4	49.7673
1863.65	54.5335
1863.9	46.8742
1864.15	52.5964
1864.4	55.451
1864.65	49.7083
1864.9	52.5627
1865.15	51.5951
1865.4	49.6708
1865.66	55.3798
1865.91	48.6815
1866.16	52.4754
1866.41	49.5918
1866.66	50.5213
1866.91	54.3077
1867.16	48.5709
1867.41	49.5006
1867.66	46.6262
1867.91	51.3654
1868.16	56.1086
1868.41	50.3963
1868.67	51.3417
1868.92	50.3902
1869.17	49.4405
1869.42	52.2905
1869.67	50.3847
1869.92	47.528
1870.17	58.9301
1870.42	50.3708
1870.67	56.0693
1870.92	55.1149
1871.17	55.1118
1871.42	54.1589
1871.67	53.2029
1871.92	52.2449
1872.17	56.0343
1872.42	55.0759
1872.68	56.9683
1872.93	58.8553
1873.18	54.094
1873.43	58.8316
1873.68	48.3848
1873.93	55.0238
1874.18	55.0143
1874.43	52.1553
1874.68	54.0392
1874.93	54.0238
1875.18	54.0081
1875.43	59.6792
1875.68	53.9742
1875.93	57.7424
1876.18	55.8146
1876.43	57.685
1876.68	52.9344
1876.93	57.6496
1877.18	55.7478
1877.43	51.9364
1877.68	52.8475
1877.93	53.7282
1878.18	52.8265
1878.44	60.6036
1878.69	54.8364
1878.93	52.9174
1879.19	58.5853
1879.44	60.534
1879.69	53.9287
1879.94	56.7518
1880.19	52.9451
1880.44	53.8876
1880.69	60.5094
1880.94	56.7337
1881.19	54.8256
1881.44	52.9277
1881.69	50.0648
1881.94	55.7129
1882.19	52.8467
1882.44	55.6508
1882.69	54.6721
1882.94	54.6316
1883.19	48.9538
1883.44	53.6293
1883.69	61.5811
1883.94	56.5845
1884.19	58.3175
1884.44	63.0327
1884.69	58.354
1884.94	48.8956
1885.19	55.5127
1885.44	60.2571
1885.69	53.6596
1885.94	54.6086
1886.19	52.746
1886.44	58.4229
1886.69	58.4305
1886.94	58.4229
1887.19	54.6203
1887.44	56.4938
1887.69	60.2529
1887.94	55.5196
1888.19	47.0156
1888.44	53.6001
1888.69	58.2892
1888.94	53.5563
1889.19	53.5373
1889.44	56.3433
1889.69	55.3906
1889.94	54.4456
1890.19	65.7369
1890.44	56.3275
1890.69	59.1638
1890.94	58.2342
1891.19	51.6434
1891.43	56.3491
1891.68	51.6332
1891.94	50.6888
1892.18	59.1591
1892.43	61.0376
1892.68	55.3839
1892.93	54.4326
1893.18	53.4781
1893.43	60.0437
1893.68	57.1867
1893.93	53.3967
1894.18	55.2681
1894.43	59.0357
1894.68	55.2534
1894.93	53.3626
1895.18	61.8117
1895.43	53.3566
1895.68	52.4195
1895.93	57.1216
1896.18	49.6087
1896.43	51.4934
1896.68	51.5003
1896.93	55.2698
1897.18	61.8606
1897.42	50.5809
1897.68	53.406
1897.92	59.9916
1898.17	51.5237
1898.42	52.4594
1898.67	55.273
1898.92	52.4405
1899.17	58.0674
1899.42	58.0507
1899.67	58.0377
1899.92	57.0902
1900.17	55.2021
1900.42	51.4358
1900.67	50.493
1900.92	54.2505
1901.16	53.315
1901.41	51.4431
1901.66	58.0313
1901.91	53.3411
1902.16	52.4103
1902.41	49.6
1902.66	55.2532
1902.91	60.8963
1903.16	53.3646
1903.41	58.0599
1903.66	55.23
1903.91	52.4024
1904.16	54.2778
1904.41	52.3931
1904.65	47.6889
1904.9	58.9674
1905.15	56.1422
1905.4	59.8985
1905.65	59.896
1905.9	50.4908
1906.15	54.2337
1906.4	53.2736
1906.65	53.2644
1906.9	53.2563
1907.14	55.1273
1907.39	56.9997
1907.64	52.3035
1907.89	51.3659
1908.14	52.3103
1908.39	56.0764
1908.64	59.8375
1908.89	54.2021
1909.14	48.5684
1909.39	54.2134
1909.63	49.523
1909.88	51.4147
1910.13	54.2504
1910.38	50.5036
1910.63	57.1083
1910.88	56.1832
1911.13	51.4861
1911.38	55.2601
1911.62	52.4383
1911.87	57.1488
1912.12	58.0887
1912.37	51.4896
1912.62	57.1355
1912.87	53.3652
1913.12	51.4798
1913.37	55.2457
1913.61	51.4786
1913.86	57.1372
1914.11	56.21
1914.36	57.1692
1914.61	53.4098
1914.86	48.7043
1915.11	57.2028
1915.36	56.2692
1915.6	52.5015
1915.85	60.0522
1916.1	51.5566
1916.35	51.5506
1916.6	56.2636
1916.85	51.537
1917.1	52.4674
1917.34	56.2284
1917.59	60.9327
1917.84	56.2108
1918.09	54.3202
1918.34	50.5491
1918.59	51.4976
1918.83	53.3938
1919.08	52.4635
1919.33	51.5343
1919.58	58.1574
1919.83	49.6813
1920.08	52.5317
1920.33	54.4301
1920.57	48.7615
1920.82	55.3678
1921.07	55.37
1921.32	55.3829
1921.57	56.3416
1921.81	53.5122
1922.06	56.3553
1922.31	57.3046
1922.56	51.6285
1922.81	57.2969
1923.06	51.613
1923.31	50.6584
1923.55	59.1598
1923.8	51.5912
1924.05	50.6395
1924.3	52.5206
1924.55	52.5094
1924.79	54.3908
1925.04	57.2212
1925.29	57.2219
1925.54	56.283
1925.79	50.6229
1926.04	53.4733
1926.28	49.7042
1926.53	49.7157
1926.78	54.459
1927.03	55.4214
1927.28	54.4849
1927.52	52.5981
1927.77	50.7101
1928.02	54.5034
1928.27	49.7722
1928.52	54.5127
1928.76	59.252
1929.01	48.8356
1929.26	50.7358
1929.51	52.6381
1929.76	54.5444
1930	58.3535
1930.25	47.9329
1930.5	58.3837
1930.75	53.6511
1931	55.5629
1931.24	51.7679
1931.49	48.9194
1931.74	52.7115
1931.99	54.6014
1932.24	48.8974
1932.48	51.7358
1932.73	53.6247
1932.98	54.5633
1933.23	59.3027
1933.47	54.5501
1933.72	53.6034
1933.97	60.26
1934.22	50.7944
1934.46	53.6768
1934.71	48.0186
1934.96	52.8174
1935.21	56.6655
1935.46	57.6523
1935.7	53.8658
1935.95	55.7903
1936.2	60.5168
1936.45	50.0253
1936.69	55.7384
1936.94	50.9652
1937.19	52.8582
1937.44	54.7483
1937.68	52.8306
1937.93	57.578
1938.18	49.9504
1938.43	51.8418
1938.68	51.8397
1938.92	55.6647
1939.17	55.6699
1939.42	57.5816
1939.67	57.5899
1939.91	56.6433
1940.16	49.9819
1940.41	51.888
1940.66	51.8993
1940.9	53.8173
1941.15	54.8059
1941.4	51.0087
1941.64	54.8242
1941.89	54.8154
1942.14	52.8862
1942.39	50.9456
1942.63	50.0093
1942.88	57.697
1943.13	51.9803
1943.38	56.7552
1943.62	57.6847
1943.87	53.8403
1944.12	54.7735
1944.37	53.853
1944.61	52.9088
1944.86	51.009
1945.11	51.0194
1945.35	55.8068
1945.6	51.042
1945.85	54.8761
1946.1	55.8428
1946.34	52.0275
1946.59	51.0777
1946.84	44.3873
1947.09	53.9528
1947.33	53.95
1947.58	50.1183
1947.83	55.8489
1948.07	50.1086
1948.32	52.0189
1948.57	50.1045
1948.82	54.8794
1949.06	52.012
1949.31	52.02
1949.56	52.0292
1949.8	48.2118
1950.05	54.9218
1950.3	52.0632
1950.54	53.9994
1950.79	54.0232
1951.04	45.4149
1951.29	53.1023
1951.53	54.0824
1951.78	54.1019
1952.03	48.3576
1952.27	48.3658
1952.52	50.2923
1952.77	53.1803
1953.01	42.6122
1953.26	49.3426
1953.51	51.2755
1953.76	49.3382
1954	51.2378
1954.25	54.0813
1954.49	47.3353
1954.74	54.9764
1954.99	54.9491
1955.24	45.3597
1955.48	53.9779
1955.73	52.0668
1955.98	50.163
1956.22	56.8949
1956.47	46.3806
1956.72	52.1507
1956.96	44.4862
1957.21	51.214
1957.46	50.2643
1957.7	55.0768
1957.95	52.2034
1958.2	46.4437
1958.44	42.6027
1958.69	45.4877
1958.94	53.1781
1959.18	52.2109
1959.43	50.2771
1959.68	52.192
1959.92	53.1492
1960.17	50.2572
1960.42	46.4053
1960.66	48.3173
1960.91	53.1084
1961.16	47.3362
1961.4	53.0852
1961.65	50.1961
1961.9	53.0681
1962.14	50.1893
1962.39	54.0296
1962.63	51.1508
1962.88	54.9908
1963.13	53.0719
1963.37	52.1126
1963.62	54.9927
1963.87	53.0732
1964.11	49.2341
1964.36	44.438
1964.61	55.0043
1964.85	51.1607
1965.1	50.1948
1965.35	51.1545
1965.59	49.2305
1965.84	48.2698
1966.08	55.9556
1966.33	51.1626
1966.58	51.1728
1966.82	50.222
1967.07	53.1117
1967.32	51.1946
1967.56	49.269
1967.81	50.2291
1968.05	50.232
1968.3	56.0004
1968.55	50.2331
1968.79	50.2305
1969.04	48.3016
1969.29	58.8635
1969.53	49.2382
1969.78	54.984
1970.02	50.1631
1970.27	50.1482
1970.52	50.1358
1970.76	53.006
1971.01	62.5903
1971.25	53.9445
1971.5	50.0994
1971.75	49.1335
1971.99	50.0871
1972.24	51.0484
1972.48	52.0112
1972.73	46.2562
1972.98	47.2134
1973.22	52.0039
1973.47	49.116
1973.71	55.8155
1973.96	58.6796
1974.21	54.8356
1974.45	50.995
1974.7	51.9499
1974.94	47.156
1975.19	49.0732
1975.44	53.8689
1975.68	48.1219
1975.93	49.0868
1976.17	51.0099
1976.42	49.0955
1976.66	53.8932
1976.91	46.2197
1977.16	51.9738
1977.4	56.7667
1977.65	51.9654
1977.89	50.0396
1978.14	44.2765
1978.39	47.1436
1978.63	53.8458
1978.88	53.8382
1979.12	48.0822
1979.37	49.039
1979.61	47.1219
1979.86	49.0376
1980.1	50.9551
1980.35	55.7472
1980.6	54.7816
1980.84	49.02
1981.09	50.9262
1981.33	47.0877
1981.58	49.9531
1981.82	46.1144
1982.07	50.8984
1982.31	54.7259
1982.56	54.7221
1982.81	50.8813
1983.05	50.8709
1983.3	47.0282
1983.54	43.1846
1983.79	48.9135
1984.03	46.0371
1984.28	54.641
1984.52	53.6774
1984.77	49.8446
1985.02	49.8385
1985.26	48.8722
1985.51	46.9456
1985.75	50.761
1986	48.848
1986.24	46.9378
1986.49	49.8108
1986.73	55.5546
1986.98	55.5577
1987.22	48.8606
1987.47	50.7752
1987.71	46.9403
1987.96	51.7036
1988.21	49.7732
1988.45	50.7075
1988.7	47.8186
1988.94	50.6346
1989.19	47.7616
1989.43	49.7248
1989.68	53.3242
1989.92	51.3063
1990.17	46.7405
1990.41	52.436
1990.66	47.1254
1990.9	51.559
1991.15	48.5539
1991.39	47.3876
1991.64	45.381
1991.88	48.0311
1992.13	51.2383
1992.37	50.786
1992.62	47.6825
1992.86	52.8776
1993.11	47.6481
1993.35	46.8262
1993.6	46.6711
1993.84	51.3714
1994.09	52.6458
1994.33	50.2805
1994.58	47.5645
1994.82	49.7813
1995.07	51.8902
1995.31	49.8419
1995.56	48.5526
1995.8	49.8499
1996.05	48.5143
1996.29	53.5157
1996.54	54.0796
1996.78	45.8994
1997.03	47.7611
1997.27	51.0784
1997.52	46.5342
1997.76	48.2501
1998.01	48.6872
1998.25	50.7556
1998.5	51.9733
1998.74	51.0464
1998.99	48.9038
1999.23	48.8529
1999.48	49.8171
1999.72	49.8728
1999.97	52.4975
2000.21	51.3686
2000.46	50.9343
2000.7	49.339
2000.95	48.7248
2001.19	51.6808
2001.43	51.5782
2001.68	51.7609
2001.92	53.3799
2002.17	51.7963
2002.41	49.6658
2002.66	52.0495
2002.9	52.3957
2003.15	50.6303
2003.39	49.6547
2003.64	49.3467
2003.88	48.1509
2004.13	51.0716
2004.37	49.6922
2004.61	47.9361
2004.86	48.1062
2005.1	50.5011
2005.35	51.102
2005.59	49.8067
2005.84	51.5969
2006.08	49.9472
2006.33	49.7776
2006.57	52.1355
2006.81	49.7105
2007.06	50.2905
2007.3	50.7866
2007.55	51.0606
2007.79	51.3311
2008.04	55.1424
2008.28	49.8529
2008.53	52.2435
2008.77	51.8076
2009.01	45.8874
2009.26	50.9817
2009.5	50.8709
2009.75	49.1727
2009.99	54.5229
2010.24	49.9545
2010.48	51.2273
2010.73	48.1661
2010.97	45.6016
2011.21	48.7806
2011.46	50.4425
2011.7	48.7581
2011.95	53.1156
2012.19	51.2928
2012.43	48.5619
2012.68	52.3238
2012.92	52.3194
2013.17	52.308
2013.42	52.2893
2013.67	50.3817
2013.91	54.1278
2014.16	49.4078
2014.41	48.446
2014.66	49.359
2014.9	47.4584
2015.15	49.3286
2015.4	47.4533
2015.64	54.0294
2015.89	47.4666
2016.14	47.4717
2016.39	57.7929
2016.63	54.0508
2016.88	52.2104
2017.13	51.2775
2017.37	51.2739
2017.62	54.0846
2017.87	51.2531
2018.11	52.176
2018.36	48.4002
2018.61	44.626
2018.86	47.4234
2019.1	48.3433
2019.35	53.9477
2019.6	52.0536
2019.84	49.2325
2020.09	53.9085
2020.34	54.8404
2020.58	50.1556
2020.83	48.2795
2021.08	55.7693
2021.33	52.0255
2021.57	52.9649
2021.82	49.218
2022.07	52.9615
2022.31	50.1465
2022.56	48.2661
2022.81	48.2564
2023.05	51.9881
2023.3	48.23
2023.55	44.4771
2023.8	45.4021
2024.04	50.0672
2024.29	50.9906
2024.54	50.9802
2024.78	52.8318
2025.03	51.879
2025.27	49.9937
2025.52	53.7113
2025.77	52.7617
2026.02	50.8809
2026.26	56.4582
2026.51	53.6651
2026.76	54.6175
2027	50.9168
2027.25	53.7581
2027.5	52.8684
2027.74	51.0245
2027.99	51.0171
2028.23	49.1144
2028.48	48.1346
2028.73	48.0036
2028.98	49.9983
2029.22	52.9927
2029.47	50.0797
2029.72	54.8081
2029.96	48.1682
2030.21	52.7845
2030.45	52.7241
2030.7	52.7207
2030.95	51.7452
2031.19	51.7822
2031.44	51.8122
2031.69	49.0047
2031.93	49.9376
2032.18	47.1392
2032.43	51.8191
2032.67	54.6366
2032.92	51.854
2033.17	49.0675
2033.41	55.6217
2033.66	51.8934
2033.91	51.9082
2034.15	51.9151
2034.4	55.6264
2034.64	50.918
2034.89	54.5982
2035.14	48.0534
2035.38	54.6061
2035.63	49.9562
2035.87	52.7864
2036.12	50.9544
2036.37	53.7859
2036.61	47.236
2036.86	48.1458
2037.11	54.6904
2037.35	50.0278
2037.6	55.6371
2037.84	52.8288
2038.09	52.8231
2038.34	49.0768
2038.58	47.1999
2038.83	52.7991
2039.08	53.7245
2039.32	55.5838
2039.57	49.0352
2039.81	49.9602
2040.06	51.8159
2040.31	53.6676
2040.55	54.5854
2040.8	48.9732
2041.04	50.8263
2041.29	53.6127
2041.54	55.4675
2041.78	51.7334
2042.03	54.5262
2042.27	51.722
2042.52	48.9194
2042.77	47.9768
2043.01	56.3577
2043.26	48.9033
2043.5	48.9071
2043.75	50.7838
2044	55.4656
2044.24	52.6897
2044.49	46.1664
2044.73	55.4929
2044.98	51.7482
2045.23	46.1307
2045.47	52.6093
2045.72	54.5383
2045.96	51.7559
2046.21	44.3549
2046.45	50.0411
2046.7	49.063
2046.95	52.7515
2047.19	51.7788
2047.44	55.5141
2047.68	53.6308
2047.93	51.7227
2048.17	47.0503
2048.42	47.9839
2048.67	51.7148
2048.91	54.5147
2049.16	44.263
2049.4	55.4661
2049.65	48.9472
2049.89	53.6265
2050.14	47.1109
2050.39	49.9245
2050.63	46.2019
2050.88	51.8139
2051.12	48.079
2051.37	49.9438
2051.61	48.0651
2051.86	56.4542
2052.11	52.7182
2052.35	57.3875
2052.6	57.3958
2052.84	47.1245
2053.09	47.1295
2053.33	54.6103
2053.58	51.8175
2053.82	48.0917
2054.07	49.9841
2054.31	52.7989
2054.56	51.87
2054.8	54.6776
2055.05	50.9341
2055.3	49.9956
2055.54	49.0562
2055.79	53.7195
2056.03	49.0379
2056.28	46.2302
2056.52	52.7693
2056.77	52.7631
2057.01	49.955
2057.26	53.693
2057.5	51.8256
2057.75	51.8291
2058	50.9001
2058.24	54.6478
2058.49	50.9146
2058.73	49.9912
2058.98	48.1306
2059.22	51.8838
2059.47	51.8914
2059.71	52.8302
2059.96	47.2156
2060.2	57.5144
2060.45	50.954
2060.69	56.5615
2060.94	55.6191
2061.18	46.2656
2061.43	50.0162
2061.67	55.6381
2061.92	51.895
2062.16	51.8956
2062.41	50.0244
2062.65	52.8366
2062.9	49.0958
2063.14	48.1656
2063.39	52.8579
2063.63	52.8663
2063.88	44.4389
2064.12	54.7527
2064.37	50.0704
2064.61	52.8861
2064.86	51.0168
2065.1	49.1486
2065.35	53.8489
2065.59	51.0503
2065.84	52.0024
2066.08	53.892
2066.33	54.841
2066.57	52.0312
2066.82	45.4597
2067.06	46.4032
2067.31	52.9828
2067.55	57.6837
2067.8	52.9935
2068.04	50.1829
2068.29	56.7678
2068.53	54.8936
2068.78	56.7764
2069.02	55.8444
2069.27	53.0243
2069.51	54.8961
2069.76	55.8196
2070	52.0377
2070.25	54.8457
2070.49	52.0328
2070.73	55.8126
2070.98	54.9002
2071.22	53.9876
2071.47	53.0427
2071.71	51.1459
2071.96	47.4385
2072.2	51.2243
2072.45	54.987
2072.69	53.0992
2072.94	54.9802
2073.18	54.0335
2073.43	53.0914
2073.67	54.0295
2073.92	49.3238
2074.16	55.9158
2074.4	53.0938
2074.65	50.2741
2074.89	44.6316
2075.14	57.8333
2075.38	55.9679
2075.63	56.9353
2075.87	54.1347
2076.12	51.3224
2076.36	50.3875
2076.6	54.1642
2076.85	52.2781
2077.09	56.0477
2077.34	54.1482
2077.58	49.4176
2077.83	50.3374
2078.07	54.1032
2078.31	47.5074
2078.56	54.1205
2078.8	53.1814
2079.05	55.0727
2079.29	53.1929
2079.54	56.9806
2079.78	51.3409
2080.03	56.0735
2080.27	53.2486
2080.51	48.5324
2080.76	55.1532
2081	55.1535
2081.25	52.3126
2081.49	57.9775
2081.74	53.2513
2081.98	50.4157
2082.22	51.3581
2082.47	46.6373
2082.71	53.2549
2082.96	53.2575
2083.2	56.0932
2083.45	56.0917
2083.69	55.144
2083.93	56.0862
2084.18	56.0858
2084.42	51.3613
2084.67	56.085
2084.91	54.1955
2085.15	51.3617
2085.4	53.2517
2085.64	47.5809
2085.89	56.0858
2086.13	57.0344
2086.37	54.2126
2086.62	54.2295
2086.86	53.2957
2087.11	53.3006
2087.35	52.3605
2087.59	51.4225
2087.84	49.5343
2088.08	58.0515
2088.32	51.4273
2088.57	56.1603
2088.81	55.2159
2089.06	54.2718
2089.3	53.3274
2089.54	54.282
2089.79	49.5563
2090.03	54.3047
2090.28	57.1511
2090.52	54.3117
2090.76	55.2626
2091.01	49.5824
2091.25	53.3777
2091.5	55.2786
2091.74	48.6494
2091.98	55.2978
2092.23	55.3135
2092.47	58.1768
2092.72	50.6035
2092.96	53.4685
2093.2	54.432
2093.45	54.4452
2093.69	46.8582
2093.93	53.5213
2094.18	58.2844
2094.42	53.5415
2094.66	53.5442
2094.91	59.2481
2095.15	52.5898
2095.39	58.2894
2095.64	53.5267
2095.88	54.4666
2096.13	54.4584
2096.37	56.3518
2096.61	51.5971
2096.86	56.3445
2097.1	47.7924
2097.34	50.6348
2097.59	45.8761
2097.83	47.7653
2098.07	50.6088
2098.32	54.4028
2098.56	56.2982
2098.8	52.493
2099.05	54.3909
2099.29	57.2363
2099.53	49.64
2099.78	56.2804
2100.02	55.3299
2100.27	52.4828
2100.51	57.2292
2100.75	49.639
2101	57.2371
2101.24	60.099
2101.48	53.4629
2101.73	51.5696
2101.97	55.3716
2102.21	50.622
2102.45	51.5701
2102.7	52.5197
2102.94	54.4156
2103.18	49.6583
2103.43	56.2934
2103.67	53.4387
2103.92	50.5889
2104.16	51.5347
2104.4	52.4844
2104.64	54.387
2104.89	49.6475
2105.13	52.5033
2105.37	53.46
2105.62	53.4689
2105.86	52.5303
2106.1	45.8874
2106.35	58.248
2106.59	52.55
2106.83	54.4535
2107.08	54.4554
2107.32	45.9031
2107.56	52.5597
2107.8	55.4054
2108.05	56.3448
2108.29	51.5784
2108.53	55.3637
2108.78	58.1974
2109.02	58.1846
2109.26	53.432
2109.51	51.5347
2109.75	53.447
2109.99	48.7075
2110.23	53.4574
2110.48	55.3571
2110.72	57.2564
2110.96	52.5059
2111.21	54.4054
2111.45	53.4544
2111.69	62.9494
2111.93	46.7938
2112.18	55.3357
2112.42	57.2312
2112.66	54.3815
2112.91	48.6879
2113.15	53.4416
2113.39	51.5476
2113.63	54.4103
2113.88	52.5202
2114.12	50.6238
2114.36	55.3725
2114.61	55.3671
2114.85	54.4151
2115.09	56.3178
2115.33	60.1203
2115.58	53.464
2115.82	51.5583
2116.06	55.3546
2116.31	50.5987
2116.55	48.6881
2116.79	55.3266
2117.03	45.8242
2117.28	50.5694
2117.52	54.3651
2117.76	51.518
2118	52.4617
2118.25	52.4529
2118.49	54.3421
2118.73	54.3273
2118.97	56.2081
2119.22	51.4523
2119.46	52.3892
2119.7	47.6372
2119.94	53.3142
2120.19	53.3038
2120.43	56.1383
2120.67	53.2922
2120.91	59.9262
2121.16	53.3016
2121.4	56.1495
2121.64	52.3694
2121.88	52.3818
2122.13	50.4959
2122.37	50.5059
2122.61	49.5659
2122.85	51.471
2123.1	57.1723
2123.34	49.5843
2123.58	48.6385
2123.82	52.4375
2124.07	57.1794
2124.31	51.4772
2124.55	52.4169
2124.79	50.5052
2125.03	57.1236
2125.28	50.46
2125.52	53.2798
2125.76	52.3137
2126	51.3502
2126.25	51.3347
2126.49	61.7312
2126.73	51.3093
2126.97	55.082
2127.21	57.9069
2127.46	50.3295
2127.7	53.161
2127.94	56.9396
2128.18	56.9356
2128.43	51.2571
2128.67	57.8701
2128.91	53.1435
2129.15	54.0884
2129.39	48.4143
2129.64	59.7518
2129.88	52.1864
2130.12	55.0187
2130.36	55.9604
2130.6	51.2317
2130.85	52.1722
2131.09	55.0009
2131.33	56.8829
2131.57	53.0958
2131.81	54.9757
2132.06	49.3019
2132.3	52.129
2132.54	48.3462
2132.78	52.1117
2133.02	53.0452
2133.27	57.7576
2133.51	53.0382
2133.75	54.9272
2133.99	53.9851
2134.23	53.0414
2134.48	58.7056
2134.72	54.9318
2134.96	55.8736
2135.2	43.603
2135.44	53.0382
2135.68	56.8095
2135.93	53.0291
2136.17	56.7929
2136.41	54.8888
2136.65	48.272
2136.89	52.0351
2137.14	53.9222
2137.38	51.0956
2137.62	52.9817
2137.86	49.2153
2138.1	54.884
2138.34	53.9362
2138.59	47.3209
2138.83	52.0231
2139.07	56.7458
2139.31	55.8206
2139.55	51.1166
2139.79	50.1478
2140.03	56.7253
2140.28	55.7726
2140.52	54.8214
2140.76	55.7559
2141	54.8074
2141.24	52.9188
2141.49	60.4481
2141.73	58.5649
2141.97	61.3773
2142.21	48.1835
2142.45	50.0614
2142.69	57.5913
2142.93	51.953
2143.18	51.9606
2143.42	52.945
2143.66	49.1552
2143.9	51.8506
2144.14	56.5481
2144.38	54.6784
2144.62	51.8766
2144.87	57.5368
2145.11	49.0815
2145.35	57.5141
2145.59	50.9367
2145.83	53.7593
2146.07	52.8155
2146.31	54.6908
2146.55	53.7455
2146.8	53.7406
2147.04	50.9159
2147.28	54.6695
2147.52	53.7216
2147.76	57.472
2148	52.7671
2148.24	54.6397
2148.48	53.6935
2148.73	57.4432
2148.97	59.3131
2149.21	56.4868
2149.45	55.5359
2149.69	53.6452
2149.93	56.4364
2150.17	53.6093
2150.42	54.5316
2150.66	51.7078
2150.9	55.4511
2151.14	50.763
2151.38	57.3283
2151.62	57.3374
2151.86	50.7793
2152.1	50.7867
2152.34	57.3545
2152.58	50.7963
2152.83	54.5394
2153.07	53.5935
2153.31	54.5205
2153.55	55.4482
2153.79	51.6938
2154.03	56.3745
2154.27	53.5532
2154.51	50.729
2154.75	53.5206
2154.99	54.4333
2155.24	54.411
2155.48	58.1271
2155.72	50.6279
2155.96	62.7636
2156.2	55.2711
2156.44	51.5227
2156.68	51.5167
2156.92	56.1846
2157.16	51.5119
2157.4	54.314
2157.64	53.3832
2157.89	51.5214
2158.13	53.3994
2158.37	58.0808
2158.61	53.4092
2158.85	53.4082
2159.09	49.6665
2159.33	55.2692
2159.57	53.3927
2159.81	50.5804
2160.05	54.3061
2160.29	58.9617
2160.53	54.2779
2160.77	57.9992
2161.01	52.3875
2161.25	55.1807
2161.5	57.9765
2161.74	55.1713
2161.98	54.2325
2162.22	48.6324
2162.46	55.1621
2162.7	55.1617
2162.94	54.2273
2163.18	52.3563
2163.42	53.2814
2163.66	52.3423
2163.9	53.2689
2164.14	53.2625
2164.38	54.1879
2164.62	52.3114
2164.86	56.0244
2165.11	56.9464
2165.35	50.426
2165.59	54.1577
2165.83	49.4986
2166.07	53.2262
2166.31	56.0218
2166.55	55.0829
2166.79	56.9397
2167.03	53.2045
2167.27	53.1932
2167.51	55.0471
2167.75	56.8957
2167.99	55.0167
2168.23	54.059
2168.47	51.2449
2168.71	60.533
2168.95	51.2344
2169.19	46.5882
2169.43	53.1027
2169.67	54.9731
2169.91	50.3365
2170.15	56.8678
2170.39	52.2343
2170.63	57.8328
2170.87	50.387
2171.11	51.3141
2171.35	56.8898
2171.59	58.746
2171.83	62.4441
2172.07	51.2404
2172.31	54.0095
2172.56	57.7163
2172.79	52.1302
2173.04	50.2643
2173.28	55.8368
2173.51	55.8354
2173.76	53.9759
2174	55.8375
2174.24	53.9856
2174.48	55.8488
2174.72	52.1332
2174.96	60.498
2175.2	50.2735
2175.44	57.7072
2175.68	54.9148
2175.92	56.7693
2176.16	57.6959
2176.4	60.4799
2176.64	51.1831
2176.88	50.2455
2177.12	57.6731
2177.36	56.7437
2177.6	49.3131
2177.84	51.1713
2178.08	52.0986
2178.32	56.745
2178.55	53.0234
2178.8	53.9371
2179.03	51.1404
2179.28	55.7806
2179.52	54.854
2179.75	51.1404
2180	58.5684
2180.23	56.7106
2180.47	48.3531
2180.71	53.922
2180.95	53.918
2181.19	54.8423
2181.43	56.6969
2181.67	58.5493
2181.91	52.9727
2182.15	50.1819
2182.39	57.6028
2182.63	52.0274
2182.87	52.9496
2183.11	51.0886
2183.35	57.5709
2183.59	56.63
2183.83	54.7588
2184.07	51.0391
2184.31	54.7373
2184.55	56.5819
2184.79	56.5788
2185.03	53.8004
2185.27	51.9518
2185.51	53.8086
2185.75	53.8123
2185.99	55.6723
2186.23	53.8269
2186.47	60.327
2186.7	56.6274
2186.95	56.6431
2187.18	53.8756
2187.42	52.9628
2187.66	51.1206
2187.9	55.7749
2188.14	55.7775
2188.38	54.8423
2188.62	55.7608
2188.86	54.821
2189.1	53.8805
2189.34	50.1552
2189.58	53.8516
2189.82	51.9786
2190.06	55.6722
2190.3	53.8102
2190.54	56.5884
2190.78	50.1001
2191.01	51.958
2191.25	54.7433
2191.49	50.107
2191.73	54.7455
2191.97	58.4588
2192.21	56.6088
2192.45	55.6858
2192.69	51.0521
2192.93	52.9115
2193.17	52.9199
2193.41	59.4244
2193.65	59.4337
2193.89	58.5182
2194.13	56.6854
2194.36	56.7123
2194.6	52.0828
2194.84	59.529
2195.08	51.1586
2195.32	57.6587
2195.56	54.8641
2195.8	53.9256
2196.04	56.7008
2196.28	51.1112
2196.52	55.7354
2196.76	53.8606
2197	54.7747
2197.23	56.6193
2197.47	54.754
2197.71	55.6728
2197.95	51.9626
2198.19	47.3258
2198.43	55.6792
2198.67	53.8363
2198.91	57.562
2199.15	54.7935
2199.38	57.5982
2199.62	59.4726
2199.86	54.8453
2200.1	51.1444
2200.34	64.1899
2200.58	57.7097
2200.82	56.8052
2201.06	56.8279
2201.3	56.8444
2201.54	51.2663
2201.77	55.9023
2202.01	58.6364
2202.25	53.8684
2202.49	56.5725
2202.73	55.6802
2202.97	56.706
2203.21	49.3081
2203.45	60.4534
2203.68	54.8616
2203.92	56.7702
2204.16	55.0856
2204.4	55.0173
2204.64	59.6746
2204.88	59.6843
2205.12	52.1875
2205.36	52.1404
2205.59	55.8201
2205.83	56.7183
2206.07	55.7795
2206.31	54.8505
2206.55	53.0028
2206.79	60.444
2207.03	52.0543
2207.26	53.9165
2207.5	58.5732
2207.74	53.9336
2207.98	57.6652
2208.22	59.5381
2208.46	52.1054
2208.7	58.6314
2208.93	58.6416
2209.17	58.6496
2209.41	55.8616
2209.65	54.002
2209.89	58.6585
2210.13	64.2441
2210.36	60.5208
2210.6	55.8708
2210.84	53.0837
2211.08	51.2283
2211.32	56.8276
2211.56	53.1077
2211.8	54.0484
2212.03	53.1273
2212.27	54.0709
2212.51	57.8098
2212.75	52.2166
2212.99	63.4062
2213.23	57.8031
2213.46	57.7971
2213.7	54.0576
2213.94	48.4537
2214.18	54.0502
2214.42	55.9256
2214.66	54.0824
2214.89	58.7695
2215.13	61.5758
2215.37	51.3121
2215.61	54.1158
2215.85	52.2506
2216.08	53.1852
2216.32	54.1187
2216.56	55.9848
2216.8	58.7838
2217.04	53.1791
2217.28	62.5122
2217.51	54.1096
2217.75	62.5138
2217.99	54.1134
2218.23	51.3118
2218.47	55.0454
2218.7	58.7822
2218.94	51.3173
2219.18	55.9937
2219.42	53.201
2219.66	55.0791
2219.9	56.9536
2220.13	54.1568
2220.37	56.9657
2220.61	54.1602
2220.85	50.4191
2221.09	56.9586
2221.32	59.7557
2221.56	57.8727
2221.8	58.7908
2222.04	59.7112
2222.27	57.8322
2222.51	60.6249
2222.75	52.2217
2222.99	55.9592
2223.23	56.9006
2223.46	57.8424
2223.7	55.0499
2223.94	56.9311
2224.18	63.489
2224.42	55.0951
2224.65	51.3703
2224.89	57.9298
2225.13	56.0712
2225.37	55.1472
2225.6	56.0965
2225.84	57.9847
2226.08	55.188
2226.32	54.2625
2226.56	58.9583
2226.79	47.7228
2227.03	66.4774
2227.27	57.1157
2227.51	59.9373
2227.74	58.0688
2227.98	50.5702
2228.22	55.2573
2228.46	57.1281
2228.69	54.3107
2228.93	62.7447
2229.17	56.1784
2229.41	58.0499
2229.64	53.3621
2229.88	56.1836
2230.12	57.1359
2230.36	59.9638
2230.6	52.4678
2230.83	55.293
2231.07	59.9974
2231.31	53.4376
2231.55	51.5715
2231.78	57.2199
2232.02	60.0493
2232.26	56.302
2232.5	55.3728
2232.73	57.2637
2232.97	52.5723
2233.21	53.5225
2233.45	56.3538
2233.68	57.3046
2233.92	62.0203
2234.16	55.4406
2234.39	60.153
2234.63	56.3844
2234.87	52.6147
2235.11	61.0776
2235.34	50.7164
2235.58	56.3415
2235.82	57.267
2236.06	58.2083
2236.29	55.3892
2236.53	55.3919
2236.77	58.2163
2237	56.3372
2237.24	56.3399
2237.48	55.412
2237.72	58.2466
2237.95	59.2101
2238.19	55.4672
2238.43	53.6037
2238.67	62.1005
2238.9	52.6893
2239.14	57.42
2239.38	56.4973
2239.61	54.6139
2239.85	53.6655
2240.09	58.3741
2240.33	52.6995
2240.56	56.4574
2240.8	60.221
2241.04	60.2464
2241.27	48.9479
2241.51	60.2727
2241.75	52.7278
2241.99	54.6189
2242.22	64.0591
2242.46	58.4017
2242.7	53.6882
2242.93	48.0303
2243.17	54.6394
2243.41	57.469
2243.64	59.3489
2243.88	55.5646
2244.12	56.5036
2244.36	63.1075
2244.59	57.4469
2244.83	58.3992
2245.07	54.6395
2245.3	64.107
2245.54	57.5159
2245.78	51.8582
2246.01	57.5401
2246.25	53.7698
2246.49	59.4549
2246.72	63.2484
2246.96	58.5244
2247.2	52.856
2247.43	51.9174
2247.67	58.5473
2247.91	56.6567
2248.14	58.5486
2248.38	53.8131
2248.62	57.5949
2248.85	52.8594
2249.09	49.0711
2249.33	56.6377
2249.56	55.6889
2249.8	57.591
2250.04	57.5978
2250.27	59.4898
2250.51	57.5893
2250.75	56.6316
2250.98	61.3495
2251.22	56.6057
2251.46	61.323
2251.69	57.532
2251.93	55.6376
2252.17	62.2577
2252.4	53.7541
2252.64	58.4908
2252.88	54.7186
2253.11	57.5745
2253.35	53.8183
2253.59	54.7857
2253.82	60.4863
2254.06	57.6574
2254.3	61.4591
2254.53	53.8865
2254.77	53.8935
2255.01	51.9978
2255.24	52.9405
2255.48	58.6317
2255.72	59.58
2255.95	59.5819
2256.19	51.9981
2256.42	52.0067
2256.66	55.8107
2256.9	55.8201
2257.13	53.9309
2257.37	59.6344
2257.61	58.6946
2257.84	58.7035
2258.08	53.9619
2258.32	53.9647
2258.55	50.1681
2258.79	51.1208
2259.02	55.8745
2259.26	58.7321
2259.5	56.8404
2259.73	56.8456
2259.97	59.701
2260.2	54.0051
2260.44	58.7632
2260.68	60.67
2260.91	56.8725
2261.15	52.1267
2261.39	54.0454
2261.62	52.1537
2261.86	57.8646
2262.1	55.9648
2262.33	54.066
2262.57	60.7322
2262.8	53.1258
2263.04	58.849
2263.28	56.0052
2263.51	59.8298
2263.75	56.0367
2263.98	55.1029
2264.22	57.9851
2264.46	54.1912
2264.69	54.2098
2264.93	59.9526
2265.16	59.9668
2265.4	55.204
2265.64	57.1239
2265.87	54.2599
2266.11	56.1724
2266.34	57.1228
2266.58	54.245
2266.81	53.2771
2267.05	56.1272
2267.29	57.0688
2267.52	57.059
2267.76	56.0962
2267.99	58.9487
2268.23	58.9353
2268.47	57.0179
2268.7	60.828
2268.94	58.9227
2269.17	56.0696
2269.41	52.2658
2269.65	51.3253
2269.88	53.2484
2270.12	54.2188
2270.35	51.3723
2270.59	59.0311
2270.82	59.9978
2271.06	52.3597
2271.3	54.2826
2271.53	58.1164
2271.77	58.1235
2272	57.1752
2272.24	54.3161
2272.47	59.1047
2272.71	61.9757
2272.95	56.238
2273.18	54.3272
2273.42	56.2438
2273.65	57.2034
2273.89	58.1632
2274.12	61.0372
2274.36	57.2118
2274.6	57.2142
2274.83	59.1313
2275.07	49.5618
2275.3	55.309
2275.54	57.2266
2275.77	54.3576
2276.01	56.2705
2276.24	54.3634
2276.48	58.2074
2276.72	56.3055
2276.95	57.276
2277.18	54.4119
2277.42	59.2174
2277.66	58.2777
2277.89	55.4212
2278.13	60.2416
2278.36	57.3866
2278.6	59.3158
2278.83	56.4386
2279.07	57.3995
2279.3	56.4366
2279.54	59.3138
2279.78	54.5017
2280.01	60.2355
2280.24	58.2985
2280.48	59.2417
2280.72	58.2685
2280.95	61.1334
2281.19	56.3306
2281.42	57.2834
2281.66	54.4002
2281.89	57.27
2282.13	61.1102
2282.36	51.5282
2282.6	52.4941
2282.83	59.2169
2283.07	60.1898
2283.3	56.3658
2283.54	58.301
2283.77	58.324
2284.01	60.2721
2284.24	61.2584
2284.48	52.6342
2284.71	54.5715
2284.95	56.5013
2285.19	59.4003
2285.42	58.4512
2285.65	62.3048
2285.89	54.6073
2286.12	61.3306
2286.36	56.4978
2286.59	55.5339
2286.83	57.4615
2287.06	54.5846
2287.3	58.46
2287.54	53.6682
2287.77	56.5651
2288	60.4237
2288.24	55.6229
2288.47	55.6186
2288.71	62.3525
2288.94	58.4905
2289.18	59.4425
2289.41	60.3866
2289.65	63.2505
2289.88	66.1142
2290.12	61.2786
2290.35	64.1539
2290.59	61.2631
2290.82	59.3404
2291.06	58.38
2291.29	56.4653
2291.53	62.2507
2291.76	61.3092
2292	58.436
2292.23	55.5584
2292.47	55.5677
2292.7	53.6524
2292.94	56.5543
2293.17	63.31
2293.41	55.6128
2293.64	56.5845
2293.88	54.663
2294.11	56.5936
2294.34	62.3718
2294.58	57.5457
2294.81	58.5
2295.05	55.5984
2295.28	60.4063
2295.52	55.5821
2295.75	58.4627
2295.99	59.417
2296.22	55.5587
2296.46	52.6578
2296.69	59.3706
2296.93	55.5187
2297.16	61.2959
2297.39	60.3421
2297.63	57.4656
2297.86	58.4411
2298.1	59.4204
2298.33	62.3305
2298.57	51.745
2298.8	55.6068
2299.04	57.5454
2299.27	57.5601
2299.51	59.501
2299.74	56.6177
2299.97	53.7291
2300.21	57.5865
2300.44	57.5865
2300.68	58.5494
2300.91	58.556
2301.15	59.5307
2301.38	58.5731
2301.61	65.3357
2301.85	67.2705
2302.08	61.4801
2302.32	55.6863
2302.55	56.6461
2302.79	56.6419
2303.02	56.643
2303.25	56.6414
2303.49	56.6379
2303.72	60.4969
2303.96	54.7072
2304.19	55.6775
2304.43	53.756
2304.66	56.6608
2304.89	61.4952
2305.13	59.5722
2305.36	55.7194
2305.6	61.5221
2305.83	58.6264
2306.07	55.7322
2306.3	54.7727
2306.53	57.6787
2306.77	57.6809
2307	56.7152
2307.24	56.7141
2307.47	55.7454
2307.7	56.7064
2307.94	56.6989
2308.17	64.4245
2308.41	58.621
2308.64	55.7174
2308.87	58.6153
2309.11	58.6177
2309.34	53.7947
2309.58	57.6695
2309.81	54.7835
2310.04	57.7018
2310.28	61.583
2310.51	55.7845
2310.75	58.688
2310.98	61.5881
2311.21	49.9738
2311.45	55.7641
2311.68	58.6313
2311.92	58.5929
2312.15	58.5717
2312.38	57.5912
2312.62	52.7565
2312.85	56.6067
2313.08	56.5989
2313.32	61.4222
2313.55	57.5691
2313.79	58.5517
2314.02	55.6772
2314.25	56.6594
2314.49	57.6422
2314.72	56.693
2314.95	53.8133
2315.19	56.7331
2315.42	58.6775
2315.66	58.6615
2315.89	56.7125
2316.12	61.5345
2316.36	63.4505
2316.59	55.6874
2316.82	54.7053
2317.06	58.5595
2317.29	57.5922
2317.52	57.5949
2317.76	65.3234
2317.99	60.5109
2318.23	58.5892
2318.46	53.7397
2318.69	58.5586
2318.93	59.5159
2319.16	62.4022
2319.39	58.5305
2319.63	57.5563
2319.86	61.4095
2320.09	59.4748
2320.33	64.2993
2320.56	63.3358
2320.79	61.4051
2321.03	63.3408
2321.26	56.5936
2321.5	61.4296
2321.73	69.1653
2321.96	61.4539
2322.2	69.1997
2322.43	63.4229
2322.66	70.2057
2322.9	60.5452
2323.13	72.1424
2323.36	70.212
2323.6	66.3497
2323.83	66.3533
2324.06	73.1263
2324.3	75.0623
2324.53	78.9266
2324.76	84.7242
2325	82.7696
2325.23	85.6427
2325.46	84.6455
2325.7	87.5227
2325.93	93.2989
2326.16	89.4183
2326.4	103.878
2326.63	116.401
2326.86	126.024
2327.09	153.006
2327.33	167.438
2327.56	205.969
2327.79	280.171
2328.03	381.334
2328.26	508.513
2328.49	619.382
2328.73	633.847
2328.96	578.923
2329.19	443.89
2329.43	336.854
2329.66	242.364
2329.89	186.477
2330.13	155.649
2330.36	120.992
2330.59	107.499
2330.82	103.637
2331.06	90.1444
2331.29	87.2518
2331.52	78.5899
2331.76	68.0057
2331.99	63.1998
2332.22	68.9966
2332.46	68.0137
2332.69	68.9629
2332.92	61.2481
2333.16	64.1279
2333.39	63.156
2333.62	65.0729
2333.85	63.1401
2334.09	63.1337
2334.32	60.2374
2334.55	60.2268
2334.79	56.3628
2335.02	59.2392
2335.25	65.0027
2335.48	58.2684
2335.72	61.1495
2335.95	58.2664
2336.18	60.1936
2336.41	62.1146
2336.65	61.146
2336.88	60.18
2337.11	60.1769
2337.34	64.9815
2337.58	56.325
2337.81	66.8975
2338.04	58.2395
2338.28	58.2349
2338.51	58.2318
2338.74	50.5392
2338.97	60.1486
2339.21	56.3057
2339.44	57.2679
2339.67	60.1508
2339.91	61.1097
2340.14	59.182
2340.37	60.1352
2340.6	61.0854
2340.84	62.0351
2341.07	55.2975
2341.3	56.2416
2341.53	55.2631
2341.77	54.2819
2342	60.0211
2342.23	53.2962
2342.46	61.917
2342.7	58.0719
2342.93	60.9409
2343.16	65.7298
2343.39	54.2249
2343.63	59.0181
2343.86	54.222
2344.09	59.9705
2344.32	59.0124
2344.56	58.0574
2344.79	55.183
2345.02	58.0569
2345.25	63.8041
2345.49	56.129
2345.72	59.9527
2345.95	60.8946
2346.18	60.8828
2346.41	56.0822
2346.65	65.6542
2346.88	56.074
2347.11	53.198
2347.34	58.9377
2347.58	56.0604
2347.81	56.0588
2348.04	59.8893
2348.27	65.6375
2348.5	58.9418
2348.74	58.9462
2348.97	57.9878
2349.2	56.0667
2349.43	58.9291
2349.67	60.8175
2349.9	54.0944
2350.13	55.9789
2350.36	56.9004
2350.59	57.813
2350.83	58.6904
2351.06	62.371
2351.29	65.3295
2351.52	62.6856
2351.75	59.8784
2351.99	59.7545
2352.22	57.7781
2352.45	59.6918
2352.68	53.0167
2352.91	62.5237
2353.15	56.747
2353.38	63.3734
2353.61	51.9568
2353.84	62.4306
2354.07	55.751
2354.31	64.3235
2354.54	54.7962
2354.77	56.7148
2355	56.728
2355.23	56.7258
2355.47	54.816
2355.7	50.9997
2355.93	61.4735
2356.16	62.4184
2356.39	63.3594
2356.63	54.7697
2356.86	59.5012
2357.09	61.3805
2357.32	56.6121
2357.55	56.6018
2357.79	55.6412
2358.02	56.583
2358.25	50.8716
2358.48	55.6176
2358.71	58.4637
2358.94	53.7
2359.18	56.544
2359.41	61.2893
2359.64	59.3855
2359.87	57.4781
2360.1	54.6188
2360.33	60.303
2360.57	59.3392
2360.8	59.3249
2361.03	58.3619
2361.26	53.6048
2361.49	58.3327
2361.72	53.5772
2361.96	50.7195
2362.19	56.3913
2362.42	58.2695
2362.65	55.4122
2362.88	57.2928
2363.11	56.334
2363.34	53.4837
2363.58	61.0459
2363.81	59.1456
2364.04	61.9769
2364.27	55.3467
2364.5	57.23
2364.73	53.4377
2364.97	60.9943
