#Acq. time (s)=	45
#Accumulations=	2
#Range (cm-¹)=	100...4000
#Windows=	1
#Auto scanning=	Off
#Autofocus=	Off
#Macrospot=	Off
#AutoExposure=	Off
#Spike filter=	Multiple accum.
#Delay time (s)=	2
#Binning=	1
#Readout mode=	Signal
#DeNoise=	Off
#ICS correction=	On
#Dark correction=	Off
#Inst. Process=	Off
#Detector Gain=	Best Dynamic
#Detector ADC=	50 kHz HS
#Detector temperature (°C)=	-60.09
#Instrument=	LabRAM HR Evol
#Detector=	SIN-EM FIVIS
#Objective=	x100_VIS_LWD
#Grating=	150 (500nm)
#ND Filter=	100%
#Laser=	633nm_Edge
#Hole=	49.98
#Temperature=	0
#Range=	Visible
#StageXY=	75x50mm Scan+
#StageZ=	Z motor
#X (µm)=	0
#Y (µm)=	0
#Z (µm)=	-8
#Full time(mm:ss)=	1:34
#Project=	21_11_22
#Sample=	BU04w
#Site=	
#Title=	BU04w-A-FF3-FI06-V_150 (500nm)_633nm_Edge_100%_x100_VIS_LWD_H50um_45sX2
#Remark=	
#Date=	22.11.2021 11:07
#Acquired=	22.11.2021 11:07:08
100.177	317.872
103.438	305.586
106.695	297.141
109.954	273.436
113.209	271.662
116.464	257.46
119.717	246.071
122.969	247.126
126.219	251.02
129.469	252.065
132.716	250.196
135.963	242.577
139.208	261.708
142.452	263.631
145.694	255.054
148.936	235.931
152.175	214.912
155.414	210.188
158.651	238.976
161.887	291.747
165.121	345.505
168.353	331.193
171.586	260.285
174.815	222.889
178.045	178.754
181.272	159.537
184.5	162.319
187.724	154.559
190.947	146.778
194.17	144.752
197.39	128.419
200.611	135.998
203.829	135.048
207.045	129.301
210.262	142.631
213.475	135.924
216.688	134.948
219.9	143.498
223.11	152.037
226.32	179.597
229.527	216.577
232.733	277.34
235.939	346.614
239.142	374.966
242.344	312.092
245.546	243.683
248.745	195.186
251.943	187.529
255.141	180.816
258.336	192.16
261.53	196.863
264.723	183.547
267.916	166.452
271.106	169.287
274.294	166.438
277.483	172.13
280.669	185.388
283.854	191.99
287.038	191.944
290.221	199.459
293.402	170.955
296.582	168.991
299.76	156.619
302.938	161.276
306.114	164.03
309.288	168.68
312.461	191.275
315.634	219.521
318.805	281.724
321.974	379.814
325.142	536.38
328.309	641.946
331.475	595.693
334.639	476.787
337.802	370.162
340.963	299.397
344.123	235.242
347.282	198.417
350.441	188.952
353.597	177.576
356.752	185.976
359.906	192.476
363.058	198.023
366.209	212.023
369.36	207.217
372.509	200.54
375.656	179.772
378.802	166.547
381.947	150.518
385.09	145.798
388.232	148.64
391.373	139.323
394.512	138.477
397.652	146.11
400.789	158.532
403.925	159.633
407.059	159.806
410.192	157.139
413.324	169.55
416.455	175.317
419.584	200.052
422.712	215.259
425.839	255.91
428.964	277.377
432.089	313.88
435.212	353.116
438.333	316.897
441.454	292.057
444.573	255.98
447.691	246.235
450.807	231.812
453.923	241.78
457.037	247.082
460.15	249.63
463.261	213.078
466.371	183.16
469.48	157.916
472.588	159.745
475.695	143.913
478.8	158.845
481.904	141.151
485.007	153.27
488.108	160.731
491.208	154.223
494.307	162.636
497.405	165.442
500.502	179.452
503.597	190.692
506.691	197.265
509.784	227.178
512.874	230.068
515.964	227.362
519.053	220.034
522.141	204.321
525.227	212.931
528.312	200.043
531.396	197.479
534.479	192.119
537.559	185.799
540.639	180.353
543.718	170.158
546.796	169.338
549.873	153.337
552.948	153.414
556.022	143.074
559.093	143.048
562.165	148.614
565.235	138.129
568.304	132.329
571.372	121.81
574.437	124.442
577.503	119.545
580.567	120.288
583.63	118.261
586.691	123.713
589.75	130.118
592.81	128.175
595.868	143.945
598.924	170.02
601.98	179.425
605.033	159.039
608.086	153.562
611.138	139.699
614.188	153.884
617.236	141.939
620.285	145.892
623.332	130.158
626.376	137.924
629.42	136.185
632.464	135.334
635.506	125.929
638.545	132.503
641.585	127.719
644.623	130.406
647.659	123.731
650.695	131.148
653.73	139.436
656.762	138.312
659.794	153.11
662.825	147.288
665.854	148.976
668.883	124.537
671.91	121.666
674.935	115.176
677.96	105.845
680.982	97.4497
684.005	90.9593
687.027	98.4763
690.045	94.8329
693.064	102.423
696.082	97.8576
699.097	95.1531
702.113	99.0061
705.126	97.2228
708.139	86.0175
711.149	88.8816
714.16	98.2293
717.169	91.6304
720.176	95.3495
723.183	87.8219
726.187	94.3346
729.192	98.9415
732.194	80.113
735.196	92.2112
738.196	90.2561
741.196	91.1133
744.193	90.1055
747.19	79.7834
750.185	93.7232
753.18	91.8405
756.173	80.6236
759.165	89.0476
762.155	91.9227
765.146	86.4301
768.133	94.0402
771.121	88.5509
774.107	83.0518
777.092	89.7361
780.075	89.8312
783.058	81.4328
786.039	86.1959
789.02	82.4749
791.998	83.4525
794.975	85.3573
797.952	88.1893
800.927	83.451
803.902	75.8761
806.874	88.0785
809.845	88.9696
812.817	83.2475
815.786	86.9233
818.755	84.0087
821.721	93.2855
824.686	91.2967
827.652	91.1813
830.615	99.5096
833.576	92.019
836.538	98.5685
839.498	93.0148
842.458	87.5021
845.415	91.3152
848.37	97.0315
851.327	96.2017
854.28	96.3176
857.233	98.3243
860.184	86.2103
863.135	105.199
866.084	95.8963
869.032	101.704
871.98	96.1315
874.925	99.0459
877.87	101.939
880.813	113.367
883.756	102.958
886.697	110.555
889.636	97.2572
892.576	111.46
895.513	106.679
898.45	112.282
901.385	98.9047
904.318	110.128
907.253	108.104
910.184	107.957
913.114	120.058
916.044	117.086
918.973	115.126
921.9	118.823
924.826	129.149
927.75	131.044
930.674	138.666
933.596	153.79
936.519	165.293
939.439	178.787
942.357	189.511
945.275	228.686
948.192	252.878
951.107	282.856
954.023	291.957
956.936	290.55
959.848	285.243
962.759	269.358
965.669	249.516
968.577	245.939
971.485	235.558
974.391	246.226
977.296	274.074
980.201	272.992
983.104	320.767
986.006	355.017
988.907	402.594
991.806	407.02
994.704	398.036
997.602	359.509
1000.5	339.216
1003.39	308.496
1006.29	285.503
1009.18	295.954
1012.07	289.421
1014.96	295.29
1017.85	346.959
1020.74	376.766
1023.63	417.273
1026.51	429.254
1029.4	422.127
1032.28	357.427
1035.16	281.077
1038.04	231.469
1040.92	203.873
1043.8	192.599
1046.68	174.54
1049.56	170.883
1052.43	156.53
1055.31	145.038
1058.18	144.175
1061.05	133.559
1063.93	136.505
1066.8	135.495
1069.67	123.824
1072.53	128.659
1075.4	141.243
1078.26	151.857
1081.13	164.393
1083.99	164.315
1086.85	170.051
1089.72	191.324
1092.58	221.282
1095.44	278.342
1098.29	316.95
1101.15	362.326
1104	335.189
1106.86	260.838
1109.71	220.187
1112.56	183.56
1115.42	154.757
1118.27	130.727
1121.11	147.449
1123.96	131.05
1126.81	127.288
1129.65	123.55
1132.5	134.457
1135.34	133.653
1138.18	150.474
1141.03	174.233
1143.87	177.358
1146.7	208.934
1149.54	249.459
1152.38	334.242
1155.21	406.168
1158.05	398.22
1160.88	304.56
1163.71	232.485
1166.55	170.398
1169.37	138.842
1172.2	128.905
1175.03	106.252
1177.86	111.028
1180.68	108.004
1183.51	106.953
1186.33	91.3092
1189.15	96.1953
1191.98	94.2526
1194.8	86.4969
1197.61	90.4637
1200.43	81.7567
1203.25	82.867
1206.06	77.1111
1208.88	85.1335
1211.69	84.3029
1214.51	76.5778
1217.32	77.7401
1220.13	77.9236
1222.94	83.088
1225.74	80.2965
1228.55	77.486
1231.36	77.6544
1234.16	79.8146
1236.97	75.9345
1239.77	77.0568
1242.57	85.2105
1245.37	85.2838
1248.17	78.2647
1250.97	87.3758
1253.77	83.3596
1256.56	77.2817
1259.36	90.3764
1262.15	100.399
1264.94	87.2233
1267.74	80.1133
1270.53	83.0664
1273.32	90.0207
1276.11	86.9111
1278.89	151.041
1281.68	307.267
1284.46	158.749
1287.25	96.5752
1290.03	84.5103
1292.81	75.4725
1295.59	78.4543
1298.38	78.448
1301.15	76.4499
1303.93	88.4777
1306.71	78.5345
1309.48	75.611
1312.26	80.7408
1315.03	81.871
1317.81	74.961
1320.58	77.1076
1323.35	77.2507
1326.12	72.3465
1328.88	79.5898
1331.65	72.6402
1334.42	76.8402
1337.18	76.9736
1339.95	75.0537
1342.71	70.0333
1345.47	77.2729
1348.23	76.3236
1350.99	73.3181
1353.75	76.4565
1356.51	68.2899
1359.26	70.3776
1362.02	79.6485
1364.77	82.7382
1367.53	78.619
1370.28	79.6337
1373.03	84.7533
1375.78	83.7128
1378.53	89.8578
1381.28	127.826
1384.03	397.758
1386.77	308.381
1389.52	104.137
1392.26	84.6462
1395	79.5323
1397.74	72.4143
1400.49	73.4898
1403.23	83.8264
1405.96	104.48
1408.7	81.9047
1411.44	89.2005
1414.17	75.8734
1416.91	72.8603
1419.64	75.0108
1422.37	75.1016
1425.11	66.9009
1427.84	64.9077
1430.56	67.0744
1433.29	70.2829
1436.02	68.2869
1438.74	76.7232
1441.47	64.2696
1444.19	65.405
1446.92	73.86
1449.64	62.3892
1452.36	66.6238
1455.08	76.1031
1457.8	66.6726
1460.52	68.7811
1463.23	65.6298
1465.95	71.9223
1468.66	65.612
1471.38	63.504
1474.09	73.9949
1476.8	69.801
1479.51	64.5673
1482.22	68.7811
1484.93	65.6528
1487.64	70.9372
1490.34	68.876
1493.05	65.7687
1495.75	64.7747
1498.46	70.1034
1501.16	71.2331
1503.86	60.746
1506.56	71.3959
1509.26	64.0791
1511.96	65.2275
1514.65	74.8877
1517.35	67.5595
1520.05	67.6734
1522.74	69.9214
1525.43	66.8401
1528.13	68.0229
1530.82	69.2201
1533.51	67.2065
1536.2	66.2449
1538.88	71.7287
1541.57	69.6677
1544.25	71.8954
1546.94	56.7858
1549.62	68.6932
1552.31	75.1698
1554.99	70.8009
1557.67	69.6684
1560.35	67.4753
1563.03	74.9974
1565.71	71.7236
1568.38	68.4517
1571.06	73.8017
1573.73	70.5339
1576.41	66.2017
1579.08	65.1248
1581.75	60.8198
1584.42	66.209
1587.09	76.9885
1589.76	68.3921
1592.43	77.0388
1595.09	72.7665
1597.76	67.4222
1600.42	72.8664
1603.09	72.9328
1605.75	73.0057
1608.41	67.6831
1611.07	66.6958
1613.73	64.636
1616.39	63.6659
1619.05	71.4227
1621.7	74.8379
1624.36	73.8857
1627.01	77.3147
1629.67	69.7686
1632.32	69.8932
1634.97	73.3063
1637.62	73.4013
1640.27	67.9115
1642.92	74.5947
1645.57	66.9135
1648.22	68.0658
1650.86	68.1057
1653.51	69.25
1656.15	70.3829
1658.79	65.964
1661.43	68.1918
1664.07	77.0733
1666.71	70.4222
1669.35	70.4244
1671.99	73.7521
1674.63	68.2073
1677.26	69.3053
1679.9	68.1955
1682.53	70.39
1685.16	70.3575
1687.79	71.4329
1690.43	68.0865
1693.05	65.86
1695.68	61.4359
1698.31	70.3198
1700.94	64.8478
1703.56	69.4855
1706.19	75.2105
1708.81	70.9099
1711.44	67.4542
1714.06	65.2241
1716.68	64.1689
1719.3	68.7629
1721.92	67.7061
1724.53	69.987
1727.15	72.3032
1729.77	70.1337
1732.38	69.0836
1735	65.7795
1737.61	65.8425
1740.22	70.4122
1742.83	71.6068
1745.44	73.933
1748.05	70.6018
1750.66	72.9099
1753.27	75.2151
1755.87	65.069
1758.48	67.3517
1761.08	73.0226
1763.69	70.7699
1766.29	74.1838
1768.89	69.6726
1771.49	75.3605
1774.09	67.4504
1776.69	64.08
1779.29	74.3352
1781.88	64.1701
1784.48	72.1792
1787.07	67.6938
1789.66	68.9094
1792.26	66.7047
1794.85	74.7722
1797.44	65.7185
1800.03	71.5326
1802.62	63.6072
1805.21	71.7308
1807.79	69.523
1810.38	64.9961
1812.96	66.2175
1815.55	70.8999
1818.13	69.8256
1820.71	71.0525
1823.29	72.29
1825.87	71.214
1828.45	68.9775
1831.03	74.8655
1833.61	69.1437
1836.18	70.4006
1838.76	71.6372
1841.33	70.539
1843.91	57.7653
1846.48	74.1662
1849.05	68.3801
1851.62	73.117
1854.19	71.9802
1856.76	73.2099
1859.33	72.0986
1861.89	68.6507
1864.46	72.2394
1867.02	67.6187
1869.59	70.0358
1872.15	71.2684
1874.71	71.3147
1877.27	71.3633
1879.83	70.2233
1882.39	64.3626
1884.95	71.4804
1887.51	67.9699
1890.06	76.2531
1892.62	72.7089
1895.17	67.9806
1897.73	70.3559
1900.28	73.9297
1902.83	72.8052
1905.38	74.0614
1907.93	68.203
1910.48	71.858
1913.03	67.2125
1915.57	72.0968
1918.12	71.0094
1920.66	73.4081
1923.21	68.6945
1925.75	67.5658
1928.29	70.0261
1930.83	71.2919
1933.37	66.5616
1935.91	72.62
1938.45	70.2742
1940.99	64.312
1943.53	69.1626
1946.06	67.9955
1948.6	75.2529
1951.13	68.0504
1953.66	72.8854
1956.19	64.4645
1958.73	72.9093
1961.26	71.7118
1963.78	65.6886
1966.31	69.3048
1968.84	72.9074
1971.36	69.2738
1973.89	74.0706
1976.41	69.2346
1978.94	68.012
1981.46	74.0087
1983.98	70.3796
1986.5	67.9572
1989.02	65.5389
1991.54	75.1462
1994.06	66.7212
1996.58	67.9182
1999.09	60.7062
2001.61	69.1254
2004.12	67.9336
2006.63	69.1557
2009.15	67.9736
2011.66	68.0039
2014.17	64.4181
2016.68	68.059
2019.19	74.0989
2021.69	75.3293
2024.2	74.1637
2026.71	71.7969
2029.21	63.3959
2031.72	74.328
2034.22	70.7714
2036.72	73.26
2039.22	64.8469
2041.72	69.7653
2044.22	74.6962
2046.72	75.9939
2049.22	73.6446
2051.71	67.6311
2054.21	72.5479
2056.71	75.0655
2059.2	70.2614
2061.69	71.5632
2064.18	70.4186
2066.68	75.4048
2069.17	74.2568
2071.66	68.1918
2074.14	70.7247
2076.63	68.3332
2079.12	68.3994
2081.6	64.7614
2084.09	73.4555
2086.57	75.9785
2089.06	72.3153
2091.54	74.8524
2094.02	84.833
2096.5	76.2528
2098.98	77.5815
2101.46	70.2179
2103.93	79.0177
2106.41	71.6462
2108.89	65.5069
2111.36	73.0995
2113.84	79.4704
2116.31	65.8062
2118.78	69.6748
2121.25	82.3548
2123.72	76.1816
2126.19	76.2927
2128.66	70.0857
2131.13	70.1792
2133.59	70.2675
2136.06	70.3511
2138.53	72.969
2140.99	66.6967
2143.45	69.3127
2145.92	75.7447
2148.38	69.4394
2150.84	69.4886
2153.3	72.0858
2155.76	73.4029
2158.21	64.4985
2160.67	77.3015
2163.13	68.3779
2165.58	72.2258
2168.04	73.5116
2170.49	78.6426
2172.94	73.557
2175.39	71.0254
2177.84	71.0468
2180.29	72.3313
2182.74	72.3339
2185.19	71.0425
2187.64	65.9239
2190.08	74.8944
2192.53	68.511
2194.98	74.9348
2197.42	72.4079
2199.86	67.3223
2202.3	76.3533
2204.74	68.71
2207.18	76.4846
2209.62	79.1355
2212.06	66.3402
2214.5	75.4403
2216.93	70.3686
2219.37	76.9217
2221.81	67.9588
2224.24	71.9337
2226.67	68.1319
2229.11	69.5181
2231.54	76.1116
2233.97	72.3003
2236.4	71.0873
2238.83	69.871
2241.25	72.5727
2243.68	68.738
2246.1	70.138
2248.53	71.5404
2250.96	71.6304
2253.38	74.3493
2255.8	74.4408
2258.22	75.8591
2260.64	79.919
2263.06	73.4003
2265.48	72.1526
2267.9	74.8708
2270.32	68.3015
2272.73	68.3516
2275.15	72.3793
2277.56	71.0925
2279.98	75.1142
2282.39	71.1485
2284.8	71.1622
2287.21	77.8202
2289.62	69.8503
2292.03	75.1805
2294.44	73.8576
2296.85	63.2246
2299.26	76.5651
2301.66	79.2618
2304.07	69.9788
2306.47	71.3674
2308.88	75.4362
2311.28	76.8508
2313.68	70.2433
2316.08	75.6863
2318.48	75.7848
2320.88	67.8219
2323.28	82.6964
2325.68	88.1953
2328.07	89.6633
2330.47	68.185
2332.86	73.6979
2335.26	64.3305
2337.65	77.9963
2340.04	69.9676
2342.43	83.6955
2344.82	74.2971
2347.21	67.6123
2349.6	74.5687
2351.99	71.9577
2354.38	70.6993
2356.76	76.2956
2359.15	64.009
2361.53	65.4394
2363.92	68.2699
2366.3	69.7256
2368.68	68.4191
2371.06	69.8739
2373.44	76.8693
2375.82	75.559
2378.2	72.8595
2380.58	67.357
2382.95	67.4031
2385.33	68.8241
2387.71	78.5923
2390.08	80.009
2392.45	68.8889
2394.83	74.4678
2397.2	63.3306
2399.57	71.6811
2401.94	66.1153
2404.31	73.0641
2406.68	70.275
2409.04	74.4675
2411.41	70.3463
2413.78	73.2144
2416.14	60.7892
2418.51	70.7861
2420.87	75.1326
2423.23	80.827
2425.59	71.0206
2427.95	75.3318
2430.31	71.1972
2432.67	72.7052
2435.03	72.8118
2437.39	72.9249
2439.75	75.8708
2442.1	74.563
2444.46	76.0961
2446.81	74.7856
2449.16	70.6188
2451.52	70.7257
2453.87	69.3965
2456.22	70.9296
2458.57	81.0796
2460.92	81.1962
2463.27	79.8759
2465.61	75.6641
2467.96	67.1077
2470.3	81.6457
2472.65	65.832
2474.99	74.6086
2477.34	77.6104
2479.68	71.9017
2482.02	76.3534
2484.36	72.0748
2486.7	79.4364
2489.04	67.8469
2491.38	81.0599
2493.72	70.9075
2496.05	76.8401
2498.39	76.9159
2500.72	72.5902
2503.06	78.5281
2505.39	74.1889
2507.72	72.7787
2510.06	72.8329
2512.39	75.8269
2514.72	75.8743
2517.04	75.9209
2519.37	67.1264
2521.7	73.0885
2524.03	70.1913
2526.35	79.1151
2528.68	71.7766
2531	82.1982
2533.33	79.3069
2535.65	68.995
2537.97	75.0038
2540.29	76.5667
2542.61	84.0867
2544.93	75.2354
2547.25	69.3564
2549.57	79.8835
2551.88	78.4776
2554.2	80.0587
2556.51	77.1367
2558.83	71.2078
2561.14	80.2906
2563.46	74.3686
2565.77	81.984
2568.08	73.0487
2570.39	73.1463
2572.7	71.7324
2575.01	77.8715
2577.31	74.9359
2579.62	78.0467
2581.93	73.5702
2584.23	73.6205
2586.54	73.6687
2588.84	70.6682
2591.15	72.2026
2593.45	73.7653
2595.75	73.8152
2598.05	73.8807
2600.35	78.5063
2602.65	72.4561
2604.95	78.6053
2607.24	75.5955
2609.54	75.6384
2611.84	83.3058
2614.13	72.6353
2616.42	84.9013
2618.72	81.8824
2621.01	74.2597
2623.3	74.2955
2625.59	75.8691
2627.88	74.3801
2630.17	75.9787
2632.46	74.5232
2634.75	77.6879
2637.04	70.0958
2639.32	73.2969
2641.61	73.4084
2643.89	78.171
2646.18	78.3034
2648.46	78.4228
2650.74	76.988
2653.02	80.2258
2655.3	80.3079
2657.58	77.2587
2659.86	71.0754
2662.14	74.2561
2664.42	80.5616
2666.69	79.0415
2668.97	71.2788
2671.24	83.886
2673.52	87.1318
2675.79	79.4081
2678.06	87.4653
2680.33	78.2198
2682.61	78.3968
2684.88	78.575
2687.15	81.9365
2689.41	75.7396
2691.68	80.6752
2693.95	72.824
2696.22	77.6619
2698.48	79.3512
2700.74	77.8354
2703.01	76.3093
2705.27	84.4218
2707.53	76.4542
2709.8	84.5754
2712.06	74.9731
2714.32	76.6574
2716.57	79.9874
2718.83	78.4418
2721.09	80.139
2723.35	73.7272
2725.6	73.777
2727.86	80.3155
2730.11	81.9821
2732.37	72.2653
2734.62	73.9255
2736.87	80.4508
2739.12	80.4745
2741.37	67.5085
2743.62	78.9426
2745.87	74.1124
2748.12	75.8027
2750.37	82.4064
2752.61	71.1091
2754.86	82.6549
2757.1	74.5461
2759.35	71.3285
2761.59	81.2185
2763.83	76.3643
2766.08	73.1527
2768.32	81.4575
2770.56	69.9954
2772.8	81.6098
2775.04	78.4047
2777.27	81.8166
2779.51	76.964
2781.75	75.4413
2783.98	80.5477
2786.22	89.0045
2788.45	84.1529
2790.68	90.965
2792.92	77.7338
2795.15	84.5482
2797.38	74.6004
2799.61	78.0564
2801.84	76.4686
2804.07	81.6006
2806.3	81.684
2808.52	90.1928
2810.75	64.9654
2812.98	78.5344
2815.2	87.0409
2817.42	76.957
2819.65	73.6311
2821.87	80.4659
2824.09	75.4481
2826.31	78.9065
2828.53	78.9696
2830.75	84.1288
2832.97	79.0878
2835.19	70.6315
2837.41	82.6041
2839.62	82.6633
2841.84	79.3123
2844.05	77.6662
2846.27	77.7371
2848.48	72.6768
2850.69	76.1728
2852.9	74.5465
2855.12	83.2195
2857.33	85.0429
2859.54	71.3855
2861.74	81.8183
2863.95	81.939
2866.16	69.9748
2868.37	78.7373
2870.57	84.0588
2872.78	78.9793
2874.98	75.6254
2877.18	79.2281
2879.39	82.8477
2881.59	86.4846
2883.79	77.8875
2885.99	76.2769
2888.19	81.6792
2890.39	78.2987
2892.59	80.1911
2894.78	80.3234
2896.98	82.2438
2899.18	85.9434
2901.37	71.8964
2903.57	91.5672
2905.76	86.3646
2907.95	81.1437
2910.15	84.8324
2912.34	81.3524
2914.53	77.8635
2916.72	74.3633
2918.91	83.4249
2921.09	81.7322
2923.28	78.2375
2925.47	89.1525
2927.65	82.0676
2929.84	78.5752
2932.02	78.694
2934.21	91.4737
2936.39	86.1393
2938.57	75.3334
2940.75	73.5845
2942.94	80.9299
2945.12	86.4594
2947.29	84.6937
2949.47	88.3991
2951.65	82.9933
2953.83	86.7036
2956	77.6317
2958.18	86.8241
2960.36	74.0825
2962.53	75.9699
2964.7	94.3499
2966.88	79.7634
2969.05	85.3412
2971.22	83.5829
2973.39	91.0166
2975.56	87.4216
2977.73	72.7661
2979.9	85.7415
2982.06	82.1403
2984.23	80.39
2986.4	86.0411
2988.56	91.7132
2990.73	69.5745
2992.89	91.9711
2995.05	84.6553
2997.21	82.9198
2999.38	84.9156
3001.54	90.6605
3003.7	90.8132
3005.86	83.4666
3008.01	87.3641
3010.17	91.2712
3012.33	95.1715
3014.49	85.8946
3016.64	80.3727
3018.8	82.4151
3020.95	90.157
3023.1	84.6054
3025.26	94.2553
3027.41	90.5695
3029.56	75.4127
3031.71	86.9736
3033.86	85.1533
3036.01	92.8957
3038.16	83.3846
3040.31	89.2439
3042.45	95.0961
3044.6	99.0282
3046.74	97.1903
3048.89	89.5689
3051.03	85.7888
3053.18	97.4376
3055.32	91.7343
3057.46	93.7526
3059.6	101.574
3061.74	103.599
3063.88	92.0613
3066.02	94.0829
3068.16	96.1063
3070.3	98.1336
3072.43	100.164
3074.57	84.6826
3076.7	96.4526
3078.84	108.246
3080.97	98.5848
3083.1	86.952
3085.24	102.701
3087.37	106.737
3089.5	100.997
3091.63	103.106
3093.76	107.198
3095.89	99.4949
3098.02	103.604
3100.14	97.8418
3102.27	105.928
3104.4	114.053
3106.52	112.279
3108.65	102.537
3110.77	108.724
3112.89	108.942
3115.01	105.145
3117.14	119.401
3119.26	109.582
3121.38	125.933
3123.5	116.106
3125.62	112.315
3127.73	114.6
3129.85	112.838
3131.97	125.349
3134.08	115.438
3136.2	113.669
3138.31	126.254
3140.43	122.422
3142.54	130.934
3144.65	114.673
3146.76	127.322
3148.87	146.241
3150.98	138.185
3153.09	148.801
3155.2	146.944
3157.31	138.809
3159.42	141.103
3161.52	143.407
3163.63	149.912
3165.73	139.619
3167.84	148.21
3169.94	150.497
3172.05	142.299
3174.15	153.03
3176.25	159.521
3178.35	159.662
3180.45	155.554
3182.55	164.135
3184.65	179.077
3186.75	168.585
3188.84	172.886
3190.94	181.508
3193.04	188.034
3195.13	149.922
3197.23	173.512
3199.32	158.84
3201.41	178.367
3203.51	165.835
3205.6	172.571
3207.69	168.627
3209.78	181.877
3211.87	173.621
3213.96	171.826
3216.05	172.208
3218.13	159.547
3220.22	177.261
3222.31	168.899
3224.39	153.949
3226.48	173.958
3228.56	143.607
3230.64	159.257
3232.73	159.574
3234.81	133.39
3236.89	142.458
3238.97	144.941
3241.05	143.019
3243.13	147.755
3245.21	139.193
3247.29	152.835
3249.36	139.715
3251.44	135.434
3253.52	146.836
3255.59	131.29
3257.66	140.427
3259.74	131.661
3261.81	129.623
3263.88	136.632
3265.95	134.654
3268.03	128.284
3270.1	121.624
3272.17	128.796
3274.23	117.563
3276.3	110.81
3278.37	113.218
3280.44	113.332
3282.5	127.199
3284.57	120.446
3286.63	122.863
3288.7	125.282
3290.76	123.1
3292.82	120.907
3294.88	123.318
3296.94	109.582
3299	114.301
3301.06	112.123
3303.12	107.598
3305.18	114.654
3307.24	130.997
3309.3	131.12
3311.35	117.299
3313.41	108.096
3315.46	101.222
3317.52	108.296
3319.57	124.73
3321.63	110.86
3323.68	118.012
3325.73	111.135
3327.78	111.288
3329.83	120.818
3331.88	99.8812
3333.93	133.029
3335.98	130.902
3338.02	109.87
3340.07	102.914
3342.12	112.509
3344.16	105.51
3346.21	122.232
3348.25	100.941
3350.3	110.551
3352.34	117.785
3354.38	110.739
3356.42	113.252
3358.46	115.766
3360.5	113.505
3362.54	111.247
3364.58	104.179
3366.62	121.069
3368.66	111.598
3370.69	111.72
3372.73	107.015
3374.76	104.7
3376.8	124.048
3378.83	104.853
3380.87	116.986
3382.9	119.477
3384.93	109.893
3386.96	117.21
3388.99	112.441
3391.02	107.66
3393.05	114.979
3395.08	124.744
3397.11	98.1729
3399.14	107.951
3401.16	112.875
3403.19	108.071
3405.21	95.972
3407.24	103.313
3409.26	113.09
3411.29	100.964
3413.31	108.306
3415.33	105.913
3417.35	118.137
3419.37	93.8146
3421.39	96.2851
3423.41	106.07
3425.43	110.988
3427.45	120.805
3429.46	103.779
3431.48	108.731
3433.5	99.0245
3435.51	103.994
3437.53	106.529
3439.54	96.8206
3441.55	89.5477
3443.57	101.916
3445.58	111.869
3447.59	104.629
3449.6	102.294
3451.61	107.357
3453.62	105.037
3455.63	97.771
3457.64	105.375
3459.64	90.6548
3461.65	103.254
3463.66	98.4517
3465.66	88.6385
3467.67	98.8004
3469.67	108.988
3471.67	104.148
3473.68	109.285
3475.68	96.8739
3477.68	102.061
3479.68	94.6446
3481.68	99.8408
3483.68	94.9232
3485.68	107.733
3487.68	90.1145
3489.67	102.947
3491.67	105.632
3493.67	93.0264
3495.66	103.342
3497.66	98.349
3499.65	106.124
3501.64	116.466
3503.64	96.0667
3505.63	98.7122
3507.62	98.7756
3509.61	93.686
3511.6	93.7168
3513.59	98.8845
3515.58	96.346
3517.57	98.9436
3519.56	83.5481
3521.54	101.571
3523.53	91.3126
3525.52	91.3478
3527.5	101.682
3529.49	96.5502
3531.47	94.0285
3533.45	99.2635
3535.43	96.7782
3537.42	91.7204
3539.4	97.0095
3541.38	94.5194
3543.36	89.4236
3545.34	86.9052
3547.32	89.5704
3549.29	87.0347
3551.27	89.6793
3553.25	100.074
3555.22	84.511
3557.2	89.7569
3559.17	92.4123
3561.15	95.0777
3563.12	89.9347
3565.09	92.6174
3567.07	79.6494
3569.04	98.0517
3571.01	90.2946
3572.98	100.868
3574.95	98.3593
3576.92	82.7236
3578.88	85.4648
3580.85	93.4872
3582.82	90.9894
3584.79	96.4086
3586.75	91.2613
3588.72	91.3948
3590.68	96.8339
3592.64	99.6311
3594.61	73.1686
3596.57	89.2626
3598.53	81.3811
3600.49	81.4828
3602.45	94.9618
3604.41	79.0101
3606.37	87.1447
3608.33	81.8709
3610.29	73.8921
3612.25	92.7946
3614.2	82.1273
3616.16	76.8113
3618.12	87.6785
3620.07	95.8498
3622.02	85.0977
3623.98	74.3182
3625.93	85.1552
3627.88	90.5916
3629.84	87.9108
3631.79	90.6268
3633.74	90.6465
3635.69	74.4361
3637.64	82.5962
3639.58	74.5211
3641.53	80.0116
3643.48	77.3747
3645.43	91.0398
3647.37	82.9901
3649.32	77.5528
3651.26	77.5968
3653.21	83.0904
3655.15	85.8526
3657.09	83.1658
3659.03	66.8343
3660.98	77.7784
3662.92	77.804
3664.86	80.5689
3666.8	80.611
3668.74	72.4526
3670.67	75.2218
3672.61	83.4689
3674.55	89.0066
3676.49	86.338
3678.42	80.9318
3680.36	75.5228
3682.29	59.1132
3684.23	83.9647
3686.16	73.0554
3688.09	81.4391
3690.02	70.4959
3691.96	78.9032
3693.89	70.6889
3695.82	76.3229
3697.75	68.0919
3699.68	73.7482
3701.61	68.2767
3703.53	82.3069
3705.46	65.6591
3707.39	68.5496
3709.31	82.6541
3711.24	77.1553
3713.16	71.6413
3715.09	66.1013
3717.01	77.4393
3718.93	77.5211
3720.86	80.4215
3722.78	69.201
3724.7	80.5715
3726.62	74.9805
3728.54	69.3822
3730.46	77.9464
3732.38	72.3488
3734.29	75.2576
3736.21	78.1724
3738.13	81.089
3740.04	69.7687
3741.96	86.9248
3743.87	78.4384
3745.79	78.4979
3747.7	69.9836
3749.62	67.1696
3751.53	64.3464
3753.44	72.9609
3755.35	61.5408
3757.26	81.6044
3759.17	75.8991
3761.08	73.0521
3762.99	73.0697
3764.9	67.3523
3766.81	70.2348
3768.71	73.1267
3770.62	73.1565
3772.52	81.8
3774.43	70.3497
3776.33	67.5075
3778.24	76.1652
3780.14	76.2117
3782.04	73.3871
3783.95	76.3257
3785.85	76.3859
3787.75	70.6723
3789.65	70.719
3791.55	76.5446
3793.45	82.3885
3795.34	67.9975
3797.24	82.5475
3799.14	76.8318
3801.04	71.1074
3802.93	82.8051
3804.83	71.2632
3806.72	68.4342
3808.62	74.3446
3810.51	71.5074
3812.4	71.5807
3814.29	71.653
3816.19	71.7239
3818.08	68.865
3819.97	68.9307
3821.86	66.0576
3823.75	60.2371
3825.64	66.1626
3827.52	72.1022
3829.41	78.0556
3831.3	78.1305
3833.18	72.3031
3835.07	72.3687
3836.95	63.5612
3838.84	54.7359
3840.72	72.5578
3842.61	63.7393
3844.49	72.6836
3846.37	78.6558
3848.25	63.832
3850.13	81.6757
3852.01	81.7041
3853.89	75.7748
3855.77	69.8517
3857.65	60.9373
3859.53	63.9075
3861.41	81.7544
3863.28	66.9059
3865.16	66.9574
3867.03	84.9051
3868.91	73.0877
3870.78	67.186
3872.66	70.181
3874.53	73.1899
3876.4	58.2715
3878.27	76.2244
3880.14	64.2882
3882.01	67.3018
3883.89	55.359
3885.75	58.3775
3887.62	67.3917
3889.49	67.4268
3891.36	73.4631
3893.23	73.5173
3895.09	67.5861
3896.96	61.6266
3898.82	61.6735
3900.69	73.7663
3902.55	58.7573
3904.42	67.8422
3906.28	70.9119
3908.14	70.9558
3910	61.9444
3911.87	68.0481
3913.73	71.1311
3915.59	77.2568
3917.45	65.2043
3919.3	65.2768
3921.16	65.3581
3923.02	74.5692
3924.88	68.5609
3926.73	59.4848
3928.59	62.6008
3930.45	62.6646
3932.3	71.8985
3934.15	71.9507
3936.01	75.0682
3937.86	59.7886
3939.71	69.0466
3941.56	59.8963
3943.42	75.3374
3945.27	66.1745
3947.12	69.3193
3948.97	78.6318
3950.81	63.2621
3952.66	66.3956
3954.51	66.439
3956.36	63.3905
3958.2	66.518
3960.05	66.5441
3961.9	78.9556
3963.74	69.6935
3965.58	72.8118
3967.43	69.727
3969.27	69.7328
3971.11	72.8426
3972.96	60.4543
3974.8	75.9694
3976.64	66.6772
3978.48	63.5824
3980.32	69.785
3982.16	72.8812
3984	69.7772
3985.83	57.3721
3987.67	60.4694
3989.51	66.6733
3991.34	57.3777
3993.18	69.8003
3995.01	60.512
3996.85	69.8524
3998.68	69.8863
