#Acq. time (s)=	45
#Accumulations=	2
#Range (cm-¹)=	100...4000
#Windows=	1
#Auto scanning=	Off
#Autofocus=	Off
#Macrospot=	Off
#AutoExposure=	Off
#Spike filter=	Multiple accum.
#Delay time (s)=	2
#Binning=	1
#Readout mode=	Signal
#DeNoise=	Off
#ICS correction=	On
#Dark correction=	Off
#Inst. Process=	Off
#Detector Gain=	Best Dynamic
#Detector ADC=	50 kHz HS
#Detector temperature (°C)=	-60.09
#Instrument=	LabRAM HR Evol
#Detector=	SIN-EM FIVIS
#Objective=	x100_VIS_LWD
#Grating=	150 (500nm)
#ND Filter=	100%
#Laser=	633nm_Edge
#Hole=	100.021
#Temperature=	0
#Range=	Visible
#StageXY=	75x50mm Scan+
#StageZ=	Z motor
#X (µm)=	0
#Y (µm)=	0
#Z (µm)=	14.3
#Full time(mm:ss)=	1:35
#Project=	21_11_22
#Sample=	BU04w
#Site=	
#Title=	BU04w-A-FF3-V_150 (500nm)_633nm_Edge_100%_x100_VIS_LWD_H100um_45sX2
#Remark=	
#Date=	22.11.2021 10:40
#Acquired=	22.11.2021 10:40:14
100.177	1412.08
103.438	1389.68
106.695	1290.15
109.954	1276.51
113.209	1252.32
116.464	1181.26
119.717	1150.08
122.969	1126.65
126.219	1105.92
129.469	1049.87
132.716	1095.02
135.963	1054.04
139.208	1040.61
142.452	1033.95
145.694	1007.29
148.936	985.357
152.175	955.858
155.414	954.224
158.651	973.623
161.887	978.718
165.121	982.845
168.353	995.497
171.586	944.793
174.815	862.318
178.045	790.253
181.272	746.904
184.5	748.393
187.724	712.503
190.947	706.161
194.17	683.632
197.39	629.684
200.611	627.5
203.829	650.426
207.045	636.009
210.262	611.071
213.475	579.464
216.688	578.415
219.9	589.725
223.11	598.14
226.32	619.776
229.527	650.684
232.733	699.772
235.939	746.005
239.142	773.218
242.344	735.814
245.546	651.245
248.745	617.852
251.943	572.084
255.141	578.517
258.336	544.217
261.53	556.434
264.723	569.612
267.916	536.344
271.106	544.849
274.294	528.713
277.483	534.409
280.669	518.233
283.854	561.747
287.038	554.031
290.221	537.733
293.402	515.707
296.582	496.558
299.76	489.729
302.938	483.829
306.114	473.183
309.288	503.204
312.461	500.149
315.634	553.76
318.805	608.279
321.974	697.82
325.142	805.277
328.309	944.76
331.475	948.487
334.639	889.909
337.802	767.202
340.963	670.933
344.123	598.241
347.282	543.409
350.441	514.082
353.597	505.41
356.752	507.079
359.906	520.957
363.058	515.99
366.209	513.838
369.36	529.555
372.509	513.327
375.656	509.275
378.802	478.999
381.947	469.371
385.09	456.147
388.232	446.858
391.373	458.313
394.512	451.105
397.652	442.089
400.789	461.484
403.925	461.004
407.059	482.247
410.192	483.685
413.324	479.369
416.455	486.257
419.584	515.974
422.712	542.641
425.839	570.002
428.964	598.699
432.089	654.664
435.212	696.331
438.333	658.751
441.454	677.704
444.573	628.913
447.691	579.238
450.807	563.373
453.923	577.559
457.037	587.112
460.15	551.986
463.261	530.131
466.371	499.145
469.48	483.065
472.588	466.195
475.695	457.822
478.8	452.313
481.904	456.061
485.007	457.946
488.108	452.377
491.208	438.44
494.307	463.675
497.405	458.111
500.502	463.777
503.597	477.897
506.691	494.796
509.784	503.337
512.874	509.136
515.964	514.95
519.053	536.771
522.141	492.335
525.227	503.079
528.312	484.883
531.396	474.232
534.479	455.167
537.559	484.019
540.639	472.309
543.718	433.172
546.796	450.468
549.873	454.348
552.948	417.759
556.022	436.778
559.093	430.089
562.165	409.987
565.235	414.387
568.304	405.463
571.372	412.46
574.437	393.05
577.503	398.014
580.567	390.82
583.63	394.046
586.691	369.27
589.75	390.354
592.81	397.576
595.868	402.021
598.924	424.35
601.98	448.795
605.033	446.334
608.086	444.815
611.138	433.115
614.188	427.041
617.236	397.71
620.285	417.037
623.332	413.03
626.376	412.829
629.42	395.36
632.464	406.946
635.506	391.936
638.545	389.022
641.585	390.697
644.623	391.218
647.659	383.425
650.695	390.623
653.73	397.652
656.762	401.807
659.794	402.207
662.825	414.745
665.854	409.567
668.883	389.47
671.91	392.967
674.935	362.314
677.96	349.243
680.982	351.099
684.005	330.719
687.027	339.3
690.045	330.28
693.064	340.006
696.082	332.903
699.097	317.333
702.113	328.926
705.126	314.213
708.139	329.499
711.149	323.077
714.16	332.288
717.169	318.122
720.176	315.17
723.183	317.943
726.187	304.593
729.192	318.395
732.194	307.803
735.196	317.824
738.196	325.016
741.196	316.327
744.193	305.799
747.19	319.6
750.185	297.956
753.18	295.102
756.173	301.523
759.165	304.44
762.155	307.498
765.146	300.403
768.133	318.614
771.121	298.449
774.107	303.585
777.092	315.251
780.075	303.357
783.058	287.604
786.039	285.907
789.02	303.979
791.998	303.164
794.975	307.947
797.952	294.75
800.927	292.786
803.902	296.435
806.874	302.858
809.845	309.275
812.817	290.19
815.786	288.961
818.755	302.713
821.721	302.358
824.686	296.363
827.652	304.405
830.615	303.201
833.576	307.82
836.538	298.509
839.498	311.763
842.458	301.812
845.415	291.74
848.37	292.032
851.327	306.438
854.28	295.53
857.233	297.796
860.184	313.278
863.135	292.009
866.084	307.53
869.032	320.249
871.98	327.226
874.925	330.311
877.87	339.007
880.813	333.461
883.756	307.925
886.697	298.45
889.636	316.442
892.576	295.488
895.513	301.072
898.45	319.79
901.385	308.072
904.318	293.517
907.253	293.157
910.184	301.243
913.114	287.669
916.044	304.236
918.973	314.363
921.9	310.443
924.826	313.244
927.75	328.314
930.674	319.166
933.596	338.15
936.519	357.429
939.439	370.312
942.357	410.686
945.275	428.49
948.192	444.552
951.107	474.912
954.023	505.329
956.936	503.333
959.848	493.561
962.759	486.567
965.669	466.944
968.577	432.91
971.485	462.961
974.391	467.013
977.296	472.79
980.201	487.931
983.104	540.366
986.006	579.238
988.907	600.78
991.806	647.119
994.704	632.174
997.602	616.369
1000.5	577.765
1003.39	546.902
1006.29	531.446
1009.18	519.945
1012.07	519.24
1014.96	519.5
1017.85	555.993
1020.74	584.966
1023.63	633.318
1026.51	652.255
1029.4	656.907
1032.28	598.271
1035.16	521.313
1038.04	489.405
1040.92	418.831
1043.8	403.058
1046.68	385.341
1049.56	361.614
1052.43	355.222
1055.31	335.189
1058.18	315.05
1061.05	326.855
1063.93	333.733
1066.8	308.384
1069.67	304.461
1072.53	326.746
1075.4	324.714
1078.26	331.369
1081.13	346.728
1083.99	358.196
1086.85	366.749
1089.72	381.195
1092.58	422.712
1095.44	452.609
1098.29	503.732
1101.15	527.768
1104	533.497
1106.86	505.707
1109.71	421.5
1112.56	394.726
1115.42	352.69
1118.27	324.146
1121.11	316.796
1123.96	308.381
1126.81	303.833
1129.65	304.235
1132.5	318.297
1135.34	319.689
1138.18	335.748
1141.03	355.828
1143.87	364.05
1146.7	405.579
1149.54	433.477
1152.38	484.872
1155.21	559.773
1158.05	539.985
1160.88	510.224
1163.71	443.834
1166.55	375.661
1169.37	323.31
1172.2	315.157
1175.03	289.377
1177.86	287.108
1180.68	277.096
1183.51	258.349
1186.33	263.185
1189.15	245.616
1191.98	265.177
1194.8	264.378
1197.61	260.633
1200.43	242.333
1203.25	250.562
1206.06	255.891
1208.88	260.322
1211.69	238.119
1214.51	268.269
1217.32	262.93
1220.13	251.639
1222.94	245.284
1225.74	234.905
1228.55	231.458
1231.36	241.981
1234.16	254.503
1236.97	250.936
1239.77	253.33
1242.57	237.48
1245.37	252.823
1248.17	248.932
1250.97	261.117
1253.77	230.881
1256.56	246.998
1259.36	259.012
1262.15	261.846
1264.94	247.553
1267.74	250.417
1270.53	264.302
1273.32	261.01
1276.11	281.833
1278.89	285.524
1281.68	317.292
1284.46	289.955
1287.25	248.694
1290.03	239.529
1292.81	248.409
1295.59	244.358
1298.38	251.333
1301.15	243.341
1303.93	247.438
1306.71	240.606
1309.48	227.834
1312.26	240.217
1315.03	238.581
1317.81	229.914
1320.58	228.299
1323.35	243.87
1326.12	233.229
1328.88	240.797
1331.65	234.176
1334.42	234.592
1337.18	232.96
1339.95	227.203
1342.71	222.368
1345.47	228.748
1348.23	228.971
1350.99	235.336
1353.75	239.632
1356.51	233.623
1359.26	230.653
1362.02	221.474
1364.77	237.937
1367.53	247.162
1370.28	249.176
1373.03	262.478
1375.78	285.034
1378.53	319.894
1381.28	352.678
1384.03	391.599
1386.77	331.984
1389.52	273.424
1392.26	240.6
1395	256.043
1397.74	232.65
1400.49	243.082
1403.23	227.823
1405.96	235.208
1408.7	236.442
1411.44	213.978
1414.17	211.104
1416.91	217.547
1419.64	209.513
1422.37	223.233
1425.11	219.373
1427.84	218.609
1430.56	224.101
1433.29	223.343
1436.02	220.499
1438.74	195.723
1441.47	228.34
1444.19	224.47
1446.92	210.056
1449.64	219.673
1452.36	220.855
1455.08	209.415
1457.8	223.117
1460.52	217.894
1463.23	215.791
1465.95	215.767
1468.66	199.985
1471.38	210.455
1474.09	214.638
1476.8	214.651
1479.51	218.899
1482.22	208.443
1484.93	216.917
1487.64	215.964
1490.34	213.989
1493.05	195.201
1495.75	221.708
1498.46	217.69
1501.16	216.865
1503.86	225.552
1506.56	206.784
1509.26	214.479
1511.96	213.713
1514.65	211.916
1517.35	202.679
1520.05	219.006
1522.74	204.427
1525.43	219.77
1528.13	212.639
1530.82	220.538
1533.51	206.996
1536.2	205.198
1538.88	214.107
1541.57	214.404
1544.25	211.362
1546.94	209.296
1549.62	207.161
1552.31	219.02
1554.99	210.241
1557.67	218.726
1560.35	213.222
1563.03	219.597
1565.71	208.699
1568.38	222.603
1571.06	212.786
1573.73	208.371
1576.41	217.981
1579.08	209.368
1581.75	219.059
1584.42	215.852
1587.09	229.889
1589.76	215.947
1592.43	210.645
1595.09	216.144
1597.76	205.503
1600.42	227.235
1603.09	210.154
1605.75	226.588
1608.41	218.21
1611.07	218.524
1613.73	224.325
1616.39	218.205
1619.05	221.901
1621.7	227.791
1624.36	210.711
1627.01	222.074
1629.67	225.786
1632.32	227.29
1634.97	227.635
1637.62	233.449
1640.27	218.09
1642.92	220.469
1645.57	228.391
1648.22	221.906
1650.86	230.895
1653.51	228.802
1656.15	218.908
1658.79	223.391
1661.43	215.663
1664.07	220.13
1666.71	231.229
1669.35	221.255
1671.99	222.365
1674.63	216.822
1677.26	215.678
1679.9	220.111
1682.53	210.062
1685.16	211.072
1687.79	208.761
1690.43	204.259
1693.05	204.221
1695.68	208.661
1698.31	204.315
1700.94	222.256
1703.56	197.339
1706.19	202.233
1708.81	201.563
1711.44	195.673
1714.06	207.937
1716.68	199.203
1719.3	202.934
1721.92	193.046
1724.53	196.524
1727.15	201.216
1729.77	204.79
1732.38	185.908
1735	190.592
1737.61	190.774
1740.22	192.084
1742.83	199.033
1745.44	187.936
1748.05	188.083
1750.66	197.252
1753.27	188.321
1755.87	195.207
1758.48	196.395
1761.08	186.236
1763.69	187.399
1766.29	193.104
1768.89	196.556
1771.49	181.885
1774.09	189.881
1776.69	187.703
1779.29	186.689
1781.88	193.646
1784.48	193.804
1787.07	184.878
1789.66	189.643
1792.26	181.87
1794.85	182.079
1797.44	193.727
1800.03	188.274
1802.62	174.776
1805.21	188.795
1807.79	185.586
1810.38	193.838
1812.96	190.591
1815.55	180.42
1818.13	182.932
1820.71	190.051
1823.29	193.737
1825.87	180.061
1828.45	189.543
1831.03	179.329
1833.61	187.676
1836.18	197.238
1838.76	170.648
1841.33	169.643
1843.91	188.466
1846.48	185.124
1849.05	181.762
1851.62	171.386
1854.19	176.147
1856.76	185.66
1859.33	185.815
1861.89	183.655
1864.46	174.432
1867.02	182.865
1869.59	192.451
1872.15	167.864
1874.71	177.403
1877.27	176.344
1879.83	164.641
1882.39	189.545
1884.95	196.719
1887.51	180.268
1890.06	175.559
1892.62	177.93
1895.17	181.479
1897.73	173.229
1900.28	179.206
1902.83	166.327
1905.38	168.86
1907.93	167.839
1910.48	182.317
1913.03	176.656
1915.57	174.581
1918.12	166.484
1920.66	182.028
1923.21	178.606
1925.75	181.172
1928.29	182.547
1930.83	174.336
1933.37	168.503
1935.91	172.247
1938.45	174.785
1940.99	173.703
1943.53	181.026
1946.06	169.086
1948.6	182.413
1951.13	178.858
1953.66	165.649
1956.19	174.114
1958.73	168.113
1961.26	171.747
1963.78	178.986
1966.31	182.603
1968.84	172.929
1971.36	175.293
1973.89	170.423
1976.41	180.01
1978.94	171.535
1981.46	160.653
1983.98	177.453
1986.5	167.788
1989.02	173.768
1991.54	165.322
1994.06	160.492
1996.58	165.288
1999.09	180.916
2001.61	171.311
2004.12	165.325
2006.63	172.589
2009.15	178.656
2011.66	172.718
2014.17	194.458
2016.68	174.062
2019.19	169.283
2021.69	180.188
2024.2	176.666
2026.71	171.951
2029.21	181.735
2031.72	171.015
2034.22	171.182
2036.72	174.976
2039.22	183.632
2041.72	169.257
2044.22	173.076
2046.72	181.777
2049.22	183.199
2051.71	168.773
2054.21	166.433
2056.71	171.491
2059.2	176.57
2061.69	181.66
2064.18	176.965
2066.68	173.492
2069.17	167.538
2071.66	187.374
2074.14	177.734
2076.63	179.144
2079.12	178.085
2081.6	162.212
2084.09	173.454
2086.57	174.812
2089.06	169.972
2091.54	183.729
2094.02	176.477
2096.5	170.484
2098.98	164.473
2101.46	180.827
2103.93	173.59
2106.41	153.883
2108.89	175.309
2111.36	178.063
2113.84	185.848
2116.31	174.856
2118.78	161.319
2121.25	165.338
2123.72	170.622
2126.19	159.521
2128.66	168.584
2131.13	175.132
2133.59	165.224
2136.06	164.153
2138.53	169.415
2140.99	167.059
2143.45	173.6
2145.92	164.856
2148.38	176.465
2150.84	160.015
2153.3	165.223
2155.76	172.976
2158.21	161.566
2160.67	171.852
2163.13	165.513
2165.58	161.709
2168.04	182.181
2170.49	164.318
2172.94	168.222
2175.39	179.803
2177.84	164.496
2180.29	165.786
2182.74	158.11
2185.19	167.046
2187.64	169.61
2190.08	154.27
2192.53	161.993
2194.98	164.6
2197.42	168.524
2199.86	166.062
2202.3	164.898
2204.74	166.317
2207.18	170.323
2209.62	152.481
2212.06	165.528
2214.5	167
2216.93	171.08
2219.37	159.661
2221.81	155.982
2224.24	157.477
2226.67	157.677
2229.11	164.375
2231.54	165.884
2233.97	163.49
2236.4	154.566
2238.83	174.351
2241.25	154.952
2243.68	170.863
2246.1	159.285
2248.53	167.365
2250.96	158.375
2253.38	158.568
2255.8	157.446
2258.22	148.42
2260.64	175.029
2263.06	158.042
2265.48	164.826
2267.9	163.656
2270.32	150.528
2272.73	162.584
2275.15	160.031
2277.56	158.795
2279.98	156.211
2282.39	156.261
2284.8	162.941
2287.21	160.296
2289.62	157.662
2292.03	161.671
2294.44	161.688
2296.85	151.074
2299.26	153.796
2301.66	161.854
2304.07	152.62
2306.47	162.077
2308.88	156.881
2311.28	166.399
2313.68	162.563
2316.08	137.307
2318.48	150.899
2320.88	165.862
2323.28	160.686
2325.68	171.678
2328.07	162.473
2330.47	168.1
2332.86	154.833
2335.26	156.425
2337.65	149.889
2340.04	159.635
2342.43	159.906
2344.82	157.455
2347.21	159.128
2349.6	158.031
2351.99	163.789
2354.38	166.795
2356.76	146.405
2359.15	158.99
2361.53	152.233
2363.92	151.021
2366.3	152.568
2368.68	152.734
2371.06	158.427
2373.44	147.506
2375.82	161.516
2378.2	156.127
2380.58	150.685
2382.95	164.686
2385.33	148.076
2387.71	155.098
2390.08	152.365
2392.45	153.782
2394.83	151.023
2397.2	149.627
2399.57	155.193
2401.94	160.765
2404.31	155.174
2406.68	144.029
2409.04	145.455
2411.41	159.498
2413.78	148.521
2416.14	146.034
2418.51	149.282
2420.87	149.563
2423.23	149.706
2425.59	149.776
2427.95	149.96
2430.31	145.919
2432.67	155.999
2435.03	150.572
2437.39	162.134
2439.75	139.687
2442.1	144.155
2444.46	157.17
2446.81	151.708
2449.16	144.804
2451.52	150.739
2453.87	159.54
2456.22	152.606
2458.57	151.396
2460.92	151.614
2463.27	140.323
2465.61	147.725
2467.96	150.812
2470.3	156.789
2472.65	142.515
2474.99	154.288
2477.34	157.397
2479.68	143.077
2482.02	144.708
2484.36	153.614
2486.7	137.738
2489.04	148.096
2491.38	148.245
2493.72	152.78
2496.05	150.021
2498.39	145.774
2500.72	154.713
2503.06	154.854
2505.39	144.705
2507.72	143.352
2510.06	158.173
2512.39	147.973
2514.72	156.905
2517.04	148.156
2519.37	146.793
2521.7	138.056
2524.03	145.555
2526.35	144.182
2528.68	150.213
2531	142.921
2533.33	146.014
2535.65	138.732
2537.97	141.839
2540.29	155.364
2542.61	152.547
2544.93	143.767
2547.25	148.408
2549.57	142.596
2551.88	160.692
2554.2	150.391
2556.51	144.538
2558.83	128.174
2561.14	152.327
2563.46	146.484
2565.77	149.677
2568.08	146.85
2570.39	141.014
2572.7	133.649
2575.01	141.378
2577.31	141.546
2579.62	143.212
2581.93	158.517
2584.23	158.626
2586.54	138.983
2588.84	152.735
2591.15	149.725
2593.45	137.645
2595.75	157.523
2598.05	147
2600.35	141.007
2602.65	145.675
2604.95	142.711
2607.24	155.009
2609.54	126.064
2611.84	152.09
2614.13	142.977
2616.42	141.502
2618.72	146.164
2621.01	153.878
2623.3	143.229
2625.59	146.374
2627.88	131.124
2630.17	135.841
2632.46	146.742
2634.75	157.683
2637.04	148.665
2639.32	135.021
2641.61	142.953
2643.89	147.828
2646.18	149.629
2648.46	138.987
2650.74	139.201
2653.02	150.326
2655.3	144.242
2657.58	139.69
2659.86	142.932
2662.14	149.294
2664.42	140.005
2666.69	138.518
2668.97	151.174
2671.24	160.716
2673.52	156.209
2675.79	147.023
2678.06	142.624
2680.33	143.008
2682.61	144.915
2684.88	134.133
2687.15	148.758
2689.41	137.926
2691.68	150.966
2693.95	143.247
2696.22	140.112
2698.48	146.679
2700.74	146.844
2703.01	127.718
2705.27	135.879
2707.53	147.275
2709.8	137.737
2712.06	147.528
2714.32	146.053
2716.57	151.087
2718.83	147.988
2721.09	138.422
2723.35	145.024
2725.6	137.014
2727.86	150.085
2730.11	148.542
2732.37	138.847
2734.62	151.913
2736.87	142.211
2739.12	150.382
2741.37	137.457
2743.62	152.188
2745.87	142.524
2748.12	141.009
2750.37	141.152
2752.61	134.862
2754.86	144.851
2757.1	128.613
2759.35	145.117
2761.59	155.053
2763.83	156.834
2766.08	137.264
2768.32	129.18
2770.56	135.873
2772.8	144.26
2775.04	151.032
2777.27	133.055
2779.51	143.17
2781.75	151.712
2783.98	146.979
2786.22	157.213
2788.45	147.476
2790.68	146.045
2792.92	146.273
2795.15	151.517
2797.38	145.01
2799.61	146.88
2801.84	147.055
2804.07	157.312
2806.3	144
2808.52	147.512
2810.75	139.212
2812.98	154.535
2815.2	156.336
2817.42	153.068
2819.65	139.645
2821.87	143.145
2824.09	136.485
2826.31	150.177
2828.53	141.806
2830.75	143.614
2832.97	148.821
2835.19	143.816
2837.41	137.106
2839.62	152.544
2841.84	154.361
2844.05	152.772
2846.27	154.62
2848.48	159.889
2850.69	142.931
2852.9	149.95
2855.12	143.275
2857.33	141.738
2859.54	152.232
2861.74	150.718
2863.95	137.14
2866.16	144.269
2868.37	160.07
2870.57	151.652
2872.78	146.676
2874.98	155.597
2877.18	136.69
2879.39	143.893
2881.59	159.865
2883.79	144.398
2885.99	144.663
2888.19	151.941
2890.39	162.756
2892.59	150.689
2894.78	157.999
2896.98	147.685
2899.18	151.508
2901.37	151.781
2903.57	164.465
2905.76	141.567
2907.95	154.262
2910.15	140.197
2912.34	151.083
2914.53	156.622
2916.72	158.582
2918.91	153.394
2921.09	153.585
2923.28	157.374
2925.47	144.985
2927.65	147
2929.84	145.409
2932.02	149.247
2934.21	147.626
2936.39	147.797
2938.57	153.39
2940.75	157.162
2942.94	159.132
2945.12	150.166
2947.29	161.191
2949.47	154.015
2951.65	150.482
2953.83	150.59
2956	158.003
2958.18	165.423
2960.36	152.738
2962.53	162.008
2964.7	151.143
2966.88	153.109
2969.05	166.094
2971.22	153.388
2973.39	162.727
2975.56	164.721
2977.73	168.559
2979.9	165.029
2982.06	154.128
2984.23	161.704
2986.4	156.354
2988.56	151.002
2990.73	164.196
2992.89	155.143
2995.05	166.52
2997.21	155.591
2999.38	155.834
3001.54	156.086
3003.7	156.349
3005.86	169.747
3008.01	162.516
3010.17	157.137
3012.33	166.786
3014.49	170.845
3016.64	156.018
3018.8	182.829
3020.95	179.365
3023.1	168.26
3025.26	172.325
3027.41	166.838
3029.56	182.327
3031.71	180.637
3033.86	167.436
3036.01	171.426
3038.16	165.811
3040.31	179.447
3042.45	196.916
3044.6	181.712
3046.74	193.418
3048.89	178.175
3051.03	172.542
3053.18	180.404
3055.32	186.366
3057.46	192.338
3059.6	178.964
3061.74	179.12
3063.88	208.349
3066.02	202.715
3068.16	189.3
3070.3	183.636
3072.43	197.411
3074.57	183.966
3076.7	203.622
3078.84	192.112
3080.97	205.954
3083.1	204.191
3085.24	204.423
3087.37	208.577
3089.5	216.702
3091.63	207.194
3093.76	207.512
3095.89	205.885
3098.02	216.089
3100.14	220.391
3102.27	228.686
3104.4	248.933
3106.52	219.59
3108.65	227.97
3110.77	242.385
3112.89	246.869
3115.01	265.366
3117.14	251.845
3119.26	252.34
3121.38	240.784
3123.5	243.318
3125.62	227.666
3127.73	256.582
3129.85	253.124
3131.97	255.793
3134.08	250.286
3136.2	277.517
3138.31	274.063
3140.43	268.505
3142.54	271.146
3144.65	282.035
3146.76	278.452
3148.87	297.667
3150.98	264.942
3153.09	294.481
3155.2	286.592
3157.31	303.709
3159.42	314.607
3161.52	289.954
3163.63	321.839
3165.73	315.98
3167.84	326.904
3169.94	329.41
3172.05	334.139
3174.15	319.78
3176.25	326.437
3178.35	366.905
3180.45	356.611
3182.55	346.272
3184.65	354.976
3186.75	355.194
3188.84	355.319
3190.94	351.34
3193.04	362.257
3195.13	368.956
3197.23	375.766
3199.32	374.181
3201.41	387.709
3203.51	394.795
3205.6	401.952
3207.69	394.18
3209.78	382.049
3211.87	376.359
3213.96	392.282
3216.05	386.656
3218.13	396.153
3220.22	386.058
3222.31	389.014
3224.39	372.317
3226.48	397.149
3228.56	397.934
3230.64	381.118
3232.73	386.28
3234.81	384.738
3236.89	389.828
3238.97	388.353
3241.05	380.276
3243.13	396.605
3245.21	399.762
3247.29	389.338
3249.36	349.848
3251.44	381.676
3253.52	371.013
3255.59	364.695
3257.66	356.123
3259.74	392.733
3261.81	361.816
3263.88	371.504
3265.95	370.016
3268.03	366.688
3270.1	380.785
3272.17	363.592
3274.23	382.364
3276.3	368.986
3278.37	385.4
3280.44	372.048
3282.5	351.802
3284.57	375.102
3286.63	377.776
3288.7	398.834
3290.76	373.902
3292.82	369.631
3294.88	386.089
3296.94	347.201
3299	365.994
3301.06	377.982
3303.12	362.13
3305.18	330.066
3307.24	367.487
3309.3	377.115
3311.35	365.834
3313.41	370.78
3315.46	364.166
3317.52	378.455
3319.57	395.174
3321.63	367.589
3323.68	384.414
3325.73	382.54
3327.78	380.723
3329.83	362.454
3331.88	377.198
3333.93	410.859
3335.98	385.63
3338.02	402.855
3340.07	391.547
3342.12	406.218
3344.16	394.773
3346.21	395.177
3348.25	378.827
3350.3	398.221
3352.34	389.048
3354.38	403.663
3356.42	411.284
3358.46	385.49
3360.5	419.37
3362.54	405.512
3364.58	408.335
3366.62	403.963
3368.66	401.993
3370.69	404.834
3372.73	407.619
3374.76	407.969
3376.8	410.684
3378.83	403.744
3380.87	396.789
3382.9	421.187
3384.93	411.795
3386.96	436.214
3388.99	434.048
3391.02	441.529
3393.05	410.295
3395.08	420.253
3397.11	427.84
3399.14	416.035
3401.16	421.158
3403.19	435.928
3405.21	433.696
3407.24	407.175
3409.26	431.689
3411.29	426.969
3413.31	417.405
3415.33	422.436
3417.35	444.536
3419.37	425.212
3421.39	437.549
3423.41	452.321
3425.43	435.414
3427.45	445.392
3429.46	426.105
3431.48	433.702
3433.5	441.331
3435.51	429.433
3437.53	415.098
3439.54	432.629
3441.55	420.751
3443.57	426.081
3445.58	438.869
3447.59	441.903
3449.6	432.592
3451.61	403.515
3453.62	441.155
3455.63	414.599
3457.64	407.862
3459.64	433.405
3461.65	399.333
3463.66	414.993
3465.66	455.677
3467.67	393.951
3469.67	424.679
3471.67	420.358
3473.68	415.787
3475.68	398.819
3477.68	389.345
3479.68	427.794
3481.68	405.682
3483.68	406.271
3485.68	404.317
3487.68	384.573
3489.67	382.555
3491.67	403.439
3493.67	403.964
3495.66	384.024
3497.66	371.683
3499.65	392.531
3501.64	374.994
3503.64	341.997
3505.63	365.363
3507.62	373.295
3509.61	376.027
3511.6	353.043
3513.59	358.296
3515.58	355.838
3517.57	340.52
3519.56	350.902
3521.54	345.855
3523.53	338.243
3525.52	328.08
3527.5	348.808
3529.49	328.271
3531.47	320.727
3533.45	308.104
3535.43	323.884
3537.42	316.5
3539.4	301.376
3541.38	314.633
3543.36	294.191
3545.34	312.599
3547.32	294.674
3549.29	305.271
3551.27	302.83
3553.25	287.226
3555.22	284.737
3557.2	277.076
3559.17	285.047
3561.15	274.814
3563.12	264.59
3565.09	277.852
3567.07	262.451
3569.04	254.935
3571.01	263.032
3572.98	276.404
3574.95	260.98
3576.92	253.423
3578.88	261.654
3580.85	277.828
3582.82	236.045
3584.79	244.323
3586.75	252.622
3588.72	247.693
3590.68	237.442
3592.64	251.07
3594.61	267.398
3596.57	222.49
3598.53	249.48
3600.49	228.419
3602.45	234.061
3604.41	212.926
3606.37	223.895
3608.33	224.138
3610.29	213.615
3612.25	213.831
3614.2	224.84
3616.16	206.178
3618.12	198.288
3620.07	211.949
3622.02	222.875
3623.98	193.227
3625.93	209.509
3627.88	198.761
3629.84	204.224
3631.79	177.196
3633.74	188.058
3635.69	174.587
3637.64	196.335
3639.58	163.946
3641.53	188.502
3643.48	164.252
3645.43	167.133
3647.37	175.504
3649.32	175.514
3651.26	167.446
3653.21	156.646
3655.15	151.264
3657.09	159.515
3659.03	167.768
3660.98	178.754
3662.92	165.163
3664.86	162.503
3666.8	157.123
3668.74	151.74
3670.67	151.811
3672.61	149.149
3674.55	157.473
3676.49	143.897
3678.42	130.314
3680.36	144.18
3682.29	155.344
3684.23	133.518
3686.16	122.678
3688.09	128.37
3690.02	136.845
3691.96	137.042
3693.89	137.22
3695.82	131.831
3697.75	126.456
3699.68	129.407
3701.61	118.439
3703.53	121.368
3705.46	135.509
3707.39	118.913
3709.31	130.285
3711.24	138.88
3713.16	116.593
3715.09	142.048
3717.01	130.943
3718.93	128.262
3720.86	122.749
3722.78	125.692
3724.7	117.323
3726.62	131.569
3728.54	123.189
3730.46	123.297
3732.38	131.93
3734.29	126.376
3736.21	117.969
3738.13	126.613
3740.04	121.027
3741.96	115.425
3743.87	124.075
3745.79	121.315
3747.7	121.4
3749.62	110.044
3751.53	115.824
3753.44	124.463
3755.35	115.926
3757.26	127.417
3759.17	110.269
3761.08	116.024
3762.99	116.052
3764.9	110.343
3766.81	124.703
3768.71	121.878
3770.62	124.796
3772.52	124.853
3774.43	119.164
3776.33	122.088
3778.24	113.529
3780.14	116.475
3782.04	116.556
3783.95	128.17
3785.85	128.271
3787.75	111.057
3789.65	125.562
3791.55	105.429
3793.45	122.86
3795.34	125.868
3797.24	111.512
3799.14	123.221
3801.04	114.643
3802.93	108.954
3804.83	123.62
3806.72	115.028
3808.62	120.992
3810.51	132.799
3812.4	127.092
3814.29	112.598
3816.19	100.999
3818.08	112.821
3819.97	133.462
3821.86	121.84
3823.75	113.128
3825.64	116.152
3827.52	107.418
3829.41	116.347
3831.3	116.459
3833.18	110.668
3835.07	122.584
3836.95	116.775
3838.84	105.034
3840.72	111.058
3842.61	114.138
3844.49	123.117
3846.37	123.178
3848.25	105.397
3850.13	117.316
3852.01	111.415
3853.89	105.49
3855.77	114.438
3857.65	123.361
3859.53	105.522
3861.41	120.402
3863.28	111.51
3865.16	105.644
3867.03	99.8007
3868.91	114.852
3870.78	111.977
3872.66	114.977
3874.53	112.025
3876.4	118.037
3878.27	100.138
3880.14	112.131
3882.01	112.17
3883.89	112.214
3885.75	109.271
3887.62	103.334
3889.49	109.381
3891.36	115.442
3893.23	106.525
3895.09	109.64
3896.96	112.732
3898.82	115.826
3900.69	100.864
3902.55	94.9156
3904.42	101.009
3906.28	104.105
3908.14	122.285
3910	98.2046
3911.87	107.365
3913.73	107.453
3915.59	125.732
3917.45	107.663
3919.3	113.855
3921.16	117.037
3923.02	98.9183
3924.88	102.08
3926.73	102.192
3928.59	105.353
3930.45	114.63
3932.3	96.3746
3934.15	114.815
3936.01	111.836
3937.86	108.846
3939.71	112.009
3941.56	96.7555
3943.42	115.312
3945.27	112.343
3947.12	112.451
3948.97	109.468
3950.81	109.551
3952.66	106.542
3954.51	106.611
3956.36	115.958
3958.2	97.4565
3960.05	116.065
3961.9	85.1482
3963.74	103.766
3965.58	109.992
3967.43	97.6178
3969.27	106.924
3971.11	110.039
3972.96	103.857
3974.8	103.877
3976.64	113.196
3978.48	107.004
3980.32	100.801
3982.16	106.996
3984	100.789
3985.83	113.194
3987.67	110.085
3989.51	94.583
3991.34	113.205
3993.18	82.2093
3995.01	103.956
3996.85	107.107
3998.68	104.053
