#Acq. time (s)=	45
#Accumulations=	2
#Range (cm-¹)=	1200...2380
#Windows=	6
#Auto scanning=	Off
#Autofocus=	Off
#Macrospot=	Off
#AutoExposure=	Off
#Spike filter=	Multiple accum.
#Delay time (s)=	2
#Binning=	1
#Readout mode=	Signal
#DeNoise=	Off
#ICS correction=	On
#Dark correction=	Off
#Inst. Process=	Off
#Detector Gain=	Best Dynamic
#Detector ADC=	50 kHz EM
#Detector EM gain=	100
#Detector temperature (°C)=	-60.09
#Instrument=	LabRAM HR Evol
#Detector=	SIN-EM FIVIS
#Objective=	x100_VIS_LWD
#Grating=	1800 (450-850nm)
#ND Filter=	100%
#Laser=	633nm_Edge
#Hole=	49.98
#Temperature=	0
#Range=	Visible
#StageXY=	75x50mm Scan+
#StageZ=	Z motor
#X (µm)=	0
#Y (µm)=	0
#Z (µm)=	-8.8
#Full time(mm:ss)=	9:33
#Project=	21_11_22
#Sample=	BU04w
#Site=	
#Title=	BU04w-A-FF3-FI06-V_1800 (450-850nm)_633nm_Edge_100%_x100_VIS_LWD_H50um_45sX2
#Remark=	
#Date=	22.11.2021 11:14
#Acquired=	22.11.2021 11:14:53
1200.03	294.495
1200.21	295.396
1200.38	294.213
1200.55	300.738
1200.72	289.235
1200.89	297.268
1201.07	296.475
1201.24	296.139
1201.41	294.645
1201.58	294.303
1201.76	292.509
1201.93	295.535
1202.1	295.643
1202.27	293.657
1202.44	296.545
1202.62	296.172
1202.79	294.809
1202.96	295.638
1203.13	294.611
1203.3	298.725
1203.48	293.188
1203.65	294.624
1203.82	292.4
1203.99	296.255
1204.16	293.76
1204.34	295.24
1204.51	296.511
1204.68	293.469
1204.85	292.952
1205.02	293.094
1205.2	296.603
1205.37	294.326
1205.54	299.258
1205.71	298.072
1205.88	296.077
1206.06	295.181
1206.23	297.222
1206.4	295.788
1206.57	298.2
1206.74	296.679
1206.92	294.864
1207.09	294.128
1207.26	296.805
1207.43	294.364
1207.6	297.486
1207.77	294.048
1207.95	295.286
1208.12	295.121
1208.29	290.835
1208.46	298.95
1208.63	298.09
1208.8	298.816
1208.98	297.723
1209.15	294.951
1209.32	295.728
1209.49	294.905
1209.66	292.61
1209.84	297.841
1210.01	295.208
1210.18	294.102
1210.35	295.028
1210.52	293.987
1210.69	300.104
1210.87	298.906
1211.04	293.831
1211.21	295.484
1211.38	297.571
1211.55	295.026
1211.72	293.705
1211.9	301.615
1212.07	299.231
1212.24	297.041
1212.41	293.489
1212.58	294.458
1212.75	292.45
1212.93	292.775
1213.1	297.975
1213.27	295.718
1213.44	294.842
1213.61	297.322
1213.78	293.638
1213.95	292.217
1214.13	296.497
1214.3	296.841
1214.47	301.863
1214.64	303.996
1214.81	302.431
1214.98	294.633
1215.16	295.144
1215.33	299.752
1215.5	294.244
1215.67	300.133
1215.84	293.897
1216.01	294.373
1216.18	295.862
1216.36	299.142
1216.53	296.757
1216.7	296.237
1216.87	302.774
1217.04	295.799
1217.21	299.608
1217.38	291.775
1217.56	295.256
1217.73	297.213
1217.9	296.503
1218.07	294.591
1218.24	298.664
1218.41	303.187
1218.58	296.088
1218.76	298.892
1218.93	296.165
1219.1	294.649
1219.27	298.009
1219.44	296.197
1219.61	297.924
1219.78	294.483
1219.96	299.718
1220.13	298.493
1220.3	296.614
1220.47	297.799
1220.64	299.728
1220.81	300.932
1220.98	296.237
1221.15	294.998
1221.33	292.397
1221.5	296.41
1221.67	295.37
1221.84	292.792
1222.01	297.211
1222.18	300.222
1222.35	298.99
1222.53	293.284
1222.7	296.589
1222.87	303.466
1223.04	300.12
1223.21	297.978
1223.38	295.091
1223.55	301.357
1223.72	299.358
1223.89	298.335
1224.07	296.989
1224.24	295.702
1224.41	295.274
1224.58	297.972
1224.75	295.145
1224.92	301.584
1225.09	298.069
1225.26	297.287
1225.43	296.432
1225.6	297.335
1225.78	294.697
1225.95	299.331
1226.12	301.5
1226.29	302.122
1226.46	298.181
1226.63	295.839
1226.8	310.064
1226.97	299.577
1227.14	302.48
1227.32	295.582
1227.49	296.902
1227.66	299.182
1227.83	297.007
1228	299.334
1228.17	300.114
1228.34	299.336
1228.51	301.693
1228.68	294.446
1228.85	298.336
1229.03	297.361
1229.2	298.84
1229.37	300.136
1229.54	298.476
1229.71	298.736
1229.88	295.98
1230.05	300.743
1230.22	299.073
1230.39	298.93
1230.56	301.987
1230.73	300.392
1230.91	297.434
1231.08	300.999
1231.25	300.077
1231.42	304.304
1231.59	302.299
1231.76	299.781
1231.93	302.521
1232.1	300.316
1232.27	301.458
1232.44	302.079
1232.61	304.204
1232.78	298.583
1232.96	302.309
1233.13	300.972
1233.3	296.064
1233.47	300.967
1233.64	296.466
1233.81	300.388
1233.98	300.929
1234.15	302.841
1234.32	300.378
1234.49	298.044
1234.66	300.924
1234.83	298.154
1235	301.558
1235.17	304.795
1235.35	302.444
1235.52	301.685
1235.69	303.013
1235.86	299.547
1236.03	305.568
1236.2	306.942
1236.37	308.023
1236.54	303.878
1236.71	300.665
1236.88	298.55
1237.05	301.042
1237.22	302.458
1237.39	302.741
1237.56	299.631
1237.73	303.755
1237.9	304.256
1238.07	300.618
1238.25	301.408
1238.42	300.774
1238.59	302.603
1238.76	297.38
1238.93	301.265
1239.1	300.041
1239.27	296.391
1239.44	304.742
1239.61	302.561
1239.78	303.61
1239.95	302.136
1240.12	302.824
1240.29	307.192
1240.46	304.695
1240.63	303.879
1240.8	305.579
1240.97	305.474
1241.14	304.658
1241.31	303.838
1241.48	299.838
1241.66	301.077
1241.83	302.438
1242	300.798
1242.17	299.543
1242.34	308.042
1242.51	302.755
1242.68	305.577
1242.85	302.654
1243.02	302.954
1243.19	299.867
1243.36	309.92
1243.53	303.577
1243.7	306.404
1243.87	303.514
1244.04	307.851
1244.21	300.366
1244.38	300.685
1244.55	307.574
1244.72	306.963
1244.89	300.482
1245.06	302.762
1245.23	302.344
1245.4	306.353
1245.57	303.951
1245.74	305.886
1245.91	302.78
1246.08	303.898
1246.25	299.338
1246.42	306.211
1246.59	306.619
1246.76	301.992
1246.93	304.322
1247.1	305.214
1247.27	301.262
1247.44	306.727
1247.61	308.022
1247.79	305.754
1247.96	299.43
1248.13	300.516
1248.3	303.74
1248.47	304.72
1248.64	303.905
1248.81	301.087
1248.98	302.455
1249.15	304.995
1249.32	302.797
1249.49	305.994
1249.66	306.76
1249.83	303.873
1250	307.115
1250.17	307.1
1250.34	304.285
1250.51	302.568
1250.68	300.621
1250.85	307.326
1251.02	305.104
1251.19	301.579
1251.36	309.601
1251.53	304.581
1251.7	306.097
1251.87	302.19
1252.04	303.157
1252.21	307.139
1252.38	305.136
1252.55	303.686
1252.72	307.239
1252.89	301.141
1253.06	312.195
1253.23	304.552
1253.4	304.646
1253.57	304.331
1253.74	302.873
1253.91	306.487
1254.08	307.019
1254.25	302.991
1254.42	305.238
1254.59	303.937
1254.75	310.236
1254.93	306.509
1255.09	306
1255.27	305.863
1255.43	304.793
1255.6	305.957
1255.77	314.107
1255.94	307.363
1256.11	306.691
1256.28	302.203
1256.45	306.83
1256.62	305.559
1256.79	304.928
1256.96	306.041
1257.13	303.273
1257.3	306.701
1257.47	305.606
1257.64	302.402
1257.81	303.801
1257.98	302.493
1258.15	308.562
1258.32	304.208
1258.49	303.066
1258.66	308.25
1258.83	305.87
1259	305.902
1259.17	306.195
1259.34	309.397
1259.51	305.856
1259.68	306.465
1259.85	305.372
1260.02	305.301
1260.19	301.669
1260.36	306.984
1260.53	306.08
1260.7	308.084
1260.87	306.962
1261.03	301.662
1261.2	307.082
1261.37	305.663
1261.54	308.61
1261.71	307.033
1261.88	307.685
1262.05	305.421
1262.22	305.537
1262.39	304.093
1262.56	309.771
1262.73	309.219
1262.9	306.977
1263.07	314.111
1263.24	303.899
1263.41	305.578
1263.58	310.535
1263.75	306.637
1263.92	310.585
1264.09	308.129
1264.26	306.403
1264.43	305.489
1264.59	310.152
1264.76	305.2
1264.93	310.585
1265.1	308.615
1265.27	307.317
1265.44	303.304
1265.61	307.403
1265.78	309.407
1265.95	303.39
1266.12	309.678
1266.29	305.772
1266.46	303.271
1266.63	304.91
1266.8	301.863
1266.97	309.082
1267.14	304.467
1267.3	305.246
1267.47	305.684
1267.64	305.038
1267.81	305.158
1267.98	303.956
1268.15	307.006
1268.32	302.89
1268.49	304.913
1268.66	305.861
1268.83	305.702
1269	312.064
1269.17	302.483
1269.34	303.468
1269.51	304.409
1269.67	305.364
1269.84	307.742
1270.01	305.543
1270.18	305.275
1270.35	303.293
1270.52	305.325
1270.69	307.78
1270.86	303.746
1271.03	304.492
1271.2	302.76
1271.37	306.479
1271.53	303.25
1271.7	306.526
1271.87	303.043
1272.04	300.242
1272.21	301.393
1272.38	306.012
1272.55	304.314
1272.72	306.591
1272.89	301.83
1273.06	307.52
1273.23	305.022
1273.4	304.666
1273.56	310.141
1273.73	306.274
1273.9	304.661
1274.07	303.071
1274.24	304.425
1274.41	305.616
1274.58	307.167
1274.75	303.624
1274.92	302.825
1275.09	304.119
1275.26	309.734
1275.42	306.71
1275.59	309.309
1275.76	304
1275.93	303.921
1276.1	303.146
1276.27	308.014
1276.44	303.099
1276.61	303.958
1276.77	305.494
1276.94	302.773
1277.11	307.974
1277.28	301.862
1277.45	300.806
1277.62	306.234
1277.79	304.458
1277.96	307.288
1278.13	305.964
1278.3	299.791
1278.46	303.076
1278.63	304.105
1278.8	308.057
1278.97	303.02
1279.14	304.658
1279.31	307.494
1279.48	302.266
1279.65	305.241
1279.82	303.281
1279.98	306.269
1280.15	303.368
1280.32	308.951
1280.49	308.687
1280.66	302.502
1280.83	304.17
1281	302.847
1281.17	306.312
1281.33	304.641
1281.5	306.625
1281.67	307.132
1281.84	307.717
1282.01	299.882
1282.18	310.458
1282.35	307.804
1282.51	314.107
1282.68	311.53
1282.85	309.857
1283.02	319.641
1283.19	319.816
1283.36	329.29
1283.53	326.493
1283.7	333.389
1283.86	351.366
1284.03	348.948
1284.2	366.235
1284.37	373.263
1284.54	364.22
1284.71	339.647
1284.88	339.949
1285.04	331.75
1285.21	315.134
1285.38	313.718
1285.55	314.736
1285.72	309.723
1285.89	303.687
1286.06	307.001
1286.22	307.81
1286.39	305.449
1286.56	305.636
1286.73	302.972
1286.9	306.247
1287.07	299.032
1287.23	304.886
1287.4	303.464
1287.57	305.541
1287.74	304.94
1287.91	302.329
1288.08	303.295
1288.25	306.125
1288.41	301.581
1288.58	304.475
1288.75	304.542
1288.92	301.045
1289.09	300.615
1289.26	301.936
1289.42	299.23
1289.59	304.952
1289.76	302.744
1289.93	305.771
1290.1	302.827
1290.27	301.039
1290.44	299.879
1290.6	304.036
1290.77	304.298
1290.94	305.624
1291.11	299.264
1291.28	306.195
1291.44	307.112
1291.61	305.247
1291.78	303.956
1291.95	303.137
1292.12	308.662
1292.29	304.524
1292.45	301.841
1292.62	302.116
1292.79	302.619
1292.96	301.893
1293.13	300.254
1293.3	302.113
1293.46	298.14
1293.63	306.602
1293.8	305.467
1293.97	300.048
1294.14	298.412
1294.3	300.641
1294.47	302.335
1294.64	297.202
1294.81	300.176
1294.98	297.622
1295.15	301.494
1295.31	300.872
1295.48	301.471
1295.65	305.535
1295.82	296.119
1295.99	299.748
1296.15	301.672
1296.32	304.405
1296.49	300.679
1296.66	299.221
1296.83	297.724
1296.99	306.143
1297.16	300.998
1297.33	303.579
1297.5	302.168
1297.67	309.972
1297.83	299.079
1298	299.286
1298.17	300.81
1298.34	301.951
1298.51	299.161
1298.67	301.573
1298.84	303.488
1299.01	299.25
1299.18	306.731
1299.35	303.862
1299.52	300.962
1299.68	300.702
1299.85	302.161
1300.02	300.532
1300.19	301.334
1300.36	299.064
1300.52	303.663
1300.69	302.436
1300.86	300.965
1301.03	301.313
1301.19	300.332
1301.36	302.976
1301.53	298.211
1301.7	301.21
1301.87	301.034
1302.03	302.355
1302.2	305.053
1302.37	308.044
1302.54	299.327
1302.71	300.751
1302.87	296.279
1303.04	301.132
1303.21	302.089
1303.38	303.165
1303.54	298.446
1303.71	300.944
1303.88	307.175
1304.05	299.654
1304.21	305.826
1304.38	303.556
1304.55	301.343
1304.72	299.099
1304.89	295.67
1305.05	301.793
1305.22	304.411
1305.39	297.437
1305.56	299.258
1305.72	298.889
1305.89	301.862
1306.06	303.132
1306.23	302.215
1306.4	301.911
1306.56	298.865
1306.73	303.176
1306.9	301.046
1307.07	300.89
1307.23	300.1
1307.4	302.061
1307.57	306.919
1307.74	301.929
1307.9	300.553
1308.07	308.283
1308.24	299.87
1308.41	301.592
1308.57	310.508
1308.74	299.726
1308.91	302.623
1309.08	299.969
1309.24	298.083
1309.41	301.186
1309.58	302.415
1309.75	301.891
1309.91	302.282
1310.08	302.094
1310.25	303.12
1310.42	302.009
1310.58	300.339
1310.75	301.666
1310.92	305.682
1311.09	301.003
1311.25	302.319
1311.42	300.52
1311.59	301.743
1311.76	300.842
1311.92	303.926
1312.09	301.546
1312.26	301.558
1312.43	301.563
1312.59	297.082
1312.76	298.377
1312.93	301.626
1313.1	303.497
1313.26	302.208
1313.43	307.592
1313.6	302.268
1313.77	297.138
1313.93	300.632
1314.1	299.985
1314.27	301.918
1314.43	300.638
1314.6	297.822
1314.77	300.666
1314.94	303.777
1315.1	305.275
1315.27	299.507
1315.44	302.366
1315.61	301.249
1315.77	300.679
1315.94	304.251
1316.11	302.854
1316.28	304.426
1316.44	299.574
1316.61	300.97
1316.78	300.027
1316.94	302.5
1317.11	300.088
1317.28	305.987
1317.45	298.677
1317.61	304.6
1317.78	299.697
1317.95	302.653
1318.12	301.499
1318.28	303.484
1318.45	305.768
1318.62	302.203
1318.78	309.386
1318.95	303.456
1319.12	303.524
1319.28	302.679
1319.45	304.313
1319.62	303.841
1319.79	302.104
1319.95	301.98
1320.12	302.974
1320.29	304.325
1320.45	301.73
1320.62	301.035
1320.79	304.183
1320.95	297.87
1321.12	305.719
1321.29	300.532
1321.46	308.472
1321.62	299.536
1321.79	304.17
1321.96	302.867
1322.12	303.289
1322.29	301.425
1322.46	302.502
1322.63	300.566
1322.79	302.711
1322.96	305.863
1323.13	304.782
1323.29	306.622
1323.46	301.481
1323.63	298.421
1323.79	302.972
1323.96	302.373
1324.13	300.991
1324.3	303.117
1324.46	307.351
1324.63	300.065
1324.8	304.471
1324.96	303.021
1325.13	303.797
1325.3	302.583
1325.46	302.473
1325.63	304.525
1325.8	304.878
1325.96	305.247
1326.13	302.648
1326.3	302.89
1326.46	303.888
1326.63	307.948
1326.8	304.104
1326.96	306.932
1327.13	305.086
1327.3	305.5
1327.47	307.885
1327.63	301.964
1327.8	302.407
1327.97	306.815
1328.13	307.207
1328.3	306.132
1328.47	306.011
1328.63	312.7
1328.8	304.415
1328.97	307.454
1329.13	302.636
1329.3	302.189
1329.47	302.63
1329.63	306.263
1329.8	308.96
1329.97	305.361
1330.13	305.793
1330.3	305.353
1330.47	307.628
1330.63	307.852
1330.8	310.452
1330.97	303.876
1331.13	307.064
1331.3	309.569
1331.46	309.911
1331.63	303.786
1331.8	310.592
1331.96	304.525
1332.13	306.102
1332.3	303.021
1332.46	301.429
1332.63	310.937
1332.8	308.306
1332.96	304.726
1333.13	307.491
1333.3	304.211
1333.46	305.356
1333.63	304.53
1333.8	305.01
1333.96	304.124
1334.13	309.966
1334.3	306.029
1334.46	306.455
1334.63	301.593
1334.8	303.86
1334.96	308.936
1335.13	310.185
1335.29	308.091
1335.46	306.34
1335.63	309.014
1335.79	303.265
1335.96	310.505
1336.13	304.212
1336.29	306.226
1336.46	307.032
1336.63	306.099
1336.79	309.649
1336.96	303.284
1337.13	307.577
1337.29	307.713
1337.46	304.483
1337.62	306.28
1337.79	307.526
1337.96	305.029
1338.12	311.935
1338.29	306.284
1338.46	306.703
1338.62	308.993
1338.79	304.9
1338.96	309.079
1339.12	306.988
1339.29	307.455
1339.45	307.556
1339.62	305.078
1339.79	306.147
1339.95	304.358
1340.12	307.578
1340.28	308.271
1340.45	306.035
1340.62	307.743
1340.78	307.548
1340.95	309.592
1341.12	309.082
1341.28	309.411
1341.45	308.066
1341.61	305.704
1341.78	307.948
1341.95	306.167
1342.11	305.481
1342.28	309.78
1342.44	307.676
1342.61	304.28
1342.78	301.254
1342.94	308.599
1343.11	309.642
1343.28	307.741
1343.44	309.894
1343.61	305.668
1343.77	308.668
1343.94	309.768
1344.11	306.882
1344.27	306.008
1344.44	303.881
1344.6	310.112
1344.77	308.298
1344.94	305.07
1345.1	307.148
1345.27	318.892
1345.43	310.637
1345.6	311.802
1345.77	306.895
1345.93	309.551
1346.1	308.343
1346.27	309.724
1346.43	308.366
1346.6	311.922
1346.76	313.229
1346.93	304.991
1347.09	304.911
1347.26	312.089
1347.43	311.559
1347.59	309.22
1347.76	310.266
1347.92	309.499
1348.09	308.984
1348.26	309.863
1348.42	309.857
1348.59	310.97
1348.75	306.359
1348.92	307.308
1349.08	306.859
1349.25	316.387
1349.42	303.401
1349.58	307.678
1349.75	309.126
1349.91	306.806
1350.08	307.522
1350.25	309.973
1350.41	310.513
1350.58	308.839
1350.74	310.396
1350.91	310.361
1351.07	309.733
1351.24	312.233
1351.41	310.018
1351.57	310.916
1351.74	306.552
1351.9	308.565
1352.07	310.078
1352.24	310.584
1352.4	307.666
1352.57	312.978
1352.73	310.033
1352.9	305.638
1353.06	307.134
1353.23	312.146
1353.4	311.701
1353.56	312.412
1353.73	311.858
1353.89	310.326
1354.06	307.095
1354.22	305.264
1354.39	314.05
1354.55	309.845
1354.72	309.92
1354.88	309.368
1355.05	308.558
1355.22	308.414
1355.38	306.916
1355.55	308.044
1355.71	307.445
1355.88	306.498
1356.04	310.666
1356.21	310.297
1356.38	311.472
1356.54	308.953
1356.71	310.684
1356.87	310.851
1357.04	308.348
1357.2	310.027
1357.37	311.764
1357.53	309.824
1357.7	309.955
1357.86	311.432
1358.03	308.028
1358.2	313.324
1358.36	311.61
1358.53	308.026
1358.69	307.921
1358.86	318.784
1359.02	309.363
1359.19	308.067
1359.35	313.625
1359.52	309.56
1359.69	309.643
1359.85	308.664
1360.02	314.06
1360.18	307.591
1360.35	309.581
1360.51	312.964
1360.68	312.472
1360.84	312.083
1361.01	312.442
1361.17	309.66
1361.34	308.857
1361.5	307.36
1361.67	310.413
1361.83	311.992
1362	313.584
1362.17	316.01
1362.33	306.691
1362.49	312.267
1362.66	309.041
1362.83	312.486
1362.99	309.563
1363.16	310.732
1363.32	313.273
1363.49	307.56
1363.65	313.339
1363.82	316.1
1363.98	310.679
1364.15	307.472
1364.31	311.107
1364.48	317.472
1364.64	315.844
1364.81	311.865
1364.97	309.842
1365.14	314.395
1365.3	312.321
1365.47	306.765
1365.63	310.481
1365.8	308.32
1365.97	309.273
1366.13	314.534
1366.29	310.022
1366.46	310.34
1366.63	307.869
1366.79	309.807
1366.95	307.785
1367.12	308.281
1367.29	314.856
1367.45	311.12
1367.61	310.26
1367.78	313.72
1367.95	310.635
1368.11	311.079
1368.28	306.493
1368.44	312.07
1368.61	310.146
1368.77	313.329
1368.94	316.792
1369.1	311.899
1369.27	310.708
1369.43	318.352
1369.6	314.813
1369.76	314.559
1369.93	310.272
1370.09	307.875
1370.25	309.14
1370.42	311.864
1370.59	309.043
1370.75	310.967
1370.91	312.529
1371.08	310.287
1371.25	315.296
1371.41	314.863
1371.57	309.978
1371.74	309.75
1371.91	311.824
1372.07	308.946
1372.23	310.605
1372.4	311.779
1372.56	309.854
1372.73	308.765
1372.89	312.008
1373.06	308.36
1373.22	310.554
1373.39	314.065
1373.55	307.837
1373.72	315.189
1373.88	311.026
1374.05	310.565
1374.21	310.592
1374.38	312.168
1374.54	309.088
1374.71	310.033
1374.87	307.604
1375.04	321.695
1375.2	312.424
1375.37	310.529
1375.53	311.997
1375.69	317.939
1375.86	311.895
1376.02	312.443
1376.19	308.629
1376.35	314.881
1376.52	310.232
1376.68	315.632
1376.85	314.418
1377.01	313.579
1377.18	310.269
1377.34	324.576
1377.51	311.698
1377.67	310.859
1377.84	312.688
1378	315.294
1378.17	312.184
1378.33	311.969
1378.49	310.491
1378.66	308.174
1378.82	313.466
1378.99	309.682
1379.15	312.947
1379.32	308.137
1379.48	317.551
1379.65	307.814
1379.81	309.585
1379.97	310.004
1380.14	312.293
1380.3	314.148
1380.47	312.612
1380.63	307.634
1380.8	318.558
1380.96	309.727
1381.13	313.874
1381.29	309.011
1381.46	310.92
1381.62	307.472
1381.78	315.395
1381.95	312.438
1382.11	311.69
1382.28	315.027
1382.44	309.689
1382.61	308.968
1382.77	310.196
1382.94	309.926
1383.1	311.457
1383.26	312.54
1383.43	308.901
1383.59	314.052
1383.76	310.699
1383.92	315.062
1384.09	315.867
1384.25	313.879
1384.42	316.66
1384.58	311.424
1384.74	316.991
1384.91	311.105
1385.07	313.99
1385.24	314.611
1385.4	314.703
1385.56	312.454
1385.73	322.252
1385.89	323.87
1386.06	316.694
1386.22	325.194
1386.39	327.78
1386.55	330.117
1386.72	338.252
1386.88	332.87
1387.04	357.718
1387.21	384.467
1387.37	420.055
1387.54	428.24
1387.7	459.125
1387.86	400.02
1388.03	362.01
1388.19	328.767
1388.36	330.13
1388.52	323.373
1388.68	321.471
1388.85	313.095
1389.01	323.235
1389.18	317.116
1389.34	311.134
1389.51	317.482
1389.67	313.534
1389.83	312.744
1390	314.121
1390.16	311.82
1390.33	309.401
1390.49	322.014
1390.65	315.902
1390.82	310.654
1390.98	309.888
1391.15	313.335
1391.31	305.218
1391.47	312.796
1391.64	313.682
1391.8	307.346
1391.97	313.695
1392.13	315.953
1392.29	315.911
1392.46	309.381
1392.62	311.393
1392.79	312.701
1392.95	316.854
1393.11	306.078
1393.28	315.27
1393.44	311.491
1393.61	310.71
1393.77	309.066
1393.93	312.098
1394.1	307.971
1394.26	311.525
1394.43	312.045
1394.59	309.02
1394.75	309.603
1394.92	306.698
1395.08	307.955
1395.24	312.605
1395.41	311.484
1395.57	314.488
1395.74	310.51
1395.9	313.625
1396.06	309.822
1396.23	315.33
1396.39	309.723
1396.56	310.11
1396.72	310.314
1396.88	309.396
1397.05	311.666
1397.21	307.912
1397.38	308.984
1397.54	314.104
1397.7	310.647
1397.87	311.415
1398.03	311.26
1398.19	309.637
1398.36	309.445
1398.52	311.49
1398.69	314.867
1398.85	312.649
1399.01	308.38
1399.18	311.59
1399.34	312.524
1399.5	305.603
1399.67	315.293
1399.83	309.959
1399.99	309.846
1400.16	313.945
1400.32	309.961
1400.49	309.015
1400.65	310.452
1400.81	308.632
1400.98	312.457
1401.14	308.272
1401.3	309.228
1401.47	310.251
1401.63	310.313
1401.8	309.584
1401.96	308.645
1402.12	311.794
1402.28	315.848
1402.45	309.676
1402.61	310.741
1402.78	305.932
1402.94	311.003
1403.1	308.469
1403.27	313.097
1403.43	313.046
1403.59	310.572
1403.76	313.677
1403.92	308.358
1404.08	312.367
1404.25	313.465
1404.41	311.285
1404.57	313.473
1404.74	313.535
1404.9	312.196
1405.07	308.916
1405.23	315.335
1405.39	308.16
1405.56	306.078
1405.72	308.398
1405.88	309.537
1406.05	310.273
1406.21	313.371
1406.37	314.833
1406.54	312.931
1406.7	308.418
1406.86	308.346
1407.03	310.394
1407.19	314.394
1407.35	311.043
1407.52	315.237
1407.68	316.832
1407.84	311.654
1408.01	312.577
1408.17	313.702
1408.33	315.619
1408.5	317.53
1408.66	311.419
1408.82	313.891
1408.99	312.29
1409.15	314.285
1409.31	313.875
1409.48	317.021
1409.64	311.2
1409.8	325.083
1409.97	312.312
1410.13	307.456
1410.29	310.418
1410.45	314.748
1410.62	310.733
1410.78	314.127
1410.94	310.964
1411.11	308.829
1411.27	307.753
1411.43	313.877
1411.6	313.226
1411.76	312.439
1411.92	309.763
1412.09	312.793
1412.25	308.576
1412.41	307.489
1412.58	313.913
1412.74	312.006
1412.9	313.44
1413.07	309.825
1413.23	310.464
1413.39	307.654
1413.55	311.027
1413.72	309.181
1413.88	311.366
1414.04	315.734
1414.21	311.358
1414.37	308.807
1414.53	312.992
1414.7	312.026
1414.86	307.918
1415.02	316.697
1415.19	306.984
1415.35	310.096
1415.51	311.42
1415.67	315.506
1415.84	312.076
1416	308.962
1416.16	308.497
1416.33	312.051
1416.49	308.37
1416.65	313.696
1416.82	314.392
1416.98	314.131
1417.14	308.482
1417.3	315.049
1417.47	310.521
1417.63	310.79
1417.79	311.31
1417.96	312.071
1418.12	310.461
1418.28	313.535
1418.44	307.077
1418.61	308.247
1418.77	310.824
1418.93	310.378
1419.1	312.767
1419.26	311.788
1419.42	314.176
1419.58	309.772
1419.75	308.906
1419.91	309.825
1420.07	310.853
1420.24	313.937
1420.4	314.683
1420.56	309.429
1420.72	311.964
1420.89	315.696
1421.05	313.343
1421.21	310.223
1421.37	310.014
1421.54	312.179
1421.7	312.855
1421.86	311.974
1422.03	311.717
1422.19	313.886
1422.35	310.935
1422.51	316.593
1422.68	312.857
1422.84	308.941
1423	310.387
1423.16	316.271
1423.33	308.705
1423.49	316.34
1423.65	312.257
1423.82	311.162
1423.98	312.879
1424.14	315.447
1424.3	313.065
1424.47	310.746
1424.63	315.161
1424.79	310.315
1424.95	313.044
1425.12	310.079
1425.28	314.031
1425.44	311.923
1425.6	311.583
1425.77	312.912
1425.93	317.17
1426.09	314.339
1426.25	311.149
1426.42	309.917
1426.58	317.323
1426.74	311.031
1426.9	312.221
1427.07	313.393
1427.23	314.6
1427.39	315.918
1427.55	310.578
1427.72	313.69
1427.88	311.635
1428.04	311.367
1428.2	314.214
1428.37	313.624
1428.53	314.71
1428.69	318.994
1428.85	314.007
1429.02	319.41
1429.18	312.58
1429.34	310.956
1429.5	311.198
1429.67	313.868
1429.83	316.555
1429.99	317.536
1430.15	310.5
1430.32	313.465
1430.48	313.195
1430.64	310.194
1430.8	317.693
1430.97	311.627
1431.13	310.869
1431.29	314.992
1431.45	309.7
1431.61	310.605
1431.78	312.634
1431.94	314.108
1432.1	315.053
1432.26	311.867
1432.42	311.645
1432.59	312.036
1432.75	312.964
1432.91	313.302
1433.07	311.752
1433.24	314.896
1433.4	306.688
1433.56	317.197
1433.72	314.234
1433.89	312.833
1434.05	311.49
1434.21	310.636
1434.37	314.244
1434.53	314.108
1434.7	313.062
1434.86	315.925
1435.02	316.874
1435.18	312.979
1435.34	313.111
1435.51	313.624
1435.67	315.129
1435.83	315.639
1435.99	312.381
1436.16	313.104
1436.32	314.045
1436.48	314.767
1436.64	313.881
1436.8	311.747
1436.97	317.769
1437.13	311.419
1437.29	319.14
1437.45	318.509
1437.62	311.106
1437.78	311.641
1437.94	313.081
1438.1	314.729
1438.26	313.44
1438.43	314.578
1438.59	314.211
1438.75	313.179
1438.91	314.325
1439.07	314.881
1439.23	315.801
1439.4	320.231
1439.56	309.526
1439.72	314.883
1439.88	316.728
1440.04	313.386
1440.21	314.521
1440.37	312.836
1440.53	325.113
1440.69	312.032
1440.85	314.474
1441.02	310.224
1441.18	311.51
1441.34	312.646
1441.5	316.158
1441.66	315.564
1441.83	314.147
1441.99	313.795
1442.15	312.183
1442.31	311.126
1442.47	311.395
1442.64	315.487
1442.8	314.586
1442.96	313.412
1443.12	314.617
1443.28	311.39
1443.44	312.113
1443.61	312.931
1443.77	316.752
1443.93	312.395
1444.09	314.499
1444.25	311.507
1444.42	318.147
1444.58	314.037
1444.74	312.375
1444.9	314.846
1445.06	315.945
1445.22	321.179
1445.39	312.374
1445.55	316.043
1445.71	313.031
1445.87	317.386
1446.03	314.51
1446.19	317.92
1446.36	315.266
1446.52	321.365
1446.68	314.098
1446.84	312.108
1447	318.431
1447.16	313.544
1447.33	315.093
1447.49	315.526
1447.65	312.477
1447.81	313.465
1447.97	316.264
1448.13	314.862
1448.29	316.141
1448.46	316.188
1448.62	312.462
1448.78	315.709
1448.94	315.662
1449.1	313.538
1449.26	319.105
1449.43	318.333
1449.59	311.727
1449.75	315.047
1449.91	323.482
1450.07	322.886
1450.23	315.01
1450.39	314.602
1450.56	312.669
1450.72	317.649
1450.88	313.859
1451.04	316.182
1451.2	316.274
1451.36	317.291
1451.53	316.802
1451.69	318.429
1451.85	313.898
1452.01	318.366
1452.17	314.506
1452.33	318.078
1452.49	314.986
1452.66	314.45
1452.82	317.98
1452.98	314.389
1453.14	319.506
1453.3	313.726
1453.46	317.202
1453.62	314.692
1453.78	315.046
1453.95	315.647
1454.11	314.86
1454.27	315.048
1454.43	314.515
1454.59	317.944
1454.75	314.833
1454.91	313.475
1455.07	313.386
1455.24	317.284
1455.4	316.923
1455.56	316.53
1455.72	316.523
1455.88	315.093
1456.04	317.275
1456.2	316.447
1456.36	315.797
1456.53	315.301
1456.69	319.845
1456.85	316.582
1457.01	315.605
1457.17	319.849
1457.33	316.658
1457.49	315.988
1457.66	315.065
1457.82	313.308
1457.98	316.319
1458.14	317.247
1458.3	315.205
1458.46	315.184
1458.62	313.792
1458.78	313.866
1458.94	314.775
1459.11	313.981
1459.27	315.533
1459.43	314.058
1459.59	313.333
1459.75	315.027
1459.91	314.729
1460.07	316.218
1460.23	319.938
1460.39	313.079
1460.55	315.365
1460.72	315.381
1460.88	315.369
1461.04	316.96
1461.2	317.171
1461.36	314.306
1461.52	314.873
1461.68	317.132
1461.84	314.813
1462	313.313
1462.17	315.407
1462.33	314.074
1462.49	315.283
1462.65	317.099
1462.81	311.768
1462.97	320.005
1463.13	317.831
1463.29	315.518
1463.45	313.909
1463.61	315.164
1463.77	315.652
1463.94	315.797
1464.1	313.845
1464.26	315.393
1464.42	314.572
1464.58	316.454
1464.74	315.151
1464.79	314.069
1464.95	317.931
1465.12	313.513
1465.28	315.064
1465.44	317.671
1465.61	314.509
1465.77	314.281
1465.93	321.8
1466.1	316.439
1466.26	314.122
1466.42	319.345
1466.59	316.904
1466.75	314.371
1466.92	313.936
1467.08	315.259
1467.24	314.678
1467.41	314.867
1467.57	316.408
1467.73	319.65
1467.9	314.39
1468.06	318.262
1468.22	321.024
1468.39	314.894
1468.55	317.85
1468.71	317.695
1468.88	322.546
1469.04	322.974
1469.2	319.469
1469.37	316.46
1469.53	316.214
1469.69	316.571
1469.86	318.005
1470.02	313.537
1470.18	325.117
1470.35	317.737
1470.51	312.971
1470.67	314.994
1470.84	314.593
1471	312.382
1471.16	313.863
1471.33	314.611
1471.49	316
1471.65	317.83
1471.81	315.978
1471.98	314.257
1472.14	316.506
1472.3	313.884
1472.47	313.137
1472.63	317.951
1472.79	314.88
1472.96	316.673
1473.12	316.621
1473.28	312.505
1473.45	315.631
1473.61	316.87
1473.77	311.787
1473.94	316.666
1474.1	314.834
1474.26	314.369
1474.43	317.481
1474.59	311.529
1474.75	312.655
1474.92	316.034
1475.08	317.65
1475.24	312.327
1475.4	317.19
1475.57	314.763
1475.73	318.712
1475.89	313.538
1476.06	314.779
1476.22	317.325
1476.38	317.667
1476.55	315.346
1476.71	312.76
1476.87	316.934
1477.04	318.092
1477.2	329.161
1477.36	314.392
1477.52	315.658
1477.69	314.537
1477.85	319.075
1478.01	314.674
1478.18	315.817
1478.34	318.924
1478.5	312.458
1478.66	314.752
1478.83	319.219
1478.99	316.206
1479.15	313.796
1479.32	316.698
1479.48	317.98
1479.64	314.126
1479.8	315.582
1479.97	317.943
1480.13	314.494
1480.29	315.789
1480.46	315.654
1480.62	316.259
1480.78	314.235
1480.95	317.184
1481.11	316.219
1481.27	315.17
1481.43	314.807
1481.6	314.64
1481.76	318.005
1481.92	316.977
1482.08	319.84
1482.25	318.584
1482.41	316.346
1482.57	312.442
1482.74	312.555
1482.9	313.273
1483.06	318.403
1483.22	316.144
1483.39	316.627
1483.55	318.1
1483.71	313.537
1483.88	315.206
1484.04	318.284
1484.2	312.463
1484.36	314.922
1484.53	314.231
1484.69	311.774
1484.85	320.669
1485.01	313.581
1485.18	315.197
1485.34	318.968
1485.5	314.311
1485.66	319.074
1485.83	318.318
1485.99	318.259
1486.15	314.639
1486.32	316.831
1486.48	313.566
1486.64	314.162
1486.8	317.219
1486.96	317.033
1487.13	312.91
1487.29	318.299
1487.45	315.413
1487.62	320.193
1487.78	312.698
1487.94	314.875
1488.1	314.577
1488.27	320.905
1488.43	319.769
1488.59	315.545
1488.75	317.073
1488.92	317.567
1489.08	317.308
1489.24	317.849
1489.4	312.155
1489.57	318.626
1489.73	313.707
1489.89	312.905
1490.05	313.283
1490.22	315.673
1490.38	311.227
1490.54	321.628
1490.7	316.508
1490.87	315.897
1491.03	316.676
1491.19	314.216
1491.35	314.319
1491.52	314.487
1491.68	316.846
1491.84	313.659
1492	317.681
1492.16	318.023
1492.33	319.333
1492.49	313.784
1492.65	316.626
1492.81	313.813
1492.98	319.549
1493.14	314.335
1493.3	312.391
1493.46	316.893
1493.63	321.203
1493.79	317.782
1493.95	315.894
1494.11	315.321
1494.28	321.027
1494.44	317.184
1494.6	316.852
1494.76	315.412
1494.92	321.722
1495.09	318.582
1495.25	319.507
1495.41	313.692
1495.57	315.211
1495.73	317.126
1495.9	319.038
1496.06	316.103
1496.22	316.594
1496.38	319.753
1496.55	312.583
1496.71	314.691
1496.87	314.096
1497.03	315.51
1497.2	318.924
1497.36	320.352
1497.52	319.128
1497.68	315.279
1497.84	316.476
1498.01	318.768
1498.17	315.653
1498.33	317.72
1498.49	314.641
1498.65	316.687
1498.82	315.845
1498.98	319.245
1499.14	318.225
1499.3	316.012
1499.46	316.581
1499.63	316.355
1499.79	318.192
1499.95	322.219
1500.11	314.825
1500.28	319.226
1500.44	317.237
1500.6	316.111
1500.76	317.187
1500.92	313.666
1501.09	316.687
1501.25	317.383
1501.41	314.228
1501.57	316.956
1501.73	317.147
1501.89	319.646
1502.06	317.129
1502.22	319.553
1502.38	315.465
1502.54	313.91
1502.7	311.75
1502.87	318.719
1503.03	319.712
1503.19	319.212
1503.35	317.434
1503.51	320.5
1503.68	316.778
1503.84	320.036
1504	314.536
1504.16	313.902
1504.32	315.531
1504.49	318.436
1504.65	314.75
1504.81	324.926
1504.97	318.269
1505.13	321.167
1505.29	317.967
1505.46	315.9
1505.62	319.87
1505.78	317.891
1505.94	316.541
1506.1	320.036
1506.26	320.986
1506.43	320.131
1506.59	316.674
1506.75	316.143
1506.91	319.374
1507.07	321.902
1507.24	319.563
1507.4	315.341
1507.56	319.645
1507.72	318.044
1507.88	316.597
1508.04	315.748
1508.21	316.562
1508.37	320.753
1508.53	320.518
1508.69	320.49
1508.85	316.565
1509.02	317.546
1509.18	315.471
1509.34	313.623
1509.5	317.592
1509.66	316.744
1509.82	321.499
1509.98	318.604
1510.15	317.784
1510.31	318.739
1510.47	323.189
1510.63	316.864
1510.79	319.088
1510.95	315.763
1511.12	319.273
1511.28	317.106
1511.44	320.983
1511.6	322.361
1511.76	318.351
1511.92	322.93
1512.08	318.168
1512.25	319.782
1512.41	318.931
1512.57	321.816
1512.73	317.313
1512.89	318.251
1513.05	317.935
1513.22	319.586
1513.38	319.089
1513.54	317.319
1513.7	321.718
1513.86	316.264
1514.02	322.832
1514.18	317.59
1514.35	318.865
1514.51	322.278
1514.67	325.567
1514.83	319.187
1514.99	318.096
1515.15	317.216
1515.31	317.445
1515.48	320.9
1515.64	319.71
1515.8	321.221
1515.96	315.811
1516.12	316.055
1516.28	323.972
1516.44	316.592
1516.6	323.52
1516.77	317.757
1516.93	316.586
1517.09	316.834
1517.25	320.273
1517.41	322.125
1517.57	320.155
1517.73	319.785
1517.9	316.051
1518.06	319.305
1518.22	316.294
1518.38	318.432
1518.54	317.079
1518.7	320.667
1518.86	323.021
1519.02	314.918
1519.19	319.426
1519.35	314.189
1519.51	320.632
1519.67	322.953
1519.83	318.926
1519.99	321.117
1520.15	317.937
1520.32	319.47
1520.48	323.653
1520.64	319.686
1520.8	321.944
1520.96	319.394
1521.12	319.979
1521.28	318.467
1521.44	318.737
1521.6	320.714
1521.76	321.109
1521.93	322.123
1522.09	322.796
1522.25	322.168
1522.41	321.541
1522.57	323.467
1522.73	318.239
1522.89	320.196
1523.05	321.657
1523.21	320.293
1523.38	321.694
1523.54	324.101
1523.7	317.244
1523.86	321.956
1524.02	321.058
1524.18	320.747
1524.34	318.823
1524.5	322.003
1524.66	319.834
1524.82	321.301
1524.99	318.689
1525.15	324.229
1525.31	320.375
1525.47	321.093
1525.63	323.189
1525.79	322.522
1525.95	322.3
1526.11	319.636
1526.27	319.904
1526.43	321.298
1526.6	320.28
1526.76	319.454
1526.92	322.711
1527.08	320.455
1527.24	319.16
1527.4	323.089
1527.56	324.096
1527.72	321.048
1527.88	326.96
1528.04	321.684
1528.2	320.725
1528.37	321.751
1528.53	318.654
1528.69	320.994
1528.85	322.407
1529.01	329.928
1529.17	324.567
1529.33	326.026
1529.49	323.543
1529.65	323.271
1529.81	323.387
1529.97	326.245
1530.13	321.23
1530.3	318.115
1530.46	319.732
1530.62	323.958
1530.78	320.42
1530.94	321.531
1531.1	322.276
1531.26	322.392
1531.42	322.056
1531.58	319.757
1531.74	321.835
1531.9	320.692
1532.06	323.862
1532.22	317.373
1532.38	319.566
1532.55	324.455
1532.71	328.28
1532.87	319.267
1533.03	324.761
1533.19	319.049
1533.35	323.841
1533.51	317.409
1533.67	324.951
1533.83	321.865
1533.99	322.317
1534.15	325.261
1534.31	320.812
1534.47	325.743
1534.63	321.172
1534.79	326.609
1534.95	321.108
1535.12	328.891
1535.28	322.909
1535.44	321.801
1535.6	322.61
1535.76	320.65
1535.92	325.582
1536.08	321.341
1536.24	320.111
1536.4	320.748
1536.56	321.112
1536.72	321.121
1536.88	322.815
1537.04	320.85
1537.2	321.473
1537.36	324.369
1537.52	324.874
1537.68	328.555
1537.84	324.893
1538	322.29
1538.16	322.761
1538.32	320.606
1538.49	322.929
1538.65	322.126
1538.81	323.667
1538.97	322.6
1539.13	321.776
1539.29	322.851
1539.45	321.726
1539.61	320.157
1539.77	321.328
1539.93	322.303
1540.09	325.17
1540.25	320.661
1540.41	325.125
1540.57	326.405
1540.73	326.998
1540.89	322.506
1541.05	326.295
1541.21	321.36
1541.37	320.849
1541.53	322.83
1541.69	324.55
1541.85	322.43
1542.01	327.603
1542.17	322.067
1542.33	324.837
1542.49	323.757
1542.65	322.365
1542.81	325.916
1542.97	325.418
1543.13	326.451
1543.29	329.245
1543.46	322.36
1543.62	325.778
1543.78	327.256
1543.94	322.871
1544.1	326.076
1544.26	324.778
1544.42	324.399
1544.58	323.008
1544.74	329.484
1544.9	325.663
1545.06	328.05
1545.22	324.716
1545.38	322.7
1545.54	324.778
1545.7	321.229
1545.86	330.745
1546.02	326.535
1546.18	327.325
1546.34	328.677
1546.5	325.072
1546.66	322.58
1546.82	323.348
1546.98	324.352
1547.14	325.146
1547.3	322.284
1547.46	328.407
1547.62	327.81
1547.78	325.265
1547.94	328.2
1548.1	326.036
1548.26	323.59
1548.42	321.683
1548.58	324.348
1548.74	328.986
1548.9	331.267
1549.06	323.518
1549.22	326.936
1549.38	326.412
1549.54	320.021
1549.7	325.863
1549.86	325.004
1550.02	326.149
1550.18	324.003
1550.34	326.337
1550.5	324.501
1550.66	328.852
1550.82	326.796
1550.98	328.231
1551.14	327.021
1551.3	327.369
1551.46	324.838
1551.62	323.954
1551.78	324.573
1551.94	323.97
1552.1	325.835
1552.26	320.931
1552.42	326.896
1552.58	327.885
1552.74	330.256
1552.9	323.462
1553.06	324.743
1553.22	323.661
1553.38	327.665
1553.54	324.832
1553.69	323.075
1553.85	324.832
1554.01	326.824
1554.17	329.304
1554.33	328.186
1554.49	324.176
1554.65	327.69
1554.81	325.496
1554.97	327.912
1555.13	330.14
1555.29	324.522
1555.45	326.829
1555.61	322.825
1555.77	326.4
1555.93	323.144
1556.09	326.026
1556.25	325.666
1556.41	330.718
1556.57	325.674
1556.73	320.67
1556.89	325.559
1557.05	327.915
1557.21	326.682
1557.37	328.404
1557.53	323.32
1557.69	323.45
1557.85	323.656
1558.01	327.102
1558.17	328.462
1558.33	331.594
1558.48	322.689
1558.64	325.093
1558.8	326.109
1558.96	323.975
1559.12	324.139
1559.28	324.484
1559.44	327.238
1559.6	323.602
1559.76	323.857
1559.92	325.923
1560.08	325.139
1560.24	325.018
1560.4	328.495
1560.56	325.387
1560.72	325.048
1560.88	323.63
1561.04	323.272
1561.2	330.358
1561.36	322.839
1561.52	329.464
1561.68	328.335
1561.84	326.659
1561.99	327.578
1562.15	323.715
1562.31	322.309
1562.47	327.401
1562.63	328.394
1562.79	325.052
1562.95	328.268
1563.11	323.774
1563.27	327.002
1563.43	330.796
1563.59	324.845
1563.75	326.454
1563.91	327.114
1564.07	322.286
1564.23	330.268
1564.38	322.39
1564.54	326.065
1564.7	327.035
1564.86	330.639
1565.02	325.161
1565.18	323.949
1565.34	326.619
1565.5	325.209
1565.66	322.422
1565.82	330.374
1565.98	327.475
1566.14	324.368
1566.3	324.343
1566.46	325.484
1566.61	325.048
1566.77	324.401
1566.93	327.494
1567.09	327.425
1567.25	325.128
1567.41	328.361
1567.57	325.896
1567.73	325.849
1567.89	325.687
1568.05	326.976
1568.21	322.454
1568.37	328.508
1568.53	323.98
1568.68	327.044
1568.84	324.973
1569	325.127
1569.16	329.169
1569.32	327.429
1569.48	326.695
1569.64	322.849
1569.8	324.164
1569.96	322.679
1570.12	332.371
1570.28	327.735
1570.43	325.068
1570.59	328.765
1570.75	324.556
1570.91	323.873
1571.07	325.69
1571.23	321.769
1571.39	327.792
1571.55	328.296
1571.71	325.339
1571.86	324.291
1572.02	325.906
1572.18	327.284
1572.34	328.906
1572.5	322.686
1572.66	326.996
1572.82	327.353
1572.98	325.538
1573.14	325.369
1573.3	328.228
1573.46	325.091
1573.61	323.951
1573.77	324.939
1573.93	329.24
1574.09	326.962
1574.25	327.72
1574.41	330.452
1574.57	328.947
1574.73	323.923
1574.89	327.928
1575.04	327.729
1575.2	320.679
1575.36	323.323
1575.52	322.04
1575.68	326.306
1575.84	327.458
1576	326.466
1576.16	327.041
1576.31	324.612
1576.47	327.856
1576.63	326.632
1576.79	323.187
1576.95	322.878
1577.11	326.806
1577.27	325.08
1577.43	325.296
1577.58	322.87
1577.74	332.759
1577.9	325.722
1578.06	325.706
1578.22	327.151
1578.38	325.471
1578.54	326.35
1578.7	327.456
1578.86	326.568
1579.01	324.542
1579.17	326.708
1579.33	326.104
1579.49	332.781
1579.65	325.692
1579.81	328.288
1579.97	325.514
1580.13	328.058
1580.28	328.805
1580.44	328.904
1580.6	326.939
1580.76	326.753
1580.92	323.574
1581.08	328.973
1581.24	326.193
1581.39	327.852
1581.55	322.815
1581.71	324.725
1581.87	326.966
1582.03	323.559
1582.19	326.19
1582.34	323.234
1582.5	324.337
1582.66	322.896
1582.82	329.838
1582.98	328.431
1583.14	324.036
1583.3	334.516
1583.46	326.341
1583.61	328.103
1583.77	326.394
1583.93	326.268
1584.09	323.967
1584.25	322.041
1584.41	324.265
1584.57	324.463
1584.72	328.902
1584.88	325.372
1585.04	327.01
1585.2	324.782
1585.36	326.086
1585.52	325.161
1585.67	323.935
1585.83	327.294
1585.99	325.378
1586.15	323.926
1586.31	327.135
1586.47	323.999
1586.62	328.497
1586.78	323.038
1586.94	327.458
1587.1	326.139
1587.26	327.666
1587.42	326.667
1587.57	327.452
1587.73	325.143
1587.89	327.758
1588.05	327.923
1588.21	325.292
1588.37	327.579
1588.52	329.683
1588.68	326.132
1588.84	324.235
1589	328.216
1589.16	328.254
1589.32	328.537
1589.47	325.762
1589.63	327.778
1589.79	323.479
1589.95	324.451
1590.11	341.101
1590.26	324.771
1590.42	324.327
1590.58	327.965
1590.74	330.797
1590.9	326.299
1591.06	327.495
1591.21	325.402
1591.37	326.097
1591.53	324.547
1591.69	326.682
1591.85	324.352
1592.01	324.477
1592.16	327.485
1592.32	323.009
1592.48	325.094
1592.64	323.773
1592.8	324.122
1592.95	324.657
1593.11	324.115
1593.27	325.234
1593.43	326.908
1593.59	328.321
1593.74	326.987
1593.9	333.731
1594.06	326.313
1594.22	325.317
1594.38	325.206
1594.53	325.685
1594.69	321.384
1594.85	327.86
1595.01	325.811
1595.17	328.562
1595.32	325.802
1595.48	324.612
1595.64	328.186
1595.8	322.839
1595.96	325.831
1596.12	329.014
1596.27	329.692
1596.43	327.688
1596.59	328.867
1596.75	324.336
1596.91	327.313
1597.06	327.587
1597.22	323.718
1597.38	325.519
1597.54	325.71
1597.69	330.609
1597.85	325.085
1598.01	324.267
1598.17	328.322
1598.33	327.195
1598.48	331.201
1598.64	326.333
1598.8	323.86
1598.96	328.956
1599.12	327.972
1599.27	323.02
1599.43	325.554
1599.59	324.911
1599.75	326.746
1599.9	327.006
1600.06	331.515
1600.22	326.122
1600.38	320.807
1600.54	328.282
1600.69	326.009
1600.85	328.775
1601.01	324.44
1601.17	327.51
1601.32	321.842
1601.48	324.908
1601.64	329.577
1601.8	327.034
1601.95	326.098
1602.11	326.266
1602.27	331.568
1602.43	325.608
1602.59	325.592
1602.74	326.152
1602.9	327.937
1603.06	330.679
1603.22	327.409
1603.38	326.431
1603.53	326.998
1603.69	333.547
1603.85	326.607
1604.01	323.304
1604.16	328.102
1604.32	323.306
1604.48	329.659
1604.64	325.391
1604.79	328.256
1604.95	324.496
1605.11	328.906
1605.27	327.853
1605.42	324.674
1605.58	332.609
1605.74	324.69
1605.9	325.992
1606.05	327.425
1606.21	325.211
1606.37	327.218
1606.53	324.736
1606.68	325.374
1606.84	325.511
1607	330.069
1607.16	325.758
1607.31	325.426
1607.47	327.64
1607.63	326.881
1607.79	324.23
1607.94	324.255
1608.1	329.417
1608.26	327.032
1608.42	324.61
1608.57	325.823
1608.73	327.024
1608.89	326.907
1609.05	327.266
1609.2	326.712
1609.36	326.885
1609.52	332.139
1609.68	328.123
1609.83	327.241
1609.99	327.059
1610.15	325.937
1610.31	327.476
1610.46	326.316
1610.62	327.765
1610.78	324.561
1610.94	327.855
1611.09	326.91
1611.25	330.055
1611.41	329.961
1611.56	327.676
1611.72	328.555
1611.88	326.605
1612.04	329.176
1612.19	328.62
1612.35	326.273
1612.51	325.92
1612.67	328.244
1612.82	332.15
1612.98	327.694
1613.14	328.461
1613.29	327.511
1613.45	327.089
1613.61	327.957
1613.77	325.751
1613.92	326.911
1614.08	329.496
1614.24	331.919
1614.4	327.478
1614.55	330.931
1614.71	329.485
1614.87	328.409
1615.02	330.948
1615.18	325.734
1615.34	328.173
1615.49	329.399
1615.65	327.111
1615.81	326.634
1615.97	331.977
1616.12	326.407
1616.28	328.178
1616.44	331.292
1616.6	328.177
1616.75	328.712
1616.91	329.884
1617.07	330.399
1617.22	327.001
1617.38	331.245
1617.54	327.984
1617.69	332.426
1617.85	329.154
1618.01	329.425
1618.17	329.672
1618.32	330.271
1618.48	340.42
1618.64	330.447
1618.79	329.142
1618.95	328.094
1619.11	330.776
1619.27	327.522
1619.42	332.251
1619.58	331.363
1619.74	332.034
1619.89	329.841
1620.05	327.442
1620.21	330.628
1620.36	330.279
1620.52	333.237
1620.68	339.815
1620.83	330.301
1620.99	330.662
1621.15	331.006
1621.3	332.67
1621.46	335.858
1621.62	328.625
1621.78	329.278
1621.93	330.511
1622.09	328.204
1622.25	335.551
1622.4	328.462
1622.56	330.499
1622.72	333.522
1622.87	333.31
1623.03	337.76
1623.19	333.652
1623.34	327.825
1623.5	329.085
1623.66	330.237
1623.81	326.886
1623.97	331.427
1624.13	335.382
1624.28	330.313
1624.44	334.169
1624.6	332.611
1624.76	329.279
1624.91	332.54
1625.07	329.063
1625.23	330.988
1625.38	332.257
1625.54	333.348
1625.7	332.189
1625.85	333.268
1626.01	333.041
1626.17	331.643
1626.32	330.629
1626.48	332.47
1626.64	330.774
1626.79	326.698
1626.95	328.996
1627.11	327.359
1627.26	328.297
1627.42	332.737
1627.58	331.873
1627.73	332.675
1627.89	332.896
1628.05	334.106
1628.2	332.518
1628.36	330.374
1628.52	332.294
1628.67	334.417
1628.83	336.907
1628.99	336.324
1629.14	329.216
1629.3	328.237
1629.46	333.939
1629.61	334.245
1629.77	329.89
1629.92	330.858
1630.08	330.385
1630.24	330.468
1630.39	334.085
1630.55	334.4
1630.71	334.322
1630.86	334.07
1631.02	331.501
1631.18	329.785
1631.33	335.274
1631.49	331.056
1631.65	331.8
1631.8	331.964
1631.96	333.593
1632.12	331.478
1632.27	332.001
1632.43	332.777
1632.58	331.204
1632.74	335.25
1632.9	335.18
1633.05	337.03
1633.21	330.765
1633.37	336.54
1633.52	331.092
1633.68	335.094
1633.84	332.422
1633.99	333.838
1634.15	331.798
1634.31	336.355
1634.46	332.887
1634.62	332.471
1634.77	331.16
1634.93	330.525
1635.09	333.193
1635.24	328.702
1635.4	334.202
1635.56	331.656
1635.71	332.875
1635.87	336.105
1636.02	335.406
1636.18	333.282
1636.34	333.163
1636.49	331.465
1636.65	334.068
1636.81	340.094
1636.96	336.375
1637.12	331.342
1637.27	330.752
1637.43	335.785
1637.59	337.107
1637.74	335.313
1637.9	334.278
1638.06	332.041
1638.21	331.203
1638.37	332.812
1638.52	336.248
1638.68	337.711
1638.84	331.161
1638.99	332.335
1639.15	335.431
1639.31	334.501
1639.46	338.057
1639.62	333.987
1639.77	336.456
1639.93	335.864
1640.09	333.252
1640.24	336.938
1640.4	334.817
1640.55	333.523
1640.71	333.342
1640.87	332.303
1641.02	334.711
1641.18	335.089
1641.33	331.509
1641.49	332.807
1641.65	332.031
1641.8	336.401
1641.96	335.519
1642.11	331.294
1642.27	339.394
1642.43	335.667
1642.58	335.717
1642.74	335.311
1642.89	335.963
1643.05	335.211
1643.21	333.229
1643.36	334.839
1643.52	335.502
1643.67	334.076
1643.83	334.901
1643.99	336.05
1644.14	340.805
1644.3	333.042
1644.45	337.801
1644.61	335.466
1644.77	334.369
1644.92	334.357
1645.08	330.834
1645.23	337.801
1645.39	333.561
1645.55	332.792
1645.7	336.314
1645.86	337.368
1646.01	334.046
1646.17	334.974
1646.32	340.573
1646.48	336.006
1646.64	339.293
1646.79	337.197
1646.95	330.669
1647.1	337.281
1647.26	338.134
1647.42	339.273
1647.57	331.298
1647.73	334.659
1647.88	332.778
1648.04	335.178
1648.19	336.112
1648.35	338.253
1648.51	335.024
1648.66	340.338
1648.82	335.455
1648.97	335.747
1649.13	337.234
1649.28	337.201
1649.44	338.641
1649.59	335.4
1649.75	334.994
1649.91	338.332
1650.06	339.504
1650.22	337.242
1650.37	338.769
1650.53	342.69
1650.69	339.293
1650.84	334.428
1651	337.282
1651.15	334.532
1651.31	340.66
1651.46	336.486
1651.62	358.434
1651.77	336.151
1651.93	330.27
1652.08	336.168
1652.24	334.361
1652.4	334.502
1652.55	337.059
1652.71	337.58
1652.86	336.794
1653.02	337.635
1653.17	335.101
1653.33	334.299
1653.49	331.305
1653.64	332.456
1653.8	336.627
1653.95	334.73
1654.11	339.564
1654.26	333.269
1654.42	335.229
1654.57	337.512
1654.73	336.846
1654.88	338.279
1655.04	335.745
1655.2	337.464
1655.35	340.545
1655.51	338.85
1655.66	337.636
1655.82	336.159
1655.97	333.027
1656.13	337.505
1656.28	330.391
1656.44	335.107
1656.59	337.374
1656.75	337.136
1656.91	339.542
1657.06	333.833
1657.22	344.17
1657.37	338.912
1657.53	337.279
1657.68	335.845
1657.84	339.226
1657.99	338.409
1658.15	338.283
1658.3	337.25
1658.46	339.917
1658.61	334.034
1658.77	336.797
1658.92	338.178
1659.08	337.611
1659.24	334.346
1659.39	338.8
1659.55	340.105
1659.7	339.849
1659.86	339.761
1660.01	337.319
1660.17	335.422
1660.32	338.46
1660.48	335.61
1660.63	338.392
1660.79	336.546
1660.94	338.497
1661.1	338.905
1661.25	338.996
1661.41	335.067
1661.56	339.829
1661.72	334.578
1661.87	340.205
1662.03	336.795
1662.18	336.339
1662.34	338.234
1662.49	336.385
1662.65	342.255
1662.8	334.259
1662.96	341.93
1663.12	336.393
1663.27	338.988
1663.43	339.075
1663.58	336.398
1663.74	336.16
1663.89	340.011
1664.05	338.359
1664.2	339.074
1664.36	337.36
1664.51	338.324
1664.67	340.802
1664.82	334.87
1664.98	336.27
1665.13	337.789
1665.29	339.759
1665.44	337.667
1665.6	341.341
1665.75	337.996
1665.91	340.26
1666.06	333.357
1666.22	337.222
1666.37	339.182
1666.53	332.277
1666.68	335.826
1666.84	335.464
1666.99	335.784
1667.15	333.168
1667.3	339.261
1667.46	339.254
1667.61	337.652
1667.77	334.361
1667.92	337.618
1668.07	338.529
1668.23	341.06
1668.39	337.531
1668.54	333.507
1668.7	338.239
1668.85	341.729
1669.01	339.818
1669.16	339.35
1669.31	340.27
1669.47	338.249
1669.62	343.032
1669.78	337.524
1669.93	341.001
1670.09	339.352
1670.24	340.043
1670.4	335.246
1670.55	339.62
1670.71	336.365
1670.86	339.567
1671.02	339.959
1671.17	337.241
1671.33	339.507
1671.48	338.536
1671.64	339.775
1671.79	338.756
1671.95	334.978
1672.1	342.111
1672.26	337.904
1672.41	334.886
1672.56	335.75
1672.72	336.895
1672.87	333.352
1673.03	339.851
1673.18	337.244
1673.34	334.214
1673.49	336.256
1673.65	343.043
1673.8	336.074
1673.96	335.778
1674.11	335.569
1674.27	334.312
1674.42	336.639
1674.58	340.749
1674.73	338.837
1674.88	333.971
1675.04	339.625
1675.19	336.999
1675.35	337.795
1675.5	338.835
1675.66	336.781
1675.81	336.339
1675.97	338.15
1676.12	336.972
1676.28	336.244
1676.43	338.234
1676.58	340.227
1676.74	341.151
1676.89	337.89
1677.05	339.252
1677.2	338.074
1677.36	335.033
1677.51	336.9
1677.67	337.033
1677.82	342.999
1677.98	341.581
1678.13	341.073
1678.28	337.494
1678.44	333.663
1678.59	334.042
1678.75	337.039
1678.9	337.241
1679.06	339.771
1679.21	334.097
1679.37	336.915
1679.52	340.098
1679.67	339.267
1679.83	341.622
1679.98	339.902
1680.14	335.466
1680.29	335.534
1680.45	341.328
1680.6	339.187
1680.75	337.962
1680.91	343.524
1681.06	336.02
1681.22	335.004
1681.37	336.076
1681.53	340.082
1681.68	335.101
1681.83	339.972
1681.99	338.353
1682.14	336.206
1682.3	335.429
1682.45	337.53
1682.61	339.183
1682.76	334.903
1682.92	338.734
1683.07	336.652
1683.22	341.037
1683.38	336.127
1683.53	335.982
1683.69	334.092
1683.84	335.296
1683.99	335.239
1684.15	337.539
1684.3	340.754
1684.46	339.255
1684.61	334.988
1684.77	338.213
1684.92	338.502
1685.07	338.648
1685.23	333.955
1685.38	342.795
1685.54	339.921
1685.69	334.337
1685.84	337.926
1686	334.422
1686.15	342.367
1686.31	336.673
1686.46	338.523
1686.61	344.14
1686.77	336.234
1686.92	340.154
1687.08	336.314
1687.23	337.642
1687.39	333.597
1687.54	341.348
1687.69	334.352
1687.85	336.66
1688	338.126
1688.16	336.784
1688.31	336.82
1688.46	337.114
1688.62	341.726
1688.77	335.948
1688.93	341.944
1689.08	340.742
1689.23	337.419
1689.39	337.191
1689.54	334.067
1689.7	333.483
1689.85	335.916
1690	338.626
1690.16	340.048
1690.31	340.393
1690.47	334.851
1690.62	339.258
1690.77	338.346
1690.93	337.371
1691.08	334.398
1691.24	335.082
1691.39	334.888
1691.54	336.935
1691.7	331.662
1691.85	340.502
1692	337.522
1692.16	334.814
1692.31	338.626
1692.47	336.015
1692.62	338.379
1692.77	336.944
1692.93	333.666
1693.08	335.492
1693.24	334.344
1693.39	337.628
1693.54	336.974
1693.7	337.805
1693.85	335.972
1694.01	337.94
1694.16	337.573
1694.31	335.05
1694.47	335.164
1694.62	335.178
1694.77	337.242
1694.93	335.192
1695.08	336.757
1695.23	335.851
1695.39	336.917
1695.54	336.823
1695.7	335.913
1695.85	336.185
1696	336.769
1696.16	335.96
1696.31	333.558
1696.46	337.003
1696.62	336.058
1696.77	334.433
1696.93	336.101
1697.08	335.883
1697.23	331.695
1697.39	337.74
1697.54	334.624
1697.69	336.015
1697.85	335.262
1698	336.395
1698.15	335.584
1698.31	335.357
1698.46	336.323
1698.61	334.596
1698.77	337.37
1698.92	338.71
1699.08	336.818
1699.23	337.232
1699.38	335.272
1699.54	335.28
1699.69	337.978
1699.84	338.109
1700	338.39
1700.15	335.362
1700.3	336.03
1700.46	334.72
1700.61	334.04
1700.76	335.633
1700.92	337.739
1701.07	336.904
1701.22	334.766
1701.38	335.652
1701.53	336.374
1701.68	337.317
1701.84	335.615
1701.99	333.648
1702.15	333.139
1702.3	335.521
1702.45	335.928
1702.61	334.777
1702.76	334.834
1702.91	337.988
1703.07	337.393
1703.22	334.661
1703.37	338.203
1703.53	336.211
1703.68	336.865
1703.83	335.92
1703.99	335.14
1704.11	335.089
1704.26	337.419
1704.42	334.073
1704.58	335.615
1704.73	336.947
1704.89	335.326
1705.04	343.31
1705.2	336.839
1705.36	339.915
1705.51	334.997
1705.67	343.018
1705.82	339.204
1705.98	333.564
1706.14	341.626
1706.29	333.892
1706.45	337.008
1706.6	337.945
1706.76	340.317
1706.92	335.922
1707.07	335.732
1707.23	336.721
1707.38	341.112
1707.54	334.461
1707.69	337.287
1707.85	336.762
1708.01	340.108
1708.16	337.555
1708.32	338.956
1708.47	334.831
1708.63	338.069
1708.78	335.412
1708.94	340.005
1709.1	335.669
1709.25	336.309
1709.41	338.587
1709.56	334.549
1709.72	335.864
1709.87	334.828
1710.03	334.545
1710.19	334.421
1710.34	336.652
1710.5	336.524
1710.65	334.571
1710.81	333.175
1710.96	335.736
1711.12	342.468
1711.28	336.31
1711.43	340.445
1711.59	334.599
1711.74	334.701
1711.9	334.708
1712.05	334.752
1712.21	337.788
1712.36	342.532
1712.52	335.004
1712.67	337.365
1712.83	337.626
1712.99	337.095
1713.14	339.324
1713.3	344.085
1713.45	334.566
1713.61	334.525
1713.76	335.487
1713.92	340.786
1714.08	339.594
1714.23	337.916
1714.39	337.877
1714.54	336.533
1714.7	352.051
1714.85	341.817
1715.01	336.023
1715.16	343.373
1715.32	334.595
1715.47	339.218
1715.63	334.635
1715.79	339.692
1715.94	337.573
1716.1	334.452
1716.25	337.739
1716.41	341.541
1716.56	337.726
1716.72	332.399
1716.87	342.878
1717.03	340.507
1717.19	337.196
1717.34	338.922
1717.49	334.018
1717.65	339.792
1717.81	337.919
1717.96	339.423
1718.12	336.445
1718.27	337.394
1718.43	335.526
1718.58	336.92
1718.74	340.919
1718.89	337.474
1719.05	342.469
1719.2	335.484
1719.36	335.682
1719.51	343.235
1719.67	336.809
1719.82	339.832
1719.98	340.357
1720.14	335.583
1720.29	339.326
1720.45	337.267
1720.6	337.239
1720.76	339.723
1720.91	342.06
1721.07	338.545
1721.22	339.524
1721.38	336.264
1721.53	338.47
1721.69	341.089
1721.84	339.742
1722	341.043
1722.15	338.578
1722.31	337.284
1722.46	341.484
1722.62	339.161
1722.77	334.647
1722.93	338.399
1723.08	336.451
1723.24	338.245
1723.39	339.827
1723.55	339.607
1723.7	337.281
1723.86	337.956
1724.02	338.359
1724.17	341.289
1724.33	340.893
1724.48	334.781
1724.64	339.254
1724.79	338.152
1724.95	339.579
1725.1	341.453
1725.26	338.38
1725.41	338.426
1725.57	339.382
1725.72	337.759
1725.88	338.741
1726.03	337.584
1726.19	339.395
1726.34	338.437
1726.5	336.667
1726.65	344.482
1726.81	337.116
1726.96	339.479
1727.12	338.527
1727.27	340.644
1727.43	339.742
1727.58	343.807
1727.74	336.846
1727.89	335.153
1728.05	336.958
1728.2	335.683
1728.36	339.541
1728.51	338.75
1728.66	335.395
1728.82	342.602
1728.98	344.132
1729.13	340.581
1729.29	337.16
1729.44	343.924
1729.59	340.155
1729.75	340.376
1729.9	339.861
1730.06	334.953
1730.21	336.964
1730.37	334.811
1730.52	341.34
1730.68	342.924
1730.83	338.513
1730.99	339.699
1731.14	338.705
1731.3	340.891
1731.45	338.417
1731.61	338.175
1731.76	343.195
1731.92	339.411
1732.07	345.125
1732.23	337.483
1732.38	340.895
1732.54	337.444
1732.69	343.355
1732.85	338.198
1733	341.568
1733.16	337.209
1733.31	339.686
1733.46	341.107
1733.62	338.154
1733.77	339.257
1733.93	340.724
1734.08	340.05
1734.24	337.029
1734.39	338.324
1734.55	341.037
1734.7	340.411
1734.86	338.368
1735.01	339.289
1735.17	339.471
1735.32	338.751
1735.47	337.691
1735.63	339.807
1735.78	341.167
1735.94	339.218
1736.09	340.148
1736.25	341.133
1736.4	340.2
1736.56	341.125
1736.71	345.099
1736.87	341.556
1737.02	338.825
1737.18	343.619
1737.33	342.242
1737.48	339.772
1737.64	338.698
1737.79	345.72
1737.95	340.616
1738.1	339.055
1738.26	340.109
1738.41	340.738
1738.57	343.164
1738.72	340.601
1738.88	339.49
1739.03	340.782
1739.18	343.661
1739.34	340.89
1739.49	343.939
1739.65	341.657
1739.8	339.095
1739.96	341.678
1740.11	342.042
1740.26	342.615
1740.42	339.209
1740.57	344.438
1740.73	342.79
1740.88	342.553
1741.04	344.064
1741.19	342.132
1741.35	340.048
1741.5	342.323
1741.66	340.662
1741.81	339.089
1741.96	339.93
1742.12	339.03
1742.27	343.18
1742.43	342.24
1742.58	338.43
1742.74	342.327
1742.89	343.798
1743.04	345.152
1743.2	339.152
1743.35	339.475
1743.51	343.527
1743.66	345.558
1743.82	339.631
1743.97	341.076
1744.12	339.011
1744.28	341.613
1744.43	340.563
1744.59	341.421
1744.74	342.138
1744.89	340.777
1745.05	346.248
1745.2	345.693
1745.36	343.001
1745.51	345.76
1745.67	337.163
1745.82	339.832
1745.97	344.28
1746.13	340.212
1746.28	340.539
1746.44	340.824
1746.59	342.542
1746.75	340.632
1746.9	341.267
1747.05	337.412
1747.21	344.795
1747.36	346.921
1747.52	342.465
1747.67	340.808
1747.82	346.236
1747.98	342.476
1748.13	338.902
1748.29	342.97
1748.44	341.492
1748.59	342.331
1748.75	348.575
1748.9	342.547
1749.06	343.66
1749.21	340.11
1749.37	340.481
1749.52	342.451
1749.67	344.326
1749.83	346.862
1749.98	344.295
1750.14	341.699
1750.29	342.43
1750.44	345.726
1750.6	343.2
1750.75	343.492
1750.9	339.462
1751.06	345.124
1751.21	341.367
1751.37	342.234
1751.52	340.873
1751.67	342.472
1751.83	343.611
1751.98	340.216
1752.14	341.355
1752.29	340.346
1752.44	341.8
1752.6	341.993
1752.75	342.329
1752.91	339.253
1753.06	343.091
1753.21	341.783
1753.37	344.42
1753.52	343.947
1753.68	338.789
1753.83	340.802
1753.98	344.116
1754.14	342.166
1754.29	343.642
1754.44	343.313
1754.6	341.891
1754.75	343.639
1754.91	340.466
1755.06	341.829
1755.21	344.835
1755.37	344.153
1755.52	342.089
1755.68	340.536
1755.83	344.117
1755.98	341.497
1756.14	342.252
1756.29	344.707
1756.44	338.277
1756.6	338.456
1756.75	340.075
1756.91	339.529
1757.06	340.041
1757.21	345.425
1757.37	340.849
1757.52	347.51
1757.67	340.163
1757.83	343.295
1757.98	341.482
1758.13	341.686
1758.29	342.901
1758.44	341.763
1758.6	342.598
1758.75	342.53
1758.9	342.751
1759.06	343.748
1759.21	340.37
1759.36	341.679
1759.52	341.681
1759.67	340.699
1759.82	342.864
1759.98	342.211
1760.13	338.442
1760.29	340.876
1760.44	345.21
1760.59	342.591
1760.75	343.977
1760.9	342.523
1761.05	344.195
1761.21	343.21
1761.36	343.224
1761.51	344.775
1761.67	343.447
1761.82	343.453
1761.97	347.832
1762.13	346.915
1762.28	346.038
1762.44	345.694
1762.59	338.807
1762.74	343.369
1762.89	345.542
1763.05	342.293
1763.2	344.894
1763.36	341.688
1763.51	344.194
1763.66	343.975
1763.82	342.589
1763.97	346.925
1764.12	344.077
1764.28	344.433
1764.43	343.928
1764.58	345.305
1764.74	345.294
1764.89	345.445
1765.04	345.2
1765.2	343.781
1765.35	343.948
1765.5	343.741
1765.66	341.689
1765.81	347.38
1765.96	344.515
1766.12	340.096
1766.27	342.542
1766.42	346.237
1766.58	344.563
1766.73	341.278
1766.88	343.514
1767.04	354.054
1767.19	343.104
1767.34	346.119
1767.5	342.589
1767.65	346.126
1767.8	344.309
1767.96	346.027
1768.11	344.835
1768.26	346.405
1768.42	343.651
1768.57	345.898
1768.72	344.135
1768.88	345.963
1769.03	340.994
1769.18	346.445
1769.34	343.338
1769.49	345.664
1769.64	346.517
1769.8	345.831
1769.95	345.714
1770.1	343.692
1770.25	346.503
1770.41	344.908
1770.56	344.574
1770.71	346.642
1770.87	344.858
1771.02	343.738
1771.17	342.476
1771.33	348.193
1771.48	344.019
1771.63	343.684
1771.79	345.343
1771.94	341.316
1772.09	345.012
1772.24	345.579
1772.4	344.285
1772.55	347.918
1772.7	344.534
1772.86	341.837
1773.01	339.908
1773.16	345.033
1773.32	342.581
1773.47	338.808
1773.62	343.875
1773.78	344.734
1773.93	342.399
1774.08	343.064
1774.23	343.943
1774.39	342.972
1774.54	345.056
1774.69	341.594
1774.85	342.824
1775	344.529
1775.15	346.927
1775.31	345.07
1775.46	342.701
1775.61	351.272
1775.76	345.43
1775.92	343.205
1776.07	346.928
1776.22	348.822
1776.38	344.547
1776.53	346.741
1776.68	346.967
1776.83	346.021
1776.99	344.896
1777.14	342.269
1777.29	343.312
1777.45	343.533
1777.6	344.485
1777.75	342.024
1777.9	343.155
1778.06	344.437
1778.21	348.924
1778.36	347.865
1778.52	340.958
1778.67	345.537
1778.82	344.21
1778.97	346.389
1779.13	349.215
1779.28	345.607
1779.43	344.32
1779.59	346.722
1779.74	341.391
1779.89	344.496
1780.04	345.509
1780.2	347.569
1780.35	341.479
1780.5	342.669
1780.65	342.63
1780.81	344.043
1780.96	344.973
1781.11	348.558
1781.27	343.447
1781.42	342.475
1781.57	349.036
1781.72	343.419
1781.88	343.672
1782.03	349.963
1782.18	344.344
1782.33	346.599
1782.49	348.279
1782.64	348.528
1782.79	345.416
1782.95	344.061
1783.1	344.81
1783.25	343.873
1783.4	344.762
1783.56	344.587
1783.71	342.739
1783.86	341.203
1784.01	341.78
1784.17	345.762
1784.32	348.682
1784.47	344.656
1784.62	346.027
1784.78	347.707
1784.93	345.125
1785.08	344.702
1785.23	347.458
1785.39	346.532
1785.54	341.393
1785.69	344.156
1785.84	345.068
1786	346.765
1786.15	344.158
1786.3	348.033
1786.45	347.108
1786.61	346.22
1786.76	345.817
1786.91	346.26
1787.06	345.658
1787.22	345.367
1787.37	347.67
1787.52	343.73
1787.67	346.41
1787.83	345.828
1787.98	345.162
1788.13	344.15
1788.28	344.326
1788.44	346.414
1788.59	349.407
1788.74	344.12
1788.89	344.347
1789.04	355.909
1789.2	344.435
1789.35	345.228
1789.5	342.221
1789.65	342.974
1789.81	346.007
1789.96	347.255
1790.11	347.068
1790.26	351.11
1790.42	347.145
1790.57	350.483
1790.72	344.926
1790.87	344.164
1791.02	343.542
1791.18	345.829
1791.33	346.124
1791.48	342.321
1791.63	347.902
1791.79	345.971
1791.94	350.67
1792.09	346.915
1792.24	344.219
1792.4	342.877
1792.55	350.408
1792.7	347.056
1792.85	344.756
1793	349.564
1793.16	343.499
1793.31	347.114
1793.46	349.508
1793.61	347.958
1793.76	344.132
1793.92	349.793
1794.07	343.738
1794.22	352.588
1794.37	350.416
1794.53	342.682
1794.68	343.183
1794.83	343.441
1794.98	346.204
1795.14	345.146
1795.29	347.361
1795.44	346.356
1795.59	345.134
1795.74	348.638
1795.9	347.448
1796.05	349.552
1796.2	350.802
1796.35	345.695
1796.5	342.212
1796.66	346.071
1796.81	345.31
1796.96	347.497
1797.11	347.044
1797.26	344.661
1797.42	343.589
1797.57	345.93
1797.72	344.515
1797.87	346.946
1798.02	345.92
1798.18	345.033
1798.33	356.487
1798.48	346.966
1798.63	345.486
1798.78	344.473
1798.94	349.512
1799.09	346.297
1799.24	346.611
1799.39	345.216
1799.54	345.788
1799.7	347.524
1799.85	343.544
1800	345.577
1800.15	346.227
1800.3	349.749
1800.45	344.98
1800.61	344.775
1800.76	350.503
1800.91	346.787
1801.06	346.712
1801.21	344.382
1801.37	346.954
1801.52	346.658
1801.67	349.197
1801.82	342.045
1801.97	347.962
1802.12	347.167
1802.28	346.872
1802.43	346.082
1802.58	349.974
1802.73	344.494
1802.88	345.972
1803.04	350.011
1803.19	347.43
1803.34	350.85
1803.49	356.263
1803.64	352.106
1803.79	351.676
1803.95	344.848
1804.1	348.508
1804.25	346.767
1804.4	346.327
1804.55	347.402
1804.71	351.125
1804.86	351.856
1805.01	348.347
1805.16	348.97
1805.31	348.326
1805.46	348.799
1805.62	350.076
1805.77	345.505
1805.92	345.433
1806.07	344.39
1806.22	349.56
1806.37	350.815
1806.53	348.62
1806.68	344.397
1806.83	349.381
1806.98	348.209
1807.13	345.642
1807.28	350.953
1807.44	342.985
1807.59	344.564
1807.74	348.12
1807.89	343.527
1808.04	348.327
1808.19	350.637
1808.34	347.913
1808.5	348.024
1808.65	347.959
1808.8	345.696
1808.95	342.78
1809.1	350.722
1809.25	347.783
1809.41	345.544
1809.56	351.681
1809.71	348.746
1809.86	348.387
1810.01	347.545
1810.16	344.824
1810.31	347.409
1810.47	346.297
1810.62	350.911
1810.77	353.764
1810.92	349.53
1811.07	345.207
1811.22	346.159
1811.37	346.222
1811.53	347.013
1811.68	347.77
1811.83	348.927
1811.98	350.004
1812.13	347.029
1812.28	349.128
1812.43	351.856
1812.59	348.466
1812.74	348.793
1812.89	345.212
1813.04	350.305
1813.19	349.7
1813.34	348.281
1813.49	349.147
1813.64	349.941
1813.8	347.536
1813.95	350.037
1814.1	348.029
1814.25	346.806
1814.4	347.964
1814.55	351.986
1814.7	352.764
1814.85	350.015
1815.01	353.567
1815.16	345.44
1815.31	349.262
1815.46	349.253
1815.61	355.401
1815.76	347.249
1815.91	353.057
1816.07	349.455
1816.22	347.853
1816.37	347.723
1816.52	350.77
1816.67	348.802
1816.82	348.787
1816.97	348.727
1817.12	348.525
1817.28	350.035
1817.43	352.512
1817.58	347.278
1817.73	347.337
1817.88	355.351
1818.03	348.933
1818.18	348.378
1818.33	344.718
1818.48	350.631
1818.63	350.354
1818.79	352.565
1818.94	347.93
1819.09	350.827
1819.24	349.793
1819.39	349.374
1819.54	348.486
1819.69	352.015
1819.84	351.878
1819.99	349.82
1820.15	350.352
1820.3	349.05
1820.45	352.908
1820.6	352.753
1820.75	346.049
1820.9	349.054
1821.05	345.487
1821.2	351.38
1821.35	347.953
1821.51	350.223
1821.66	348.886
1821.81	351.377
1821.96	347.765
1822.11	347.93
1822.26	350.975
1822.41	365.029
1822.56	350.236
1822.71	351.564
1822.86	351.799
1823.01	351.723
1823.17	348.071
1823.32	351.613
1823.47	350.812
1823.62	350.901
1823.77	354.076
1823.92	352.676
1824.07	350.124
1824.22	350.111
1824.37	353.72
1824.52	350.596
1824.67	347.437
1824.83	352.095
1824.98	349.937
1825.13	351.098
1825.28	348.494
1825.43	350.699
1825.58	348.79
1825.73	351.679
1825.88	349.453
1826.03	355.64
1826.18	352.567
1826.33	354.564
1826.48	350.418
1826.64	350.936
1826.79	355.539
1826.94	350.479
1827.09	349.745
1827.24	353.459
1827.39	351.605
1827.54	354.103
1827.69	349.255
1827.84	351.268
1827.99	353.474
1828.14	348.499
1828.29	352.638
1828.44	353.706
1828.59	358.242
1828.74	351.708
1828.9	355.04
1829.05	353.642
1829.2	350.89
1829.35	353.16
1829.5	350.956
1829.65	354.998
1829.8	352.437
1829.95	347.27
1830.1	353.142
1830.25	354.605
1830.4	351.216
1830.55	351.617
1830.7	355.043
1830.85	354.06
1831	352.934
1831.16	353.54
1831.31	355.71
1831.46	350.356
1831.61	358.055
1831.76	353.233
1831.91	353.263
1832.06	356.222
1832.21	356.406
1832.36	349.878
1832.51	349.335
1832.66	355.535
1832.81	351.724
1832.96	352.09
1833.11	358.058
1833.26	351.743
1833.41	352.111
1833.56	352.662
1833.71	357.019
1833.86	351.933
1834.02	351.238
1834.17	348.905
1834.32	353.532
1834.47	350.258
1834.62	349.609
1834.77	354.521
1834.92	354.331
1835.07	353.378
1835.22	350.979
1835.37	354.623
1835.52	349.231
1835.67	354.804
1835.82	349.897
1835.97	352.292
1836.12	356.341
1836.27	352.539
1836.42	358.573
1836.57	353.774
1836.72	349.629
1836.87	355.434
1837.02	349.403
1837.17	352.22
1837.32	355.033
1837.48	353.457
1837.63	354.449
1837.78	351.804
1837.93	353.74
1838.08	351.303
1838.23	351.854
1838.38	354.813
1838.53	352.106
1838.68	354.904
1838.83	357.918
1838.98	355.04
1839.13	355.208
1839.28	353.741
1839.43	355.536
1839.58	356.109
1839.73	359.666
1839.88	354.667
1840.03	357.917
1840.18	351.813
1840.33	352.947
1840.48	351.974
1840.63	355.875
1840.78	358.891
1840.93	355.471
1841.08	355.688
1841.23	354.34
1841.38	356.652
1841.53	351.696
1841.68	356.407
1841.83	353.924
1841.98	353.953
1842.13	354.079
1842.28	357.585
1842.43	356.416
1842.58	357.15
1842.73	354.179
1842.88	352.141
1843.03	355.84
1843.18	352.205
1843.33	356.701
1843.48	351.886
1843.63	354.066
1843.78	358.751
1843.93	355.021
1844.08	353.796
1844.23	356.488
1844.38	359.71
1844.53	357.389
1844.68	355.711
1844.83	356.484
1844.98	351.226
1845.13	354.138
1845.28	356.969
1845.43	357.658
1845.58	354.092
1845.73	355.921
1845.88	355.825
1846.03	355.766
1846.18	357.315
1846.33	358.006
1846.48	355.976
1846.63	359.385
1846.78	357.095
1846.93	354.431
1847.08	356.262
1847.23	354.248
1847.38	353.956
1847.53	355.026
1847.68	358.089
1847.83	356.321
1847.98	353.398
1848.13	355.89
1848.28	355.457
1848.43	355.436
1848.58	350.093
1848.73	355.443
1848.88	355.88
1849.03	358.577
1849.18	360.352
1849.33	358.338
1849.48	370.701
1849.63	356.254
1849.78	353.223
1849.93	358.677
1850.08	357.836
1850.23	356.486
1850.38	357.694
1850.53	358.555
1850.68	357.58
1850.83	359.959
1850.98	363.415
1851.13	356.056
1851.28	352.899
1851.43	354.13
1851.58	362.04
1851.73	360.048
1851.88	357.495
1852.03	356.933
1852.18	356.04
1852.32	364.465
1852.47	355.034
1852.62	360.878
1852.77	358.655
1852.92	357.453
1853.07	354.536
1853.22	356.365
1853.37	358.197
1853.52	358.071
1853.67	358.716
1853.82	359.058
1853.97	355.421
1854.12	356.109
1854.27	353.652
1854.42	359.413
1854.57	356.609
1854.72	360.123
1854.87	361.904
1855.02	357.323
1855.17	357.632
1855.32	356.222
1855.47	358.788
1855.62	356.462
1855.77	359.811
1855.92	357.41
1856.07	356.352
1856.21	359.096
1856.36	355.763
1856.51	357.077
1856.66	361.205
1856.81	357.362
1856.96	358.324
1857.11	353.942
1857.26	358.316
1857.41	354.112
1857.56	358.038
1857.71	362.478
1857.86	357.239
1858.01	358.222
1858.16	357.724
1858.31	358.717
1858.46	357.432
1858.61	358.097
1858.76	357.724
1858.91	356.702
1859.05	355.384
1859.2	355.669
1859.35	358.692
1859.5	361.487
1859.65	355.318
1859.8	358.19
1859.95	358.98
1860.1	357.086
1860.25	357.197
1860.4	359.68
1860.55	361.546
1860.7	362.926
1860.85	356.617
1861	360.248
1861.15	358.86
1861.29	357.582
1861.44	357.896
1861.59	363.041
1861.74	361.142
1861.89	360.035
1862.04	361.817
1862.19	358.729
1862.34	357.021
1862.49	357.207
1862.64	359.133
1862.79	356.02
1862.94	361.097
1863.09	360.861
1863.24	359.513
1863.38	362.089
1863.53	362.678
1863.68	357.352
1863.83	356.767
1863.98	361.421
1864.13	359.174
1864.28	360.934
1864.43	356.818
1864.58	357.488
1864.73	357.729
1864.88	355.622
1865.03	358.017
1865.17	365.408
1865.32	356.903
1865.47	359.612
1865.62	358.485
1865.77	362.651
1865.92	354.908
1866.07	355.465
1866.22	361.613
1866.37	363.833
1866.52	356.01
1866.67	361.353
1866.81	361.135
1866.96	358.591
1867.11	361.092
1867.26	358.09
1867.41	361.978
1867.56	357.435
1867.71	357.471
1867.86	359.577
1868.01	363.903
1868.16	361.08
1868.31	356.951
1868.45	356.568
1868.6	360.807
1868.75	359.286
1868.9	356.678
1869.05	355.808
1869.2	357.834
1869.35	359.474
1869.5	355.471
1869.65	362.798
1869.79	358.095
1869.94	357.841
1870.09	360.212
1870.24	369.802
1870.39	363.093
1870.54	361.986
1870.69	359.319
1870.84	359.458
1870.99	355.974
1871.14	363.302
1871.28	366.029
1871.43	360.034
1871.58	354.547
1871.73	358.389
1871.88	359.782
1872.03	361.881
1872.18	358.511
1872.33	359.881
1872.47	357.699
1872.62	357.078
1872.77	355.343
1872.92	363.94
1873.07	360.664
1873.22	358.263
1873.37	360.859
1873.52	365.708
1873.67	358.52
1873.81	362.311
1873.96	360.5
1874.11	360.1
1874.26	360.539
1874.41	356.515
1874.56	360.219
1874.71	353.896
1874.86	360.165
1875	357.895
1875.15	358.252
1875.3	358.353
1875.45	360.995
1875.6	359.523
1875.75	356.413
1875.9	357.788
1876.04	361.766
1876.19	357.701
1876.34	358.956
1876.49	357.668
1876.64	356.607
1876.79	360.696
1876.94	363.494
1877.08	360.698
1877.23	356.581
1877.38	357.661
1877.53	356.813
1877.68	357.355
1877.83	360.187
1877.98	358.381
1878.12	362.865
1878.27	359.326
1878.42	365.095
1878.57	357.581
1878.72	361.926
1878.87	362.681
1879.02	364.832
1879.17	358.885
1879.31	360.305
1879.46	363.778
1879.61	362.119
1879.76	355.785
1879.91	359.967
1880.06	359.097
1880.21	360.534
1880.35	360.756
1880.5	357.963
1880.65	360.006
1880.8	356.026
1880.95	363.076
1881.1	375.403
1881.24	356.589
1881.39	364.449
1881.54	360.821
1881.69	357.899
1881.84	361.208
1881.99	360.853
1882.13	360.918
1882.28	360.048
1882.43	357.487
1882.58	367.75
1882.73	364.943
1882.88	362.844
1883.03	361.177
1883.17	362.117
1883.32	361.624
1883.47	360.717
1883.62	361.95
1883.77	362.958
1883.91	362.49
1884.06	357.41
1884.21	361.638
1884.36	360.427
1884.51	358.432
1884.66	359.894
1884.81	362.823
1884.95	358.203
1885.1	362.475
1885.25	360.334
1885.4	358.128
1885.55	358.063
1885.7	359.18
1885.84	366.075
1885.99	359.94
1886.14	362.268
1886.29	356.331
1886.44	370.889
1886.58	366.958
1886.73	359.801
1886.88	361.321
1887.03	359.75
1887.18	366.395
1887.33	370.775
1887.47	364.258
1887.62	358.486
1887.77	358.353
1887.92	363.428
1888.07	361.92
1888.21	362.592
1888.36	362.566
1888.51	360.217
1888.66	359.165
1888.81	361.403
1888.96	362.585
1889.1	363.412
1889.25	363.192
1889.4	361.708
1889.55	364.856
1889.69	367.091
1889.84	366.583
1889.99	363.337
1890.14	361.797
1890.29	363.164
1890.44	362.092
1890.58	362.951
1890.73	362.644
1890.88	363.493
1891.03	365.521
1891.18	360.593
1891.32	363.997
1891.47	357.703
1891.62	361.892
1891.77	363.153
1891.92	363.08
1892.06	366.082
1892.21	360.241
1892.36	362.928
1892.51	372.159
1892.66	359.181
1892.8	358.981
1892.95	365.405
1893.1	360.59
1893.25	364.025
1893.4	359.619
1893.54	364.744
1893.69	359.103
1893.84	360.455
1893.99	362.809
1894.14	358.288
1894.28	362.139
1894.43	365.973
1894.58	360.432
1894.73	360.076
1894.87	362.852
1895.02	358.408
1895.17	359.55
1895.32	359.375
1895.47	362.672
1895.61	364.681
1895.76	362.159
1895.91	362.465
1896.06	362.19
1896.2	360.328
1896.35	361.199
1896.5	358.314
1896.65	359.976
1896.8	359.802
1896.94	365.547
1897.09	362.192
1897.24	360.347
1897.39	363.775
1897.53	361.57
1897.68	365.003
1897.83	363.474
1897.98	363.618
1898.13	364.037
1898.27	363.832
1898.42	360.618
1898.57	361.045
1898.72	359.181
1898.86	362.879
1899.01	360.656
1899.16	360.908
1899.31	361.855
1899.46	363.484
1899.6	363.589
1899.75	357.466
1899.9	364.948
1900.05	360.322
1900.19	367.682
1900.34	361.116
1900.49	364.619
1900.64	363.113
1900.78	360.443
1900.93	361.01
1901.08	366.55
1901.23	362.118
1901.37	362.226
1901.52	364.074
1901.67	361.862
1901.82	364.34
1901.97	361.862
1902.11	366.335
1902.26	364.3
1902.41	362.462
1902.56	362.855
1902.7	365.754
1902.85	360.355
1903	363.939
1903.15	362.307
1903.29	361.531
1903.44	360.184
1903.59	363.209
1903.74	364.374
1903.88	359.082
1904.03	364.71
1904.18	359.898
1904.33	362.243
1904.47	364.336
1904.62	360.373
1904.77	360.553
1904.91	368.544
1905.06	366.736
1905.21	363.902
1905.36	361.081
1905.51	361.881
1905.65	358.594
1905.8	367.235
1905.95	360.668
1906.09	360.022
1906.24	361.292
1906.39	361.246
1906.54	360.658
1906.68	362.082
1906.83	361.869
1906.98	362.234
1907.13	359.409
1907.27	360.549
1907.42	365.141
1907.57	360.64
1907.72	364.706
1907.86	362.383
1908.01	369.057
1908.16	363.667
1908.3	368.969
1908.45	364.38
1908.6	363.64
1908.75	362.107
1908.89	363.265
1909.04	363.153
1909.19	364.797
1909.34	367.397
1909.48	366.486
1909.63	360.618
1909.78	363.218
1909.92	364.964
1910.07	363.111
1910.22	363.421
1910.37	368.121
1910.51	367.036
1910.66	363.347
1910.81	362.426
1910.95	361.236
1911.1	362.645
1911.25	366.81
1911.4	369.468
1911.54	363.261
1911.69	359.401
1911.84	361.345
1911.98	361.308
1912.13	361.342
1912.28	361.259
1912.43	362.06
1912.57	367.739
1912.72	361.478
1912.87	368.029
1913.01	362.931
1913.16	364.512
1913.31	371.774
1913.46	367.362
1913.6	365.086
1913.75	366.397
1913.9	364.279
1914.04	362.412
1914.19	365.245
1914.34	363.062
1914.48	369.287
1914.63	363.323
1914.78	362.971
1914.93	364.78
1915.07	365.742
1915.22	366.041
1915.37	361.754
1915.51	363.653
1915.66	365.417
1915.81	362.757
1915.96	366.392
1916.1	370.699
1916.25	368.29
1916.4	366.115
1916.54	365.916
1916.69	369.07
1916.84	364.395
1916.98	364.937
1917.13	362.394
1917.28	362.417
1917.42	361.124
1917.57	368.708
1917.72	369.403
1917.87	364.971
1918.01	362.004
1918.16	370.974
1918.31	363.133
1918.45	365.241
1918.6	364.514
1918.75	363.588
1918.89	368.602
1919.04	364.345
1919.19	365.012
1919.33	363.182
1919.48	371.758
1919.63	365.52
1919.77	364.897
1919.92	364.834
1920.07	368.596
1920.21	368.022
1920.36	370.021
1920.51	361.837
1920.65	362.86
1920.8	368.356
1920.95	369.726
1921.09	368.879
1921.24	368.754
1921.39	365.662
1921.53	364.013
1921.68	367.163
1921.83	366.878
1921.97	364.321
1922.12	368.421
1922.27	368.044
1922.41	367.27
1922.56	366.103
1922.71	363.789
1922.86	368.954
1923	365.086
1923.15	368.333
1923.3	365.706
1923.44	365.31
1923.59	365.313
1923.74	364.064
1923.88	365.139
1924.03	363.132
1924.17	365.297
1924.32	365.272
1924.47	365.097
1924.61	365.513
1924.76	364.385
1924.91	366.868
1925.05	365.619
1925.2	367.835
1925.35	366.551
1925.49	367.044
1925.64	367.526
1925.79	365.448
1925.93	367.706
1926.08	367.354
1926.23	366.854
1926.37	367.532
1926.52	365.678
1926.67	364.795
1926.81	366.425
1926.96	365.078
1927.11	361.971
1927.25	365.71
1927.4	364.652
1927.54	366.766
1927.69	368.602
1927.84	370.406
1927.98	367.467
1928.13	365.738
1928.28	364.751
1928.42	367.755
1928.57	365.515
1928.72	363.965
1928.86	367.25
1929.01	363.278
1929.16	363.259
1929.3	366.224
1929.45	365.778
1929.6	366.18
1929.74	368.806
1929.89	364.663
1930.03	369.669
1930.18	366.836
1930.33	367.845
1930.47	369.26
1930.62	368.091
1930.77	364.693
1930.91	363.959
1931.06	364.498
1931.1	364.712
1931.25	368.311
1931.4	364.785
1931.55	370.187
1931.69	367.014
1931.84	364.66
1931.99	370.325
1932.14	364.639
1932.29	367.325
1932.44	367.153
1932.59	363.334
1932.73	364.081
1932.88	368.364
1933.03	369.893
1933.18	368.754
1933.33	369.061
1933.48	364.808
1933.63	370.928
1933.78	367.774
1933.93	370.223
1934.07	368.016
1934.22	368.539
1934.37	370.164
1934.52	365.1
1934.67	366.274
1934.82	365.872
1934.97	365.784
1935.12	367.063
1935.26	369.807
1935.41	366.248
1935.56	369.737
1935.71	367.375
1935.86	369.004
1936.01	367.8
1936.16	366.241
1936.3	374.94
1936.45	368.662
1936.6	365.217
1936.75	369.009
1936.9	366.607
1937.05	365.608
1937.2	365.089
1937.34	366.124
1937.49	368.253
1937.64	367.786
1937.79	368.484
1937.94	363.712
1938.09	373.281
1938.24	369.748
1938.39	367.865
1938.53	366.353
1938.68	364.039
1938.83	370.308
1938.98	367.314
1939.13	367.92
1939.28	369.453
1939.42	367.629
1939.57	370.348
1939.72	368.788
1939.87	366.968
1940.02	370.306
1940.17	368.251
1940.32	369.053
1940.46	367.904
1940.61	366.783
1940.76	367.334
1940.91	368.247
1941.06	369.448
1941.21	369.65
1941.35	369.132
1941.5	369.786
1941.65	370.089
1941.8	364.795
1941.95	390.532
1942.1	367.739
1942.25	367.488
1942.39	370.101
1942.54	371.713
1942.69	367.17
1942.84	369.968
1942.99	370.211
1943.14	370.125
1943.28	368.582
1943.43	368.998
1943.58	368.283
1943.73	370.385
1943.88	371.747
1944.03	368.897
1944.17	367.357
1944.32	369.445
1944.47	369.326
1944.62	372.082
1944.77	368.061
1944.92	368.926
1945.06	373.078
1945.21	375.466
1945.36	372.135
1945.51	368.373
1945.66	368.941
1945.8	377.995
1945.95	368.299
1946.1	372.132
1946.25	369.094
1946.4	370.331
1946.55	376.75
1946.69	370.857
1946.84	366.5
1946.99	365.624
1947.14	372.456
1947.29	371.796
1947.44	370.845
1947.58	368.13
1947.73	367.544
1947.88	372.251
1948.03	370.672
1948.18	370.243
1948.32	368.404
1948.47	368.388
1948.62	369.759
1948.77	370.673
1948.92	374.653
1949.06	367.309
1949.21	371.26
1949.36	369.278
1949.51	369.814
1949.66	368.578
1949.81	369.344
1949.95	369.92
1950.1	366.141
1950.25	365.958
1950.4	369.388
1950.55	367.333
1950.69	370.417
1950.84	369.308
1950.99	373.272
1951.14	369.225
1951.29	366.5
1951.43	370.807
1951.58	366.224
1951.73	371.41
1951.88	368.489
1952.03	371.985
1952.17	367.873
1952.32	370.428
1952.47	368.939
1952.62	368.248
1952.77	371.004
1952.91	366.985
1953.06	370.159
1953.21	367.872
1953.36	366.573
1953.51	369.973
1953.65	368.311
1953.8	370.448
1953.95	370.117
1954.1	371.284
1954.25	368.665
1954.39	370.895
1954.54	372.007
1954.69	366.624
1954.84	368.694
1954.98	369.135
1955.13	368.861
1955.28	368.228
1955.43	372.032
1955.58	368.34
1955.72	368.103
1955.87	371.487
1956.02	373.859
1956.17	372.592
1956.31	373.238
1956.46	367.534
1956.61	367.618
1956.76	373.472
1956.91	368.595
1957.05	371.038
1957.2	367.905
1957.35	369.938
1957.5	371.566
1957.65	370.107
1957.79	370.24
1957.94	369.944
1958.09	371.155
1958.24	368.188
1958.38	375.082
1958.53	368.087
1958.68	372.563
1958.83	368.612
1958.97	369.457
1959.12	372.151
1959.27	368.969
1959.42	372.451
1959.57	373.637
1959.71	371.875
1959.86	369.589
1960.01	369.832
1960.16	365.911
1960.3	374.946
1960.45	369.969
1960.6	370.439
1960.75	368.44
1960.89	369.183
1961.04	371.129
1961.19	368.261
1961.34	365.592
1961.48	369.559
1961.63	368.311
1961.78	372.735
1961.93	372.437
1962.07	373.908
1962.22	369.942
1962.37	374.655
1962.52	371.517
1962.67	366.526
1962.81	370.964
1962.96	369.182
1963.11	371.898
1963.25	370.736
1963.4	368.657
1963.55	372.192
1963.7	369.871
1963.85	370.384
1963.99	370.3
1964.14	371.561
1964.29	371.287
1964.44	367.946
1964.58	369.245
1964.73	370.173
1964.88	371.101
1965.02	374.629
1965.17	368.437
1965.32	367.339
1965.47	368.594
1965.61	371.074
1965.76	371.407
1965.91	371.718
1966.06	376.801
1966.2	374.088
1966.35	367.573
1966.5	370.006
1966.65	370.11
1966.79	370.464
1966.94	369.625
1967.09	383.565
1967.24	374.089
1967.38	369.226
1967.53	370.953
1967.68	371.73
1967.83	369.144
1967.97	371.336
1968.12	371.89
1968.27	372.278
1968.41	370.678
1968.56	372.107
1968.71	371.853
1968.86	367.576
1969	368.118
1969.15	368.995
1969.3	370.352
1969.45	370.204
1969.59	370.461
1969.74	370.223
1969.89	367.006
1970.03	372.142
1970.18	368.658
1970.33	369.533
1970.48	370.003
1970.62	368.702
1970.77	372.406
1970.92	367.927
1971.06	368.644
1971.21	370.13
1971.36	366.513
1971.51	371.471
1971.65	373.966
1971.8	369.391
1971.95	372.508
1972.1	369.712
1972.24	368.989
1972.39	364.725
1972.54	367.495
1972.68	371.153
1972.83	377.389
1972.98	371.034
1973.13	370.094
1973.27	370.541
1973.42	367.899
1973.57	366.681
1973.71	373.788
1973.86	375.81
1974.01	370.795
1974.16	371.52
1974.3	367.262
1974.45	371.067
1974.6	374.637
1974.74	369.156
1974.89	371.226
1975.04	374.518
1975.18	372.18
1975.33	374.529
1975.48	372.982
1975.62	371.633
1975.77	367.938
1975.92	373.155
1976.07	376.319
1976.21	371.735
1976.36	368.79
1976.51	373.861
1976.65	372.768
1976.8	371.391
1976.95	370.482
1977.09	372.602
1977.24	370.167
1977.39	372.304
1977.54	369.93
1977.68	372.512
1977.83	367.648
1977.98	372.885
1978.12	370.032
1978.27	370.371
1978.42	367.228
1978.56	373.024
1978.71	369.202
1978.86	371.882
1979	376.6
1979.15	371.979
1979.3	368.33
1979.45	371.135
1979.59	369.574
1979.74	370.162
1979.89	372.187
1980.03	375.096
1980.18	371.467
1980.33	370.705
1980.47	373.279
1980.62	370.817
1980.77	373.542
1980.91	368.012
1981.06	378.274
1981.21	376.419
1981.35	371.073
1981.5	369.957
1981.65	369.209
1981.79	369.002
1981.94	369.666
1982.09	371.914
1982.23	370.281
1982.38	367.795
1982.53	370.143
1982.67	370.977
1982.82	367.578
1982.97	371.686
1983.11	371.53
1983.26	373.169
1983.41	375.958
1983.55	372.966
1983.7	369.252
1983.85	369.035
1983.99	369.506
1984.14	374.457
1984.29	366.158
1984.43	369.97
1984.58	372.519
1984.73	371.167
1984.87	371.281
1985.02	371.255
1985.17	370.973
1985.31	369.208
1985.46	370.541
1985.61	371.054
1985.75	368.726
1985.9	368.487
1986.05	372.221
1986.19	369.543
1986.34	371.858
1986.49	367.032
1986.63	369.968
1986.78	370.517
1986.93	373.36
1987.07	373.061
1987.22	373.006
1987.37	372.467
1987.51	371.026
1987.66	370.499
1987.8	371.885
1987.95	371.319
1988.1	369.178
1988.24	374.534
1988.39	372.622
1988.54	370.729
1988.68	369.18
1988.83	374.769
1988.98	370.439
1989.12	371.918
1989.27	372.165
1989.42	371.505
1989.56	368.384
1989.71	371.306
1989.86	369.903
1990	370.333
1990.15	371.237
1990.29	371.613
1990.44	368.448
1990.59	370.737
1990.73	369.609
1990.88	372.61
1991.03	370.887
1991.17	375.521
1991.32	368.643
1991.46	369.542
1991.61	371.745
1991.76	370.91
1991.9	377.658
1992.05	375.012
1992.2	374.121
1992.34	368.736
1992.49	370.92
1992.64	368.361
1992.78	375.734
1992.93	370.573
1993.07	372.398
1993.22	366.947
1993.37	375.431
1993.51	375.027
1993.66	370.864
1993.81	370.621
1993.95	370.629
1994.1	371.174
1994.24	370.338
1994.39	371.485
1994.54	369.949
1994.68	369.495
1994.83	368.999
1994.98	366.474
1995.12	367.859
1995.27	372.174
1995.41	369.178
1995.56	368.758
1995.71	377.363
1995.85	376.525
1996	370.613
1996.15	370.23
1996.29	371.074
1996.44	368.443
1996.58	372.301
1996.73	368.33
1996.88	369.584
1997.02	367.813
1997.17	369.825
1997.31	372.626
1997.46	377.004
1997.61	370.74
1997.75	374.437
1997.9	373.393
1998.04	371.043
1998.19	373.132
1998.34	371.487
1998.48	369.778
1998.63	368.854
1998.77	366.288
1998.92	367.137
1999.07	373.075
1999.21	376.265
1999.36	371.49
1999.5	370.358
1999.65	372.383
1999.8	369.853
1999.94	370.829
2000.09	367.766
2000.23	368.335
2000.38	370.937
2000.53	369.862
2000.67	370.675
2000.82	371.275
2000.96	374.328
2001.11	370.616
2001.26	373.264
2001.4	370.567
2001.55	369.414
2001.69	366.329
2001.84	372.952
2001.99	375.451
2002.13	365.638
2002.28	368.825
2002.42	369.728
2002.57	369.394
2002.71	368.188
2002.86	373.403
2003.01	372.101
2003.15	372.386
2003.3	372.578
2003.44	380.678
2003.59	371.187
2003.74	370.412
2003.88	373.487
2004.03	369.943
2004.17	374.408
2004.32	373.309
2004.47	385.36
2004.61	368.424
2004.76	369.347
2004.9	369.421
2005.05	374.356
2005.19	371.683
2005.34	371.668
2005.49	373.024
2005.63	370.79
2005.78	371.599
2005.92	367.611
2006.07	370.417
2006.21	369.556
2006.36	367.7
2006.51	368.267
2006.65	376.637
2006.8	372.168
2006.94	373.342
2007.09	368.968
2007.23	367.742
2007.38	369.613
2007.52	370.184
2007.67	367.681
2007.82	369.833
2007.96	371.719
2008.11	368.277
2008.25	366.564
2008.4	369.963
2008.54	368.461
2008.69	368.202
2008.84	371.123
2008.98	376.671
2009.13	368.689
2009.27	367.457
2009.42	365.624
2009.56	367.521
2009.71	371.605
2009.85	369.915
2010	374.479
2010.15	372.827
2010.29	369.833
2010.44	368.115
2010.58	370.364
2010.73	369.277
2010.87	367.604
2011.02	369.66
2011.16	371.588
2011.31	371.059
2011.46	370.195
2011.6	371.12
2011.75	367.65
2011.89	368.101
2012.04	369.007
2012.18	372.648
2012.33	372.129
2012.47	383.157
2012.62	370.67
2012.77	375.416
2012.91	377.863
2013.06	367.714
2013.2	366.703
2013.35	372.44
2013.49	372.435
2013.64	369.446
2013.78	371.045
2013.93	369.578
2014.07	369.735
2014.22	374.05
2014.36	378.918
2014.51	372.18
2014.65	370.634
2014.8	373.31
2014.95	374.703
2015.09	370.493
2015.24	368.853
2015.38	372.76
2015.53	374.109
2015.67	371.992
2015.82	375.995
2015.96	375.637
2016.11	373.507
2016.25	369.783
2016.4	371.834
2016.54	371.703
2016.69	375.233
2016.83	374.196
2016.98	371.968
2017.13	374.36
2017.27	371.354
2017.42	369.737
2017.56	368.147
2017.71	371.131
2017.85	372.52
2018	369.852
2018.14	366.801
2018.29	368.603
2018.43	369.049
2018.58	374.041
2018.72	369.677
2018.87	370.78
2019.01	366.882
2019.16	379.389
2019.3	374.388
2019.45	365.817
2019.59	369.922
2019.74	371.097
2019.88	372.088
2020.03	369.025
2020.17	375.235
2020.32	371.019
2020.46	370.821
2020.61	371.075
2020.75	368.157
2020.9	368.061
2021.05	368.914
2021.19	374.239
2021.34	369.821
2021.48	372.97
2021.63	370.537
2021.77	372.659
2021.92	372.952
2022.06	369.868
2022.21	367.318
2022.35	372.861
2022.5	369.226
2022.64	370.059
2022.79	373.297
2022.93	371.042
2023.08	368.208
2023.22	367.81
2023.37	373.322
2023.51	372.175
2023.66	369.602
2023.8	371.102
2023.95	371.03
2024.09	380.138
2024.24	370.968
2024.38	372.069
2024.53	374.947
2024.67	377.663
2024.81	373.557
2024.96	371.961
2025.11	371.669
2025.25	373.216
2025.4	373.221
2025.54	368.929
2025.68	372.728
2025.83	369.43
2025.97	372.458
2026.12	371.944
2026.26	374.493
2026.41	371.128
2026.55	367.345
2026.7	378.545
2026.84	371.92
2026.99	374.749
2027.13	372.576
2027.28	367.206
2027.42	373.73
2027.57	375.415
2027.71	367.795
2027.86	372.027
2028	372.731
2028.15	372.965
2028.29	373.025
2028.44	372.5
2028.58	375.001
2028.73	376.31
2028.87	369.136
2029.02	372.384
2029.16	369.565
2029.31	368.476
2029.45	367.247
2029.6	373.694
2029.74	370.098
2029.88	371.856
2030.03	371.891
2030.17	369.915
2030.32	372.96
2030.46	366.679
2030.61	373.893
2030.75	371.787
2030.9	370.204
2031.04	370.094
2031.19	372.621
2031.33	372.354
2031.48	373.843
2031.62	371.136
2031.76	373.336
2031.91	371.795
2032.05	371.847
2032.2	371.726
2032.34	370.153
2032.49	372.287
2032.63	372.667
2032.78	372.815
2032.92	370.82
2033.07	376.225
2033.21	369.923
2033.36	374.033
2033.5	373.06
2033.64	378.869
2033.79	372.594
2033.93	373.441
2034.08	372.995
2034.22	371.709
2034.37	369.979
2034.51	372.44
2034.66	371.107
2034.8	372.634
2034.95	371.609
2035.09	371.761
2035.23	375.565
2035.38	373.296
2035.52	373.69
2035.67	372.493
2035.81	374.509
2035.96	374.573
2036.1	376.036
2036.25	374.213
2036.39	373.936
2036.53	375.141
2036.68	371.587
2036.82	369.416
2036.97	371.459
2037.11	372.748
2037.26	373.762
2037.4	370.967
2037.55	376.471
2037.69	372.989
2037.83	374.069
2037.98	375.087
2038.12	375.227
2038.27	375.514
2038.41	374.302
2038.56	375.931
2038.7	377.522
2038.85	373.625
2038.99	374.643
2039.13	374.334
2039.28	372.117
2039.42	372.386
2039.57	375.076
2039.71	372.285
2039.85	375.713
2040	368.518
2040.14	372.185
2040.29	371.079
2040.43	375.925
2040.58	375.813
2040.72	372.514
2040.87	375.225
2041.01	371.515
2041.15	371.514
2041.3	371.081
2041.44	369.471
2041.59	370.383
2041.73	375.591
2041.87	375.073
2042.02	371.71
2042.16	375.642
2042.31	379.529
2042.45	373.447
2042.6	372.952
2042.74	372.144
2042.88	374.01
2043.03	374.898
2043.17	368.883
2043.32	371.777
2043.46	379.716
2043.6	373.463
2043.75	374.725
2043.89	374.49
2044.04	375.843
2044.18	376.813
2044.33	372.981
2044.47	371.066
2044.61	373.906
2044.76	391.171
2044.9	372.696
2045.05	375.492
2045.19	379.561
2045.33	372.614
2045.48	375.385
2045.62	369.128
2045.77	378.613
2045.91	374.423
2046.05	373.78
2046.2	370.91
2046.34	374.557
2046.49	374.332
2046.63	372.192
2046.77	373.322
2046.92	373.92
2047.06	372.883
2047.21	376.329
2047.35	372.13
2047.49	376.338
2047.64	372.56
2047.78	373.09
2047.93	371.943
2048.07	376.033
2048.21	379.874
2048.36	372.477
2048.5	371.785
2048.65	374.628
2048.79	372.392
2048.93	371.796
2049.08	378.005
2049.22	376.249
2049.36	371.236
2049.51	382.842
2049.65	374.068
2049.8	375.167
2049.94	373.854
2050.09	372.561
2050.23	376.298
2050.37	376.356
2050.52	377.804
2050.66	380.296
2050.8	374.218
2050.95	376.681
2051.09	374.565
2051.24	374.741
2051.38	376.396
2051.52	373.827
2051.67	372.624
2051.81	381.314
2051.95	378.304
2052.1	373.762
2052.24	370.688
2052.39	378.913
2052.53	370.563
2052.67	374.848
2052.82	379.224
2052.96	374.772
2053.1	377.01
2053.25	382.189
2053.39	374.341
2053.54	377.535
2053.68	374.003
2053.82	372.135
2053.97	372.253
2054.11	375.587
2054.25	374.735
2054.4	378.355
2054.54	378.102
2054.69	377.807
2054.83	375.162
2054.97	376.275
2055.12	375.022
2055.26	377.716
2055.4	376.862
2055.55	376.115
2055.69	374.256
2055.83	380.328
2055.98	375.535
2056.12	379.848
2056.26	375.182
2056.41	376.716
2056.55	375.404
2056.7	378.651
2056.84	371.944
2056.98	372.917
2057.13	374.409
2057.27	376.354
2057.41	375.645
2057.56	380.275
2057.7	380.522
2057.84	378.403
2057.99	381.259
2058.13	372.882
2058.28	375.57
2058.42	381.539
2058.56	377.361
2058.71	376.166
2058.85	375.178
2058.99	377.522
2059.14	374.974
2059.28	374.471
2059.42	374.615
2059.57	376.204
2059.71	375.869
2059.85	375.302
2060	376.643
2060.14	377.683
2060.28	376.663
2060.43	378.323
2060.57	379.195
2060.71	376.816
2060.86	377.551
2061	377.205
2061.14	380.791
2061.29	381.243
2061.43	375.259
2061.57	377.469
2061.72	373.444
2061.86	376.927
2062	377.047
2062.15	376.235
2062.29	377.612
2062.43	377.362
2062.58	380.104
2062.72	377.765
2062.86	376.304
2063.01	379.433
2063.15	376.107
2063.3	372.645
2063.44	375.657
2063.58	371.028
2063.72	378.699
2063.87	378.44
2064.01	378.328
2064.15	376.195
2064.3	375.503
2064.44	374.518
2064.58	376.494
2064.73	372.56
2064.87	380.54
2065.01	380.684
2065.16	376.161
2065.3	378.471
2065.44	373.434
2065.59	379.22
2065.73	380.416
2065.87	378.816
2066.02	380.895
2066.16	379.648
2066.3	378.524
2066.45	380.305
2066.59	376.298
2066.73	378.556
2066.88	376.262
2067.02	380.706
2067.16	381.873
2067.3	377.5
2067.45	379.395
2067.59	376.838
2067.73	373.186
2067.88	376.876
2068.02	374.149
2068.16	378.44
2068.31	376.073
2068.45	381.803
2068.59	374.779
2068.74	376.029
2068.88	377.669
2069.02	376.083
2069.16	373.455
2069.31	376.134
2069.45	377.857
2069.59	375.483
2069.74	374.092
2069.88	375.019
2070.02	379.793
2070.17	375.382
2070.31	376.873
2070.45	377.979
2070.6	386.133
2070.74	376.51
2070.88	378.404
2071.02	375.74
2071.17	379.527
2071.31	372.86
2071.45	375.94
2071.6	377.064
2071.74	379.104
2071.88	379.845
2072.02	381.733
2072.17	377.391
2072.31	376.448
2072.45	380.609
2072.6	385.583
2072.74	375.967
2072.88	378.393
2073.02	379.733
2073.17	381.997
2073.31	378.234
2073.45	376.576
2073.6	375.367
2073.74	375.834
2073.88	374.031
2074.02	377.942
2074.17	375.273
2074.31	375.254
2074.45	373.993
2074.6	377.46
2074.74	375.651
2074.88	373.507
2075.02	377.935
2075.17	379.765
2075.31	379.701
2075.45	380.523
2075.6	374.611
2075.74	376.922
2075.88	378.616
2076.02	378.893
2076.17	381.84
2076.31	378.375
2076.45	379.906
2076.6	376.833
2076.74	376.452
2076.88	377.838
2077.02	376.326
2077.17	377.282
2077.31	376.41
2077.45	376.547
2077.59	376.632
2077.74	375.696
2077.88	379.286
2078.02	377.745
2078.17	379.042
2078.31	379.657
2078.45	376.145
2078.59	380.78
2078.74	375.958
2078.88	381.559
2079.02	382.374
2079.16	378.173
2079.31	378.496
2079.45	377.132
2079.59	378.413
2079.73	377.827
2079.88	379.182
2080.02	378.983
2080.16	380.771
2080.3	378.052
2080.45	378.083
2080.59	378.42
2080.73	380.659
2080.87	376.302
2081.02	377.056
2081.16	381.974
2081.3	382.069
2081.44	377.621
2081.59	380.167
2081.73	382.778
2081.87	376.768
2082.01	375.59
2082.16	382.912
2082.3	378.706
2082.44	382.442
2082.58	382.992
2082.73	384.156
2082.87	378.432
2083.01	380.387
2083.15	375.82
2083.3	378.327
2083.44	379.503
2083.58	379.993
2083.72	382.712
2083.87	375.261
2084.01	381.622
2084.15	384.477
2084.29	379.359
2084.44	381.92
2084.58	380.142
2084.72	377.164
2084.86	380.529
2085.01	379.231
2085.15	379.18
2085.29	380.77
2085.43	379.002
2085.58	379.308
2085.72	382.018
2085.86	382.251
2086	379.35
2086.15	382.748
2086.29	382.114
2086.43	378.803
2086.57	383.671
2086.71	377.828
2086.86	384.452
2087	382.387
2087.14	379.925
2087.28	383.106
2087.43	383.992
2087.57	380.732
2087.71	382.493
2087.85	378.096
2087.99	384.077
2088.14	380.576
2088.28	388.097
2088.42	380.623
2088.56	377.365
2088.71	381.329
2088.85	381.011
2088.99	379.1
2089.13	380.6
2089.27	382.47
2089.42	384.456
2089.56	382.728
2089.7	376.433
2089.84	373.744
2089.99	380.967
2090.13	382.075
2090.27	380.946
2090.41	387.879
2090.55	378.9
2090.7	382.097
2090.84	381.782
2090.98	379.563
2091.12	379.868
2091.26	381.503
2091.41	381.943
2091.55	382.868
2091.69	381.668
2091.83	381.343
2091.98	380.82
2092.12	377.76
2092.26	378.769
2092.4	384.327
2092.54	379.56
2092.69	381.42
2092.83	386.419
2092.97	383.264
2093.11	379.614
2093.25	380.357
2093.4	378.673
2093.54	382.938
2093.68	379.631
2093.82	380.868
2093.96	385.384
2094.11	382.236
2094.25	384.832
2094.39	379.207
2094.53	379.769
2094.67	380.321
2094.82	384.299
2094.96	383.765
2095.1	384.768
2095.24	382.491
2095.38	382.109
2095.53	380.829
2095.67	387.025
2095.81	384.831
2095.95	384.296
2096.09	383.258
2096.24	384.816
2096.38	384.521
2096.52	379.887
2096.66	380.334
2096.8	383.367
2096.95	384.256
2097.09	384.371
2097.23	381.712
2097.37	381.364
2097.51	382.852
2097.65	376.977
2097.8	380.258
2097.94	384.563
2098.08	387.353
2098.22	383.899
2098.36	383.127
2098.5	384.733
2098.65	386.494
2098.79	391.563
2098.93	382.847
2099.07	382.878
2099.21	381.656
2099.36	382.647
2099.5	386.734
2099.64	387.683
2099.78	383.498
2099.92	379.618
2100.06	384.399
2100.21	385.086
2100.35	380.828
2100.49	386.754
2100.63	379.637
2100.77	407.001
2100.91	381.684
2101.06	385.615
2101.2	379.871
2101.34	382.744
2101.48	379.918
2101.62	382.243
2101.76	379.433
2101.91	380.397
2102.05	383.285
2102.19	382.874
2102.33	388.942
2102.47	385.231
2102.61	382.614
2102.76	381.575
2102.9	386.92
2103.04	386.715
2103.18	383.581
2103.32	383.376
2103.46	386.576
2103.61	381.598
2103.75	384.202
2103.89	382.064
2104.03	383.188
2104.17	386.752
2104.31	385.246
2104.45	385.009
2104.6	385.084
2104.74	386.5
2104.88	379.448
2105.02	382.107
2105.16	382.105
2105.3	384.53
2105.45	390.133
2105.59	391.587
2105.73	384.544
2105.87	388.186
2106.01	389.153
2106.15	384.846
2106.3	382.56
2106.44	383.685
2106.58	379.645
2106.72	386.018
2106.86	389.103
2107	384.833
2107.14	381.151
2107.28	385.588
2107.43	381.284
2107.57	383.857
2107.71	386.133
2107.85	388.922
2107.99	380.516
2108.13	385.414
2108.27	378.316
2108.42	383.164
2108.56	381.812
2108.7	386.951
2108.84	384.064
2108.98	393.828
2109.12	381.991
2109.26	385.442
2109.41	388.466
2109.55	382.648
2109.69	384.984
2109.83	386.221
2109.97	384.145
2110.11	385.146
2110.25	386.248
2110.39	384.603
2110.54	386.775
2110.68	389.882
2110.82	380.995
2110.96	391.427
2111.1	388.314
2111.24	389.234
2111.38	386.913
2111.52	388.292
2111.67	385.43
2111.81	383.641
2111.95	384.036
2112.09	386.565
2112.23	387.819
2112.37	389.143
2112.51	388.688
2112.65	396.187
2112.8	388.607
2112.94	387.424
2113.08	389.266
2113.22	388.18
2113.36	386.277
2113.5	387.904
2113.64	386.952
2113.78	382.477
2113.93	387.038
2114.07	384.417
2114.21	382.171
2114.35	383.679
2114.49	382.259
2114.63	381.005
2114.77	387.042
2114.91	386.882
2115.05	379.212
2115.2	387.999
2115.34	387.05
2115.48	384.981
2115.62	383.575
2115.76	387.568
2115.9	385.698
2116.04	383.543
2116.18	383.07
2116.32	386.103
2116.46	387.197
2116.61	384.054
2116.75	389.359
2116.89	389.353
2117.03	383.107
2117.17	391.334
2117.31	387.783
2117.45	387.198
2117.59	386.482
2117.73	387.801
2117.87	387.725
2118.02	391.923
2118.16	394.287
2118.3	386.884
2118.44	391.219
2118.58	388.2
2118.72	391.543
2118.86	386.074
2119	384.644
2119.14	388.629
2119.28	391.082
2119.43	389.455
2119.57	387.63
2119.71	387.366
2119.85	384.479
2119.99	384.59
2120.13	394.373
2120.27	390.197
2120.41	386.904
2120.55	385.083
2120.69	389.845
2120.83	386.657
2120.98	391.772
2121.12	390.918
2121.26	389.708
2121.4	388.414
2121.54	389.021
2121.68	389.665
2121.82	387.436
2121.96	388.634
2122.1	386.629
2122.24	390.066
2122.38	390.109
2122.52	386.757
2122.66	386.551
2122.81	383.564
2122.95	388.499
2123.09	387.682
2123.23	390.412
2123.37	389.557
2123.51	383.178
2123.65	386.116
2123.79	388.867
2123.93	386.435
2124.07	386.635
2124.21	386.766
2124.35	386.355
2124.49	389.204
2124.64	385.888
2124.78	386.67
2124.92	392.689
2125.06	386.024
2125.2	389.095
2125.34	387.253
2125.48	386.877
2125.62	393.22
2125.76	386.515
2125.9	387.238
2126.04	386.109
2126.18	386.801
2126.32	387.053
2126.46	388.932
2126.6	389.49
2126.74	388.79
2126.88	389.409
2127.02	389.014
2127.17	388.154
2127.31	386.106
2127.45	395.502
2127.59	389.696
2127.73	390.512
2127.87	386.617
2128.01	389.389
2128.15	388.29
2128.29	386.284
2128.43	394.544
2128.57	389.154
2128.71	389.07
2128.85	396.089
2128.99	389.96
2129.13	388.023
2129.27	391.683
2129.41	391.957
2129.56	394.714
2129.7	391.805
2129.84	394.517
2129.98	392.385
2130.12	388.69
2130.26	388.836
2130.4	387.792
2130.54	387.049
2130.68	390.169
2130.82	388.155
2130.96	394.409
2131.1	391.006
2131.24	395.3
2131.38	387.626
2131.52	399.704
2131.66	391.108
2131.8	387.467
2131.94	391.916
2132.08	390.985
2132.22	389.956
2132.36	393.192
2132.5	388.766
2132.64	397.536
2132.78	389.45
2132.92	396.402
2133.06	387.944
2133.21	390.179
2133.35	394.356
2133.49	390.696
2133.63	390.601
2133.77	385.668
2133.91	388.382
2134.05	389.983
2134.19	393.422
2134.33	388.129
2134.47	393.159
2134.61	391.179
2134.75	388.708
2134.89	388.244
2135.03	391.77
2135.17	396.621
2135.31	388.202
2135.45	388.536
2135.59	391.044
2135.73	389.812
2135.87	392.696
2136.01	387.941
2136.15	390.637
2136.29	390.731
2136.43	393.325
2136.57	392.077
2136.71	396.569
2136.85	393.97
2136.99	391.581
2137.13	393.986
2137.27	390.217
2137.41	389.024
2137.55	388.208
2137.69	391.228
2137.83	391.559
2137.97	393.891
2138.11	394.488
2138.25	391.64
2138.39	392.098
2138.53	389.893
2138.67	391.382
2138.81	394.102
2138.95	391.666
2139.09	393.152
2139.23	393.631
2139.37	393.515
2139.51	391.468
2139.65	392.076
2139.79	391.372
2139.93	390.284
2140.07	390.54
2140.21	393.389
2140.35	394.152
2140.49	391.816
2140.63	391.016
2140.77	390.989
2140.91	392.755
2141.05	394.324
2141.19	392.873
2141.33	391.99
2141.47	391.954
2141.61	393.243
2141.75	392.096
2141.89	391.846
2142.03	391.739
2142.17	392.036
2142.31	393.236
2142.45	392.577
2142.59	393.075
2142.73	391.238
2142.87	390.673
2143.01	390.973
2143.15	392.369
2143.29	391.821
2143.43	392.904
2143.57	393.768
2143.71	394.607
2143.85	390.449
2143.99	394.606
2144.13	391.462
2144.27	390.542
2144.41	392.691
2144.55	390.89
2144.69	393.219
2144.83	392.949
2144.97	392.218
2145.11	396.688
2145.25	391.465
2145.39	393.125
2145.53	392.42
2145.67	394.642
2145.81	393.542
2145.95	393.283
2146.09	394.609
2146.23	391.224
2146.37	392.703
2146.51	392.878
2146.65	391.507
2146.79	396.106
2146.93	395.997
2147.07	394.098
2147.21	394.547
2147.35	394.331
2147.49	392.016
2147.63	392.517
2147.76	395.322
2147.9	396.041
2148.04	394.662
2148.18	392.946
2148.32	393.606
2148.46	393.386
2148.52	392.834
2148.66	392.838
2148.8	393.695
2148.94	397.193
2149.09	391.018
2149.23	395.362
2149.37	395.665
2149.51	396.961
2149.65	397.53
2149.8	391.443
2149.94	393.4
2150.08	392.06
2150.22	396.146
2150.36	394.641
2150.51	397.653
2150.65	394.309
2150.79	394.456
2150.93	394.364
2151.07	395.645
2151.22	392.641
2151.36	396.203
2151.5	388.343
2151.64	401.416
2151.78	399.151
2151.93	393.011
2152.07	396.271
2152.21	394.732
2152.35	398.307
2152.5	394.852
2152.64	388.812
2152.78	393.233
2152.92	395.826
2153.06	396.369
2153.21	398.942
2153.35	392.223
2153.49	391.214
2153.63	391.016
2153.77	394.12
2153.91	391.497
2154.06	398.251
2154.2	392.173
2154.34	393.063
2154.48	399.742
2154.62	393.488
2154.77	390.357
2154.91	390.592
2155.05	392.411
2155.19	392.372
2155.33	394.665
2155.48	395.313
2155.62	394.36
2155.76	395.914
2155.9	393.023
2156.04	392.353
2156.19	395.146
2156.33	395.49
2156.47	397.327
2156.61	394.675
2156.75	395.494
2156.89	393.697
2157.04	394.518
2157.18	395.419
2157.32	393.356
2157.46	391.185
2157.6	398.435
2157.74	409.944
2157.89	400.161
2158.03	394.71
2158.17	393.065
2158.31	392.64
2158.45	393.438
2158.59	388.518
2158.74	389.687
2158.88	393.14
2159.02	394.473
2159.16	396.641
2159.3	392.675
2159.45	394.338
2159.59	394.736
2159.73	394.714
2159.87	397.341
2160.01	394.506
2160.15	391.57
2160.3	392.756
2160.44	392.224
2160.58	394.932
2160.72	394.323
2160.86	396.396
2161	394.176
2161.15	392.632
2161.29	398.076
2161.43	396.158
2161.57	395.039
2161.71	391.241
2161.85	395.453
2161.99	393.389
2162.14	399.679
2162.28	394.022
2162.42	400.657
2162.56	398.079
2162.7	396.358
2162.84	395.564
2162.99	392.691
2163.13	395.874
2163.27	393.82
2163.41	395.633
2163.55	392.766
2163.69	393.079
2163.84	395.617
2163.98	397.019
2164.12	393.27
2164.26	395.063
2164.4	394.937
2164.54	397.479
2164.68	396.205
2164.83	396.825
2164.97	393.337
2165.11	396.199
2165.25	397.345
2165.39	398.697
2165.53	397.829
2165.68	396.489
2165.82	394.977
2165.96	397.52
2166.1	397.452
2166.24	397.442
2166.38	397.126
2166.52	391.735
2166.66	395.823
2166.81	395.983
2166.95	394.56
2167.09	397.246
2167.23	394.241
2167.37	396.784
2167.51	391.462
2167.65	392.503
2167.8	391.713
2167.94	399.007
2168.08	397.873
2168.22	395.217
2168.36	396.279
2168.5	393.093
2168.64	396.854
2168.78	392.892
2168.93	398.577
2169.07	396.413
2169.21	397.173
2169.35	400.02
2169.49	399.329
2169.63	393.18
2169.77	391.735
2169.91	391.293
2170.06	396.298
2170.2	395.201
2170.34	392.565
2170.48	395.138
2170.62	396.182
2170.76	396.165
2170.9	396.994
2171.04	397.083
2171.19	392.541
2171.33	398.973
2171.47	396.829
2171.61	395.744
2171.75	392.765
2171.89	391.757
2172.03	392.009
2172.17	394.868
2172.32	400.339
2172.46	398.564
2172.6	392.999
2172.74	396.54
2172.88	391.881
2173.02	393.168
2173.16	395.511
2173.3	392.666
2173.45	398.445
2173.59	394.849
2173.73	394.044
2173.87	398.017
2174.01	393.853
2174.15	395.898
2174.29	398.275
2174.43	396.359
2174.57	395.165
2174.72	393.732
2174.86	399.02
2175	398.723
2175.14	395.409
2175.28	392.168
2175.42	393.09
2175.56	393.022
2175.7	398.874
2175.84	397.581
2175.98	400.086
2176.13	393.862
2176.27	399.022
2176.41	396.249
2176.55	395.88
2176.69	391.847
2176.83	391.549
2176.97	391.352
2177.11	397.112
2177.25	393.235
2177.39	397.345
2177.53	390.912
2177.68	394.251
2177.82	394.028
2177.96	392.449
2178.1	394.211
2178.24	400.79
2178.38	400.071
2178.52	395.666
2178.66	396.284
2178.8	395.261
2178.94	394.264
2179.08	399.742
2179.23	393.372
2179.37	398.642
2179.51	395.179
2179.65	396.222
2179.79	392.256
2179.93	394.823
2180.07	396.95
2180.21	393.62
2180.35	392.55
2180.49	396.607
2180.63	398.09
2180.78	395.076
2180.92	394.003
2181.06	395.865
2181.2	394.698
2181.34	394.009
2181.48	396.779
2181.62	397.426
2181.76	402.264
2181.9	400.766
2182.04	399.688
2182.18	391.849
2182.32	401.546
2182.46	392.255
2182.61	391.596
2182.75	391.387
2182.89	396.777
2183.03	396.056
2183.17	394.661
2183.31	394.882
2183.45	397.948
2183.59	392.967
2183.73	391.369
2183.87	395.84
2184.01	396.909
2184.15	397.061
2184.29	395.498
2184.43	391.406
2184.57	395.786
2184.72	396.257
2184.86	395.208
2185	399.378
2185.14	393.668
2185.28	394.019
2185.42	395.978
2185.56	395.844
2185.7	392.517
2185.84	392.325
2185.98	398.893
2186.12	396.933
2186.26	396.563
2186.4	391.468
2186.54	397.481
2186.68	397.191
2186.82	398.803
2186.96	394.776
2187.1	395.151
2187.25	397.766
2187.39	394.386
2187.53	399.46
2187.67	399.247
2187.81	392.426
2187.95	393.342
2188.09	396.06
2188.23	390.949
2188.37	393.731
2188.51	393.967
2188.65	397.965
2188.79	396.017
2188.93	395.804
2189.07	396.341
2189.21	396.674
2189.35	393.845
2189.49	393.724
2189.63	397.647
2189.77	398.799
2189.92	392.329
2190.06	393.9
2190.2	397.027
2190.34	407.576
2190.48	392.857
2190.62	397.596
2190.76	398.263
2190.9	399.837
2191.04	395.527
2191.18	391.155
2191.32	397.025
2191.46	397.745
2191.6	397.772
2191.74	393.209
2191.88	393.431
2192.02	395.96
2192.16	391.977
2192.3	392.094
2192.44	396.495
2192.58	393.577
2192.72	400.523
2192.86	399.062
2193	398.404
2193.14	394.769
2193.28	398.452
2193.42	394.01
2193.56	394.452
2193.7	393.86
2193.84	397.516
2193.98	395.674
2194.13	396.993
2194.27	392.431
2194.41	396.217
2194.55	394.658
2194.69	395.796
2194.83	394.12
2194.97	393.353
2195.11	393.955
2195.25	393.06
2195.39	393.323
2195.53	393.725
2195.67	395.505
2195.81	398.219
2195.95	395.148
2196.09	397.997
2196.23	398.263
2196.37	396.306
2196.51	391.719
2196.65	400.317
2196.79	399.952
2196.93	394.6
2197.07	395.483
2197.21	395.768
2197.35	392.729
2197.49	394.754
2197.63	393.757
2197.77	392.987
2197.91	394.811
2198.05	400.905
2198.19	392.597
2198.33	393.896
2198.47	395.407
2198.61	401.088
2198.75	395.819
2198.89	392.784
2199.03	397.215
2199.17	402.345
2199.31	396.477
2199.45	395.056
2199.59	396.851
2199.73	394.701
2199.87	391.787
2200.01	391.934
2200.15	396.569
2200.29	395.372
2200.43	392.262
2200.57	394.944
2200.71	397.947
2200.85	393.771
2200.99	394.533
2201.13	396.234
2201.27	397.83
2201.41	392.548
2201.55	397.614
2201.69	396.065
2201.83	399.187
2201.97	395.624
2202.11	392.956
2202.25	392.798
2202.39	395.42
2202.53	391.235
2202.67	396.353
2202.81	398.553
2202.95	397.866
2203.09	392.967
2203.23	393.605
2203.37	393.633
2203.51	400.915
2203.65	398.323
2203.79	394.311
2203.93	398.797
2204.07	395.803
2204.21	398.564
2204.35	398.502
2204.49	397.178
2204.63	397.123
2204.77	396.437
2204.91	397.414
2205.05	393.945
2205.19	395.762
2205.33	392.112
2205.47	402.434
2205.61	401.358
2205.75	396.075
2205.89	391.147
2206.02	402.379
2206.16	395.637
2206.3	403.696
2206.44	398.618
2206.58	394.364
2206.72	397.267
2206.86	398.477
2207	397.27
2207.14	398.682
2207.28	393.359
2207.42	397.352
2207.56	399.439
2207.7	393.552
2207.84	393.979
2207.98	397.264
2208.12	405.571
2208.26	397.45
2208.4	395.774
2208.54	397.497
2208.68	395.142
2208.82	395.408
2208.96	395.23
2209.1	395.731
2209.24	394.668
2209.38	399.049
2209.52	396.555
2209.66	396.291
2209.8	394.728
2209.94	399.138
2210.08	396.258
2210.22	392.966
2210.35	398.094
2210.49	400.059
2210.63	396.822
2210.77	396.784
2210.91	399.17
2211.05	400.427
2211.19	401.09
2211.33	395.157
2211.47	399.037
2211.61	399.553
2211.75	399.449
2211.89	399.455
2212.03	392.03
2212.17	396.926
2212.31	395.598
2212.45	395.575
2212.59	399.845
2212.73	398.155
2212.87	398.822
2213.01	400.946
2213.15	397.613
2213.28	393.474
2213.42	397.674
2213.56	394.629
2213.7	398.731
2213.84	399.796
2213.98	394.37
2214.12	396.953
2214.26	396.945
2214.4	400.67
2214.54	395.021
2214.68	394.107
2214.82	404.087
2214.96	400.92
2215.1	395.484
2215.24	395.422
2215.38	401.69
2215.52	397.227
2215.65	396.971
2215.79	397.528
2215.93	402.357
2216.07	401.548
2216.21	399.556
2216.35	394.813
2216.49	408.478
2216.63	395.37
2216.77	401.932
2216.91	398.198
2217.05	395.384
2217.19	402.042
2217.33	398.066
2217.47	405.014
2217.6	402.38
2217.74	399.865
2217.88	397.62
2218.02	397.854
2218.16	394.614
2218.3	398.684
2218.44	395.277
2218.58	402.073
2218.72	400.893
2218.86	402.385
2219	399.223
2219.14	395.191
2219.28	399.533
2219.41	397.683
2219.55	395.955
2219.69	397.264
2219.83	397.475
2219.97	396.384
2220.11	396.75
2220.25	398.242
2220.39	399.445
2220.53	397.347
2220.67	398.766
2220.81	403.579
2220.95	401.482
2221.08	400.161
2221.22	401.671
2221.36	402.131
2221.5	403.11
2221.64	402.045
2221.78	394.969
2221.92	399.46
2222.06	397.981
2222.2	400.55
2222.34	398.834
2222.48	399.082
2222.61	399.289
2222.75	398.76
2222.89	397.035
2223.03	396.831
2223.17	399.081
2223.31	400.803
2223.45	400.398
2223.59	404.105
2223.73	398.189
2223.87	399.725
2224	398.193
2224.14	399.148
2224.28	399.049
2224.42	399.389
2224.56	394.482
2224.7	394.955
2224.84	399.864
2224.98	398.45
2225.12	405.2
2225.26	402.32
2225.39	397.066
2225.53	404.64
2225.67	402.459
2225.81	402.482
2225.95	396.894
2226.09	396.138
2226.23	401.69
2226.37	397.974
2226.51	402.427
2226.64	397.362
2226.78	398.253
2226.92	397.729
2227.06	399.339
2227.2	399.578
2227.34	399.114
2227.48	405.094
2227.62	399.171
2227.76	403.29
2227.89	402.092
2228.03	401.253
2228.17	397.117
2228.31	401.564
2228.45	403.404
2228.59	404.473
2228.73	398.693
2228.87	402.408
2229	399.062
2229.14	403.043
2229.28	403.136
2229.42	399.015
2229.56	399.754
2229.7	398.365
2229.84	396.828
2229.98	401.088
2230.11	399.663
2230.25	401.797
2230.39	406.632
2230.53	399.613
2230.67	402.352
2230.81	400.271
2230.95	403.762
2231.09	401.37
2231.22	403.163
2231.36	398.009
2231.5	399.752
2231.64	403.571
2231.78	405.936
2231.92	403.418
2232.06	403.651
2232.2	397.985
2232.33	399.32
2232.47	404.865
2232.61	398.364
2232.75	402.732
2232.89	405.668
2233.03	403.644
2233.17	400.221
2233.3	399.171
2233.44	399.707
2233.58	402.216
2233.72	402.407
2233.86	402.93
2234	408.33
2234.14	399.575
2234.27	405.886
2234.41	401.205
2234.55	404.319
2234.69	401.894
2234.83	402.942
2234.97	401.376
2235.11	398.671
2235.24	401.268
2235.38	401.031
2235.52	400.7
2235.66	398.104
2235.8	398.436
2235.94	405.415
2236.08	400.134
2236.21	411.4
2236.35	401.718
2236.49	402.955
2236.63	400.104
2236.77	401.854
2236.91	403.528
2237.04	403.225
2237.18	403.217
2237.32	403.002
2237.46	408.196
2237.6	398.786
2237.74	398.885
2237.88	402.903
2238.01	404.335
2238.15	404.018
2238.29	405.174
2238.43	401.505
2238.57	403.087
2238.71	405.381
2238.84	404.857
2238.98	402.114
2239.12	404.255
2239.26	406.823
2239.4	404.066
2239.53	407.618
2239.67	403.437
2239.81	402.424
2239.95	410.596
2240.09	402.135
2240.23	403.428
2240.37	403.801
2240.5	402.926
2240.64	401.635
2240.78	408.669
2240.92	403.602
2241.06	405.926
2241.2	405.85
2241.33	400.405
2241.47	407.127
2241.61	406.429
2241.75	406.23
2241.89	406.322
2242.02	402.281
2242.16	405.852
2242.3	400.93
2242.44	406.005
2242.58	398.335
2242.72	405.645
2242.85	403.536
2242.99	403.921
2243.13	403.933
2243.27	404.318
2243.41	405.425
2243.54	403.838
2243.68	404.181
2243.82	402.859
2243.96	402.817
2244.1	408.827
2244.24	407.63
2244.37	402.055
2244.51	401.148
2244.65	407.508
2244.79	402.761
2244.93	405.945
2245.06	400.03
2245.2	405.838
2245.34	401.972
2245.48	400.869
2245.62	411.684
2245.76	407.438
2245.89	409.311
2246.03	405.127
2246.17	404.29
2246.31	405.744
2246.45	410.272
2246.58	409.122
2246.72	407.824
2246.86	408.988
2247	402.471
2247.13	405.717
2247.27	405.603
2247.41	407.391
2247.55	405.351
2247.69	404.788
2247.83	404.458
2247.96	402.872
2248.1	410.112
2248.24	403.554
2248.38	405.329
2248.52	405.427
2248.65	405.351
2248.79	404.825
2248.93	406.457
2249.07	407.475
2249.21	409.201
2249.34	407.971
2249.48	409.468
2249.62	405.031
2249.76	409.628
2249.89	409.18
2250.03	409.779
2250.17	407.895
2250.31	411.253
2250.45	404.594
2250.58	406.536
2250.72	399.798
2250.86	409.508
2251	411.503
2251.14	410.126
2251.27	404.326
2251.41	408.783
2251.55	405.783
2251.69	410.439
2251.82	404.596
2251.96	404.547
2252.1	407.293
2252.24	407.89
2252.38	410.577
2252.51	407.369
2252.65	406.354
2252.79	412.123
2252.93	408.095
2253.06	404.217
2253.2	410.929
2253.34	404.106
2253.48	409.418
2253.62	404.848
2253.75	405.092
2253.89	404.803
2254.03	409.601
2254.17	407.606
2254.3	407.846
2254.44	404.219
2254.58	405.929
2254.72	405.403
2254.86	408.183
2254.99	408.336
2255.13	407.106
2255.27	407.729
2255.41	408.785
2255.54	403.811
2255.68	407.203
2255.82	406.397
2255.96	436.324
2256.09	406.121
2256.23	410.476
2256.37	406.46
2256.51	410.818
2256.65	407.011
2256.78	407.751
2256.92	407.728
2257.06	410.345
2257.2	409.635
2257.33	408.466
2257.47	407.25
2257.61	406.888
2257.75	408.478
2257.88	407.709
2258.02	409.83
2258.16	411.443
2258.3	407.568
2258.43	408.738
2258.57	409.101
2258.71	413.489
2258.85	408.487
2258.98	410.268
2259.12	405.356
2259.26	417.181
2259.4	414.251
2259.53	408.97
2259.67	410.654
2259.81	409.58
2259.95	410.775
2260.08	411.358
2260.22	409.065
2260.36	414.572
2260.5	414.056
2260.63	409.97
2260.77	411.236
2260.91	411.076
2261.05	413.726
2261.18	412.493
2261.32	408.384
2261.46	414.256
2261.6	409.361
2261.73	408.837
2261.87	408.502
2262.01	408.347
2262.14	410.584
2262.28	410.906
2262.42	407.412
2262.56	407.305
2262.69	413.669
2262.83	408.611
2262.97	412.151
2263.11	413.177
2263.24	409.378
2263.38	411.823
2263.52	408.523
2263.66	411.631
2263.79	407.836
2263.93	407.73
2264.07	409.05
2264.2	405.811
2264.34	411.998
2264.48	411.743
2264.62	407.605
2264.75	408.88
2264.89	404.852
2265.03	412.899
2265.17	410.817
2265.3	412.391
2265.44	407.377
2265.58	412.18
2265.72	411.164
2265.85	408.803
2265.99	407.81
2266.13	411.559
2266.26	408.764
2266.4	408.051
2266.54	411.948
2266.68	408.977
2266.81	407.765
2266.95	410.668
2267.09	412.348
2267.22	411.038
2267.36	410.732
2267.5	412.139
2267.64	409.365
2267.77	420.812
2267.91	412.148
2268.05	408.726
2268.18	408.554
2268.32	409.488
2268.46	405.433
2268.6	410.767
2268.73	410.27
2268.87	411.021
2269.01	411.84
2269.14	410.107
2269.28	413.911
2269.42	410.509
2269.56	403.869
2269.69	410.345
2269.83	409.011
2269.97	412.836
2270.1	410.818
2270.24	409.353
2270.38	409.738
2270.51	414.326
2270.65	410.799
2270.79	413.337
2270.93	413.502
2271.06	412.339
2271.2	412.241
2271.34	407.973
2271.47	410.84
2271.61	410.989
2271.75	409.465
2271.88	415.886
2272.02	415.35
2272.16	411.371
2272.3	413.618
2272.43	408.901
2272.57	410.261
2272.71	408.279
2272.84	410.063
2272.98	410.806
2273.12	412.406
2273.25	411.151
2273.39	410.99
2273.53	412.176
2273.66	412.132
2273.8	409.221
2273.94	408.437
2274.08	408.531
2274.21	412.692
2274.35	411.972
2274.49	413.587
2274.62	411.733
2274.76	407.903
2274.9	406.424
2275.03	405.991
2275.17	411.939
2275.31	407.974
2275.44	411.332
2275.58	406.55
2275.72	411.613
2275.85	411.81
2275.99	414.158
2276.13	411.664
2276.26	412.568
2276.4	414.365
2276.54	412.591
2276.67	410.901
2276.81	412.121
2276.95	413.491
2277.09	408.689
2277.22	409.616
2277.36	413.774
2277.5	414.283
2277.63	416.148
2277.77	410.428
2277.91	410.802
2278.04	409.814
2278.18	414.697
2278.32	411.209
2278.45	410.774
2278.59	409.667
2278.73	414.711
2278.86	409.693
2279	410.984
2279.14	410.357
2279.27	411.137
2279.41	416.416
2279.55	412.355
2279.68	413.792
2279.82	408.77
2279.96	415.019
2280.09	416.987
2280.23	415.406
2280.37	412.174
2280.5	416.103
2280.64	428.486
2280.78	410.564
2280.91	413.275
2281.05	412.159
2281.19	410.883
2281.32	410.716
2281.46	417.445
2281.59	408.834
2281.73	413.579
2281.87	413.89
2282	414.082
2282.14	415.631
2282.28	413.283
2282.41	413.345
2282.55	421.151
2282.69	415.162
2282.82	415.079
2282.96	412.551
2283.1	412.502
2283.23	416.653
2283.37	408.701
2283.51	417.329
2283.64	411.518
2283.78	412.35
2283.92	410.075
2284.05	408.69
2284.19	411.96
2284.32	410.311
2284.46	416.399
2284.6	412.977
2284.73	415.833
2284.87	412.035
2285.01	416.278
2285.14	413.42
2285.28	411.612
2285.42	414.437
2285.55	410.244
2285.69	412.8
2285.83	414.782
2285.96	416.027
2286.1	417.845
2286.23	418.837
2286.37	412.446
2286.51	408.986
2286.64	411.965
2286.78	415.321
2286.92	412.769
2287.05	413.006
2287.19	416.619
2287.33	412.855
2287.46	415.776
2287.6	411.864
2287.73	411.263
2287.87	409.458
2288.01	411.492
2288.14	408.23
2288.28	414.126
2288.42	415.377
2288.55	410.694
2288.69	408.52
2288.82	412.837
2288.96	410.123
2289.1	414.271
2289.23	409.242
2289.37	411.438
2289.51	412.684
2289.64	409.517
2289.78	413.086
2289.91	408.784
2290.05	414.102
2290.19	413.12
2290.32	411.272
2290.46	413.332
2290.6	419.742
2290.73	411.941
2290.87	417.731
2291	409.001
2291.14	411.427
2291.28	414.379
2291.41	413.731
2291.55	414.721
2291.68	418.271
2291.82	420.867
2291.96	414.58
2292.09	408.78
2292.23	410.84
2292.36	410.371
2292.5	412.761
2292.64	409.612
2292.77	410.949
2292.91	417.161
2293.05	417.238
2293.18	415.977
2293.32	412.682
2293.45	412.951
2293.59	415.154
2293.73	412.502
2293.86	417.002
2294	411.831
2294.13	411.62
2294.27	415.25
2294.41	414.253
2294.54	411.147
2294.68	410.282
2294.81	409.939
2294.95	412.78
2295.09	408.749
2295.22	414.368
2295.36	410.433
2295.49	411.158
2295.63	410.473
2295.77	409.622
2295.9	411.33
2296.04	413.394
2296.17	413.835
2296.31	409.94
2296.45	411.352
2296.58	419.175
2296.72	410.975
2296.85	414.036
2296.99	412.913
2297.13	408.741
2297.26	419.06
2297.4	409.819
2297.53	411.437
2297.67	412.455
2297.8	412.98
2297.94	409.815
2298.08	417.173
2298.21	413.115
2298.35	416.543
2298.48	412.714
2298.62	420.216
2298.75	412.992
2298.89	413.481
2299.03	411.352
2299.16	418.255
2299.3	409.011
2299.44	412.441
2299.57	414.343
2299.71	408.737
2299.84	413.83
2299.98	416.376
2300.11	410.981
2300.25	414.49
2300.39	414.6
2300.52	409.53
2300.66	412.792
2300.79	413.087
2300.93	410.307
2301.06	413.542
2301.2	415.015
2301.33	414.725
2301.47	412.741
2301.61	412.077
2301.74	412
2301.88	412.801
2302.01	413.727
2302.15	412.529
2302.28	409.258
2302.42	415.232
2302.56	413.768
2302.69	413.779
2302.83	414.746
2302.96	415.389
2303.1	416.181
2303.23	417.426
2303.37	414.637
2303.51	414.648
2303.64	413.967
2303.78	413.704
2303.91	412.121
2304.05	415.519
2304.18	413.889
2304.32	417.454
2304.46	414.321
2304.59	413.551
2304.73	411.637
2304.86	412.657
2305	414.809
2305.13	416.521
2305.27	420.176
2305.4	410.963
2305.54	415.733
2305.68	417.448
2305.81	416.179
2305.95	411.428
2306.08	415.55
2306.22	419.86
2306.35	414.76
2306.49	412.341
2306.62	413.287
2306.76	411.504
2306.89	413.385
2307.03	408.672
2307.17	409.237
2307.3	418.278
2307.44	414.607
2307.57	412.92
2307.71	409.733
2307.84	412.185
2307.98	412.569
2308.11	419.056
2308.25	415.484
2308.38	413.596
2308.52	417.305
2308.66	409.879
2308.79	410.341
2308.93	412.726
2309.06	413.032
2309.2	415.598
2309.33	413.516
2309.47	425.22
2309.6	413.669
2309.74	413.978
2309.87	417.24
2310.01	411.592
2310.14	416.606
2310.28	410.722
2310.42	422.052
2310.55	413.206
2310.69	419.274
2310.82	417.063
2310.96	414.018
2311.09	414.006
2311.23	412.019
2311.36	414.094
2311.5	414.302
2311.63	411.36
2311.77	414.794
2311.9	413.027
2312.04	412.187
2312.17	411.195
2312.31	413.813
2312.44	411.388
2312.58	415.996
2312.72	410.025
2312.85	413.999
2312.99	413.669
2313.12	412.107
2313.26	415.821
2313.39	416.554
2313.53	408.511
2313.66	416.286
2313.8	414.736
2313.93	414.739
2314.07	413.481
2314.2	414.855
2314.34	426.927
2314.47	423.603
2314.61	414.909
2314.74	411.625
2314.88	415.3
2315.01	412.088
2315.15	415.27
2315.28	417.83
2315.42	411.666
2315.55	412.491
2315.69	413.15
2315.82	412.127
2315.96	415.28
2316.09	412.258
2316.23	413.121
2316.36	415.826
2316.5	417.836
2316.63	415.636
2316.77	419.289
2316.9	417.821
2317.04	417.224
2317.18	420.24
2317.31	419.144
2317.44	416.032
2317.58	418.588
2317.71	415.565
2317.85	414.56
2317.98	413.003
2318.12	417.099
2318.26	415.605
2318.39	415.639
2318.52	414.162
2318.66	416.685
2318.79	411.425
2318.93	411.666
2319.06	416.461
2319.2	416.176
2319.33	414.531
2319.47	420.11
2319.6	415.772
2319.74	416.775
2319.87	413.799
2320.01	418.14
2320.14	416.779
2320.28	417.004
2320.41	414.049
2320.55	417.66
2320.68	418.682
2320.82	418.259
2320.95	414.411
2321.09	419.842
2321.22	415.979
2321.36	415.484
2321.49	417.197
2321.63	415.116
2321.76	414.213
2321.9	413.966
2322.03	409.583
2322.17	419.357
2322.3	417.427
2322.44	412.826
2322.57	416.044
2322.71	413.355
2322.84	416.52
2322.98	417.072
2323.11	417.237
2323.25	415.444
2323.38	417.601
2323.52	420.042
2323.65	418.712
2323.78	414.816
2323.92	416.082
2324.05	415.315
2324.19	416.98
2324.32	412.524
2324.46	414.873
2324.59	415.162
2324.73	418.569
2324.86	419.259
2325	420.71
2325.13	415.269
2325.27	416.116
2325.4	414.867
2325.54	415.868
2325.67	415.107
2325.8	414.489
2325.94	414.001
2326.07	418.104
2326.21	418.035
2326.34	419.727
2326.48	414.448
2326.61	416.577
2326.75	416.482
2326.88	413.998
2327.02	418.012
2327.15	420.136
2327.29	418.397
2327.42	421.414
2327.56	419.255
2327.69	423.645
2327.82	418.301
2327.96	419.702
2328.09	415.901
2328.23	418.754
2328.36	416.633
2328.5	424.437
2328.63	419.946
2328.77	419.16
2328.9	422.627
2329.04	421.816
2329.17	420.702
2329.31	418.024
2329.44	425.278
2329.57	420.11
2329.71	418.899
2329.84	419.604
2329.98	422.341
2330.11	420.795
2330.25	417.921
2330.38	422.115
2330.52	421.154
2330.65	417.225
2330.78	416.436
2330.92	420.468
2331.05	417.234
2331.19	418.801
2331.32	414.78
2331.46	414.669
2331.59	417.722
2331.73	415.463
2331.86	419.384
2331.99	418.799
2332.13	417.195
2332.26	418.421
2332.4	414.457
2332.53	421.574
2332.67	419.035
2332.8	416.368
2332.94	417.711
2333.07	417.24
2333.2	417.664
2333.34	420.342
2333.47	419.143
2333.61	420.729
2333.74	421.624
2333.88	417.222
2334.01	422.64
2334.14	422.879
2334.28	419.943
2334.41	417.897
2334.55	417.461
2334.68	421.281
2334.82	419.446
2334.95	421.416
2335.08	413.151
2335.22	415.994
2335.35	420.729
2335.49	420.758
2335.62	421.643
2335.76	417.671
2335.89	417.92
2336.02	418.729
2336.16	419.465
2336.29	419.246
2336.43	420.839
2336.56	422.449
2336.7	417.315
2336.83	422.054
2336.96	419.192
2337.1	417.616
2337.23	418.772
2337.37	416.436
2337.5	419.132
2337.63	416.04
2337.77	423.643
2337.9	418.359
2338.04	414.953
2338.17	421.614
2338.3	416.501
2338.44	424.483
2338.57	423.568
2338.71	424.942
2338.84	428.532
2338.98	418.266
2339.11	419.069
2339.24	421.016
2339.38	417.677
2339.51	420.394
2339.65	423.299
2339.78	424.613
2339.91	424.654
2340.05	421.397
2340.18	424.711
2340.32	421.038
2340.45	424.38
2340.58	420.764
2340.72	421.534
2340.85	416.72
2340.99	417.768
2341.12	420.372
2341.25	419.516
2341.39	419.406
2341.52	421.252
2341.66	426.897
2341.79	426.694
2341.92	420.435
2342.06	424.641
2342.19	420.101
2342.33	424.29
2342.46	420.935
2342.59	419.011
2342.73	420.363
2342.86	419.572
2343	422.408
2343.13	422.92
2343.26	420.343
2343.4	424.206
2343.53	421.853
2343.67	419.22
2343.8	419.125
2343.93	419.219
2344.07	421.644
2344.2	420.88
2344.33	420
2344.47	421.657
2344.6	422.514
2344.74	424.175
2344.87	425.205
2345	422.076
2345.14	420.598
2345.27	418.537
2345.41	421.464
2345.54	420.675
2345.67	420.59
2345.81	421.042
2345.94	419.75
2346.07	424.438
2346.21	423.625
2346.34	419.336
2346.48	420.97
2346.61	421.287
2346.74	420.753
2346.88	427.193
2347.01	421.604
2347.14	423.116
2347.28	422.287
2347.41	421.472
2347.55	420.061
2347.68	421.468
2347.81	421.787
2347.95	420.39
2348.08	422.179
2348.22	423.579
2348.35	425.981
2348.48	422.885
2348.62	423.733
2348.75	423.267
2348.88	424.411
2349.02	421.827
2349.15	424.179
2349.29	424.312
2349.42	422.44
2349.55	423.644
2349.69	423.379
2349.82	422.297
2349.95	422.93
2350.09	422.569
2350.22	423.233
2350.35	421.143
2350.49	420.589
2350.62	420.894
2350.75	422.172
2350.89	421.016
2351.02	422.936
2351.16	422.346
2351.29	420.936
2351.42	421.646
2351.56	424.603
2351.69	425.226
2351.82	426.116
2351.96	426.313
2352.09	422.874
2352.22	420.248
2352.36	422.087
2352.49	422.963
2352.62	423.856
2352.76	423.238
2352.89	422.08
2353.02	426.517
2353.16	426.036
2353.29	424.679
2353.43	424.795
2353.56	421.526
2353.69	423.119
2353.83	423.05
2353.96	424.521
2354.09	425.088
2354.23	424.852
2354.36	425.854
2354.49	425.053
2354.63	423.151
2354.76	422.207
2354.89	422.373
2355.03	421.343
2355.04	421.218
2355.17	421.269
2355.31	428.725
2355.44	427.521
2355.58	421.608
2355.72	421.189
2355.85	424.92
2355.99	423.662
2356.12	430.291
2356.26	424.921
2356.4	424.951
2356.53	427.648
2356.67	427.319
2356.8	424.247
2356.94	422.215
2357.07	425.183
2357.21	422.768
2357.35	423.098
2357.48	423.922
2357.62	430.092
2357.75	424.065
2357.89	422.553
2358.03	424.998
2358.16	427.497
2358.3	421.116
2358.43	424.321
2358.57	426.543
2358.7	431.178
2358.84	425.708
2358.98	425.422
2359.11	424.513
2359.25	427.677
2359.38	421.282
2359.52	422.967
2359.65	430.318
2359.79	424.155
2359.93	425.873
2360.06	428.252
2360.2	428.384
2360.33	424.846
2360.47	424.028
2360.6	423.416
2360.74	424.481
2360.88	423.722
2361.01	425.193
2361.15	424.114
2361.28	427.349
2361.42	423.078
2361.55	421.504
2361.69	426.486
2361.83	423.318
2361.96	424.889
2362.1	426.697
2362.23	428.81
2362.37	429.676
2362.5	426.448
2362.64	425.806
2362.77	423.732
2362.91	423.538
2363.04	421.137
2363.18	428.05
2363.32	426.982
2363.45	428.433
2363.59	430.511
2363.72	425.149
2363.86	426.199
2363.99	425.173
2364.13	427.342
2364.26	426.486
2364.4	424.918
2364.54	444.385
2364.67	425.704
2364.81	428.033
2364.94	427.337
2365.08	428.445
2365.21	421.209
2365.35	425.723
2365.48	425.581
2365.62	426.421
2365.76	426.246
2365.89	427.56
2366.03	425.264
2366.16	429.276
2366.3	430.921
2366.43	426.383
2366.57	426.421
2366.7	424.934
2366.84	429.366
2366.97	430.777
2367.11	428.693
2367.24	425.006
2367.38	426.853
2367.52	429.846
2367.65	426.231
2367.79	426.786
2367.92	426.386
2368.06	425.776
2368.19	426.7
2368.33	429.031
2368.46	426.113
2368.6	423.874
2368.73	432.768
2368.87	429.141
2369	428.192
2369.14	424.453
2369.27	424.4
2369.41	427.275
2369.54	426.769
2369.68	434.188
2369.82	423.264
2369.95	427.669
2370.09	427.097
2370.22	431.881
2370.36	425.301
2370.49	427.699
2370.63	428.914
2370.76	426.498
2370.9	436.28
2371.03	429.64
2371.17	426.659
2371.3	434.699
2371.44	430.776
2371.57	428.036
2371.71	432.089
2371.84	423.934
2371.98	426.626
2372.11	427.007
2372.25	430.308
2372.38	428.571
2372.52	427.171
2372.66	427.728
2372.79	426.199
2372.92	425.326
2373.06	432.397
2373.2	431.052
2373.33	428.345
2373.47	427.181
2373.6	428.989
2373.74	430.278
2373.87	429.01
2374.01	426.944
2374.14	427.614
2374.28	428.75
2374.41	427.663
2374.55	431.904
2374.68	426.346
2374.82	431.64
2374.95	428.936
2375.09	426.531
2375.22	431.142
2375.36	426.64
2375.49	427.809
2375.63	429.421
2375.76	429.449
2375.9	429.269
2376.03	428.382
2376.17	426.141
2376.3	429.615
2376.44	426.855
2376.57	428.149
2376.71	427.498
2376.84	431.461
2376.98	427.152
2377.11	427.836
2377.25	427.815
2377.38	427.842
2377.52	425.981
2377.65	430.29
2377.79	423.732
2377.92	430.473
2378.06	430.393
2378.19	429.951
2378.33	432.034
2378.46	428.474
2378.6	427.774
2378.73	429.113
2378.86	433.69
2379	431.864
2379.14	429.378
2379.27	432.04
2379.41	430.356
2379.54	430.746
2379.67	429.591
2379.81	432.422
2379.94	434.27
