#Acq. time (s)=	45
#Accumulations=	2
#Range (cm-¹)=	100...4000
#Windows=	1
#Auto scanning=	Off
#Autofocus=	Off
#Macrospot=	Off
#AutoExposure=	Off
#Spike filter=	Multiple accum.
#Delay time (s)=	2
#Binning=	1
#Readout mode=	Signal
#DeNoise=	Off
#ICS correction=	On
#Dark correction=	Off
#Inst. Process=	Off
#Detector Gain=	Best Dynamic
#Detector ADC=	50 kHz HS
#Detector temperature (°C)=	-60.09
#Instrument=	LabRAM HR Evol
#Detector=	SIN-EM FIVIS
#Objective=	x100_VIS_LWD
#Grating=	150 (500nm)
#ND Filter=	100%
#Laser=	633nm_Edge
#Hole=	49.98
#Temperature=	0
#Range=	Visible
#StageXY=	75x50mm Scan+
#StageZ=	Z motor
#X (µm)=	0
#Y (µm)=	0
#Z (µm)=	-40.5
#Full time(mm:ss)=	1:35
#Project=	21_11_22
#Sample=	BU04w
#Site=	
#Title=	BU04w-A-FF3-FI08-V_150 (500nm)_633nm_Edge_100%_x100_VIS_LWD_H50um_45sX2
#Remark=	
#Date=	22.11.2021 12:48
#Acquired=	22.11.2021 12:48:27
100.177	584.751
103.438	563.976
106.695	563.28
109.954	553.076
113.209	480.779
116.464	526.861
119.717	484.975
122.969	477.522
126.219	492
129.469	494.087
132.716	514.265
135.963	501.899
139.208	480.834
142.452	502.861
145.694	439.764
148.936	458.94
152.175	451.364
155.414	468.733
158.651	504.291
161.887	522.654
165.121	497.892
168.353	454.852
171.586	412.718
174.815	399.283
178.045	391.532
181.272	406.749
184.5	390.237
187.724	378.503
190.947	381.05
194.17	366.419
197.39	375.71
200.611	365.047
203.829	377.467
207.045	379.315
210.262	367.787
213.475	378.202
216.688	386.723
219.9	401.89
223.11	413.217
226.32	458.758
229.527	505.982
232.733	559.912
235.939	554.868
239.142	489.024
242.344	454.599
245.546	437.489
248.745	416.492
251.943	408.767
255.141	424.752
258.336	431.293
261.53	421.713
264.723	413.099
267.916	399.769
271.106	391.21
274.294	432.929
277.483	421.553
280.669	418.664
283.854	406.259
287.038	436.495
290.221	409.814
293.402	396.37
296.582	396.205
299.76	414.968
302.938	415.724
306.114	420.239
309.288	440.835
312.461	455.755
315.634	505.607
318.805	599.785
321.974	704.426
325.142	727.91
328.309	731.564
331.475	625.879
334.639	550.357
337.802	519.17
340.963	494.595
344.123	464.356
347.282	452.919
350.441	440.574
353.597	438.524
356.752	450.58
359.906	447.543
363.058	451.08
366.209	464.946
369.36	458.133
372.509	449.454
375.656	433.236
378.802	434.899
381.947	413.103
385.09	422.393
388.232	444.982
391.373	423.599
394.512	448.289
397.652	443.028
400.789	435.14
403.925	446.877
407.059	444.535
410.192	447.822
413.324	466.145
416.455	468.3
419.584	489.49
422.712	498.17
425.839	550.135
428.964	591.138
432.089	594.248
435.212	557.725
438.333	562.693
441.454	524.386
444.573	523.703
447.691	518.266
450.807	532.465
453.923	557.918
457.037	530.129
460.15	512.792
463.261	495.629
466.371	475.842
469.48	463.5
472.588	486.687
475.695	476.451
478.8	453.245
481.904	506.372
485.007	463.536
488.108	471.945
491.208	491.556
494.307	488.839
497.405	483.276
500.502	491.744
503.597	496.546
506.691	505.988
509.784	521.997
512.874	514.736
515.964	511.215
519.053	507.807
522.141	500.75
525.227	508.695
528.312	471.765
531.396	500.5
534.479	496.504
537.559	474.611
540.639	491.145
543.718	465.223
546.796	474.053
549.873	478.882
552.948	488.566
556.022	484.941
559.093	472.578
562.165	459.053
565.235	465.301
568.304	459.148
571.372	462.313
574.437	467.246
577.503	456.146
580.567	449.794
583.63	452.008
586.691	445.832
589.75	440.723
592.81	465.626
595.868	445.81
598.924	437.393
601.98	445.999
605.033	458.46
608.086	436.414
611.138	453.673
614.188	471.008
617.236	469.851
620.285	455.503
623.332	427.126
626.376	444.839
629.42	417.978
632.464	435.239
635.506	443.817
638.545	437.119
641.585	423.687
644.623	426.056
647.659	434.234
650.695	437.629
653.73	423.943
656.762	423.374
659.794	420
662.825	436.254
665.854	422.644
668.883	419.322
671.91	429.327
674.935	393.09
677.96	388.41
680.982	415.443
684.005	412.815
687.027	401.839
690.045	401.288
693.064	409.223
696.082	409.691
699.097	401.706
702.113	413.386
705.126	412.844
708.139	398.125
711.149	399.262
714.16	422.527
717.169	404.584
720.176	383.747
723.183	402.478
726.187	408.783
729.192	396.235
732.194	396.817
735.196	428.291
738.196	391.422
741.196	385.479
744.193	411.311
747.19	398.917
750.185	401.471
753.18	387.409
756.173	402.186
759.165	412.603
762.155	423.218
765.146	387.3
768.133	396.279
771.121	405.273
774.107	404.936
777.092	395.121
780.075	405.886
783.058	408.105
786.039	401.777
789.02	412.374
791.998	421.977
794.975	419.241
797.952	425.855
800.927	392.739
803.902	420.853
806.874	395.176
809.845	418.487
812.817	409.653
815.786	391.39
818.755	417.228
821.721	391.424
824.686	404.983
827.652	411.953
830.615	419.996
833.576	402.174
836.538	402.216
839.498	426.746
842.458	421.601
845.415	397.572
848.37	417.657
851.327	435.958
854.28	415.81
857.233	423.876
860.184	409.381
863.135	403.341
866.084	448.304
869.032	406.343
871.98	418.148
874.925	433.622
877.87	414.869
880.813	420.74
883.756	430.336
886.697	410.428
889.636	428.406
892.576	413.115
895.513	428.138
898.45	432.546
901.385	434.897
904.318	420.188
907.253	443.275
910.184	429.472
913.114	433.623
916.044	413.329
918.973	436.538
921.9	442.886
924.826	462.587
927.75	484.252
930.674	471.463
933.596	506.52
936.519	504.356
939.439	517.493
942.357	546.793
945.275	547.804
948.192	566.959
951.107	575.694
954.023	571.055
956.936	577.76
959.848	540.385
962.759	531.539
965.669	522.498
968.577	522.081
971.485	536.843
974.391	515.011
977.296	546.709
980.201	561.816
983.104	576.806
986.006	623.316
988.907	647.693
991.806	618.422
994.704	572.923
997.602	586.768
1000.5	552.001
1003.39	570.742
1006.29	552.418
1009.18	564.743
1012.07	571.689
1014.96	597.735
1017.85	655.26
1020.74	646.089
1023.63	638.098
1026.51	635.028
1029.4	581.203
1032.28	549.335
1035.16	511.704
1038.04	497.105
1040.92	495.947
1043.8	465.81
1046.68	468.501
1049.56	443.909
1052.43	467.653
1055.31	446.757
1058.18	456.798
1061.05	461.87
1063.93	451.292
1066.8	458.934
1069.67	447.223
1072.53	425.79
1075.4	468.385
1078.26	455.572
1081.13	467.961
1083.99	487.127
1086.85	496.588
1089.72	532.317
1092.58	579.595
1095.44	623.003
1098.29	611.156
1101.15	574.207
1104	551.877
1106.86	510.546
1109.71	486.346
1112.56	478.03
1115.42	469.121
1118.27	445.64
1121.11	466.677
1123.96	452.584
1126.81	450.141
1129.65	461.48
1132.5	470.845
1135.34	492.997
1138.18	482.791
1141.03	495.214
1143.87	525.196
1146.7	544.213
1149.54	618.48
1152.38	656.177
1155.21	632.637
1158.05	558.69
1160.88	502.351
1163.71	478.24
1166.55	437.535
1169.37	443.999
1172.2	421.026
1175.03	417.662
1177.86	435.798
1180.68	425.662
1183.51	412.674
1186.33	434.085
1189.15	424.334
1191.98	413.637
1194.8	423.688
1197.61	394.617
1200.43	431.303
1203.25	422.18
1206.06	409.131
1208.88	425.668
1211.69	414.612
1214.51	426.365
1217.32	410.488
1220.13	409.471
1222.94	415.44
1225.74	410.46
1228.55	408.426
1231.36	410.316
1234.16	405.097
1236.97	404.816
1239.77	406.437
1242.57	409.918
1245.37	412.289
1248.17	400.412
1250.97	407.585
1253.77	417.808
1256.56	408.633
1259.36	426.637
1262.15	380.912
1264.94	394.774
1267.74	400.566
1270.53	382.106
1273.32	420.935
1276.11	558.14
1278.89	708.038
1281.68	507.768
1284.46	409.142
1287.25	395.808
1290.03	406.55
1292.81	384.36
1295.59	397.269
1298.38	396.237
1301.15	369.258
1303.93	397.4
1306.71	380.667
1309.48	403.092
1312.26	388.659
1315.03	380.223
1317.81	402.978
1320.58	378.482
1323.35	378.175
1326.12	385.005
1328.88	391.866
1331.65	391.647
1334.42	361.81
1337.18	388.946
1339.95	387.522
1342.71	370.614
1345.47	391.482
1348.23	376.496
1350.99	377.87
1353.75	395.624
1356.51	385.607
1359.26	384.765
1362.02	383.854
1364.77	390.052
1367.53	385.901
1370.28	377.618
1373.03	381.647
1375.78	404.184
1378.53	528.364
1381.28	837.289
1384.03	662.587
1386.77	442.817
1389.52	387.308
1392.26	393.477
1395	368.927
1397.74	379.533
1400.49	382.866
1403.23	427.36
1405.96	404.022
1408.7	371.405
1411.44	384.129
1414.17	380.399
1416.91	379.804
1419.64	363.673
1422.37	394.154
1425.11	385.328
1427.84	395.158
1430.56	385.288
1433.29	355.579
1436.02	381.051
1438.74	374.221
1441.47	380.915
1444.19	376.21
1446.92	388.158
1449.64	358.082
1452.36	367.742
1455.08	365.82
1457.8	354.362
1460.52	359.657
1463.23	356.501
1465.95	356.462
1468.66	352.205
1471.38	360.556
1474.09	374.173
1476.8	378.395
1479.51	348.034
1482.22	367.007
1484.93	369.231
1487.64	354.686
1490.34	358.05
1493.05	382.511
1495.75	345.991
1498.46	357.896
1501.16	355.11
1503.86	351.27
1506.56	385.538
1509.26	355.348
1511.96	369.622
1514.65	355.318
1517.35	384.611
1520.05	345.827
1522.74	367.754
1525.43	369.492
1528.13	382.964
1530.82	365.418
1533.51	391.948
1536.2	363.539
1538.88	358.643
1541.57	360.22
1544.25	372.45
1546.94	370.46
1549.62	368.347
1552.31	368.278
1554.99	391.837
1557.67	374.265
1560.35	355.73
1563.03	352.326
1565.71	364.011
1568.38	388.612
1571.06	370.086
1573.73	366.668
1576.41	389.137
1579.08	360.07
1581.75	382.68
1584.42	351.5
1587.09	372.021
1589.76	368.887
1592.43	367.955
1595.09	382.159
1597.76	342.505
1600.42	371.888
1603.09	367.905
1605.75	365.028
1608.41	379.567
1611.07	362.76
1613.73	388.359
1616.39	384.716
1619.05	357.113
1621.7	346.877
1624.36	372.712
1627.01	354.77
1629.67	373.015
1632.32	383.587
1634.97	364.327
1637.62	367.006
1640.27	355.017
1642.92	354.187
1645.57	357.794
1648.22	356.931
1650.86	371.536
1653.51	367.302
1656.15	356.348
1658.79	360.862
1661.43	358.7
1664.07	345.444
1666.71	354.329
1669.35	335.486
1671.99	348.798
1674.63	362.109
1677.26	350.962
1679.9	366.482
1682.53	359.71
1685.16	339.599
1687.79	351.627
1690.43	371.431
1693.05	356.972
1695.68	345.923
1698.31	339.418
1700.94	346.409
1703.56	352.986
1706.19	369.367
1708.81	340.032
1711.44	348.421
1714.06	357.339
1716.68	358.788
1719.3	335.988
1721.92	347.483
1724.53	329.779
1727.15	340.217
1729.77	342.814
1732.38	357.774
1735	339.018
1737.61	351.723
1740.22	330.656
1742.83	347.885
1745.44	352.734
1748.05	348.491
1750.66	348.724
1753.27	343.275
1755.87	344.583
1758.48	357.134
1761.08	335.677
1763.69	360.644
1766.29	338.074
1768.89	346.097
1771.49	345.072
1774.09	348.588
1776.69	337.413
1779.29	363.732
1781.88	341.294
1784.48	332.479
1787.07	354.397
1789.66	342.269
1792.26	340.365
1794.85	330.482
1797.44	332.021
1800.03	330.194
1802.62	350.126
1805.21	356.358
1807.79	349.913
1810.38	342.236
1812.96	337.997
1815.55	342.971
1818.13	338.741
1820.71	329.845
1823.29	352.197
1825.87	341.017
1828.45	336.773
1831.03	325.578
1833.61	341.07
1836.18	353.167
1838.76	331.395
1841.33	329.376
1843.91	339.006
1846.48	315.936
1849.05	340.732
1851.62	339.848
1854.19	316.596
1856.76	316.852
1859.33	324.151
1861.89	336.212
1864.46	335.355
1867.02	332.214
1869.59	331.346
1872.15	310.401
1874.71	335.356
1877.27	323.789
1879.83	329.873
1882.39	334.804
1884.95	338.498
1887.51	336.303
1890.06	329.248
1892.62	306.796
1895.17	338.721
1897.73	332.86
1900.28	322.334
1902.83	327.327
1905.38	332.388
1907.93	325.595
1910.48	335.535
1913.03	342.01
1915.57	311.625
1918.12	334.759
1920.66	343.168
1923.21	318.384
1925.75	317.5
1928.29	320.205
1930.83	336.091
1933.37	325.612
1935.91	321.088
1938.45	333.352
1940.99	322.762
1943.53	313.337
1946.06	314.705
1948.6	325.695
1951.13	337.843
1953.66	339.128
1956.19	333.167
1958.73	328.393
1961.26	335.659
1963.78	350.138
1966.31	326.034
1968.84	336.82
1971.36	322.274
1973.89	329.404
1976.41	326.908
1978.94	344.875
1981.46	315.891
1983.98	321.821
1986.5	316.933
1989.02	312.061
1991.54	322.828
1994.06	323.988
1996.58	302.326
1999.09	335.987
2001.61	316.774
2004.12	301.192
2006.63	327.738
2009.15	325.431
2011.66	313.54
2014.17	323.295
2016.68	340.295
2019.19	311.456
2021.69	332.051
2024.2	322.582
2026.71	327.611
2029.21	332.678
2031.72	322.088
2034.22	326.033
2036.72	310.598
2039.22	293.932
2041.72	314.854
2044.22	330.971
2046.72	326.47
2049.22	330.488
2051.71	300.38
2054.21	317.626
2056.71	300.872
2059.2	318.315
2061.69	311.33
2064.18	311.679
2066.68	305.911
2069.17	312.369
2071.66	304.098
2074.14	329.024
2076.63	308.423
2079.12	330.905
2081.6	321.34
2084.09	301.847
2086.57	326.769
2089.06	314.602
2091.54	326.01
2094.02	315.183
2096.5	322.989
2098.98	330.808
2101.46	310.077
2103.93	350.291
2106.41	307.144
2108.89	317.553
2111.36	333.009
2113.84	319.759
2116.31	321.51
2118.78	318.244
2121.25	326.276
2123.72	345.65
2126.19	341.11
2128.66	336.538
2131.13	328.135
2133.59	313.355
2136.06	320.066
2138.53	338.195
2140.99	338.565
2143.45	345.292
2145.92	315.073
2148.38	317.892
2150.84	330.868
2153.3	336.188
2155.76	346.589
2158.21	333.987
2160.67	330.288
2163.13	326.552
2165.58	331.727
2168.04	357.33
2170.49	326.719
2172.94	314.056
2175.39	330.812
2177.84	344.993
2180.29	332.212
2182.74	328.383
2185.19	334.732
2187.64	319.379
2190.08	336.065
2192.53	324.627
2194.98	332.403
2197.42	322.311
2199.86	339.176
2202.3	344.552
2204.74	353.824
2207.18	331.005
2209.62	335.2
2212.06	339.43
2214.5	338.514
2216.93	319.564
2219.37	353.581
2221.81	332.027
2224.24	319.489
2226.67	336.766
2229.11	335.896
2231.54	336.322
2233.97	361.501
2236.4	359.349
2238.83	361.109
2241.25	366.786
2243.68	363.33
2246.1	342.824
2248.53	356.389
2250.96	354.209
2253.38	349.376
2255.8	359.029
2258.22	360.825
2260.64	334.867
2263.06	348.486
2265.48	342.228
2267.9	347.851
2270.32	354.77
2272.73	357.685
2275.15	343.304
2277.56	363.435
2279.98	355.629
2282.39	354.413
2284.8	357.141
2287.21	355.845
2289.62	355.904
2292.03	354.612
2294.44	353.319
2296.85	360.048
2299.26	356.194
2301.66	352.349
2304.07	335.232
2306.47	343.497
2308.88	362.494
2311.28	353.514
2313.68	345.864
2316.08	365.036
2318.48	361.487
2320.88	357.912
2323.28	386.589
2325.68	352.108
2328.07	353.934
2330.47	322.022
2332.86	345.501
2335.26	370.408
2337.65	346.575
2340.04	349.838
2342.43	340.906
2344.82	351.037
2347.21	339.428
2349.6	322.219
2351.99	320.04
2354.38	338.396
2356.76	326.49
2359.15	337.94
2361.53	317.553
2363.92	327.557
2366.3	338.963
2368.68	325.509
2371.06	317.546
2373.44	330.33
2375.82	329.271
2378.2	322.663
2380.58	315.953
2382.95	314.78
2385.33	302.409
2387.71	305.328
2390.08	337.429
2392.45	302.694
2394.83	320.838
2397.2	291.599
2399.57	318.041
2401.94	315.266
2404.31	308.261
2406.68	320.76
2409.04	294.39
2411.41	307.155
2413.78	296.344
2416.14	288.574
2418.51	311.879
2420.87	308.254
2423.23	300.114
2425.59	298.849
2427.95	317.52
2430.31	299.592
2432.67	312.703
2435.03	301.851
2437.39	276.831
2439.75	294.265
2442.1	289.02
2444.46	290.872
2446.81	304.128
2449.16	290.322
2451.52	276.473
2453.87	298.333
2456.22	295.898
2458.57	274.81
2460.92	275.205
2463.27	262.655
2465.61	296.171
2467.96	305.232
2470.3	279.618
2472.65	294.435
2474.99	294.813
2477.34	277.802
2479.68	272.355
2482.02	288.689
2484.36	286.115
2486.7	276.205
2489.04	296.922
2491.38	294.299
2493.72	284.361
2496.05	293.456
2498.39	274.7
2500.72	289.628
2503.06	267.876
2505.39	273.985
2507.72	293.32
2510.06	275.882
2512.39	301.099
2514.72	276.241
2517.04	280.833
2519.37	275.145
2521.7	265.038
2524.03	274.116
2526.35	261.006
2528.68	277.487
2531	264.367
2533.33	288.321
2535.65	267.819
2537.97	266.598
2540.29	272.815
2542.61	265.654
2544.93	265.931
2547.25	273.697
2549.57	269.513
2551.88	265.329
2554.2	268.608
2556.51	264.362
2558.83	257.098
2561.14	254.379
2563.46	268.178
2565.77	280.551
2568.08	273.368
2570.39	260.159
2572.7	269.563
2575.01	263.856
2577.31	286.876
2579.62	261.419
2581.93	266.218
2584.23	266.4
2586.54	254.423
2588.84	266.716
2591.15	256.129
2593.45	265.403
2595.75	253.407
2598.05	262.772
2600.35	241.617
2602.65	270.757
2604.95	264.816
2607.24	257.33
2609.54	257.476
2611.84	265.203
2614.13	250.018
2616.42	265.412
2618.72	257.891
2621.01	276.369
2623.3	262.715
2625.59	258.261
2627.88	263.014
2630.17	264.774
2632.46	248.154
2634.75	265.369
2637.04	241.099
2639.32	264.641
2641.61	252.679
2643.89	251.54
2646.18	245.764
2648.46	257.009
2650.74	266.736
2653.02	274.948
2655.3	254.958
2657.58	242.701
2659.86	252.279
2662.14	258.724
2664.42	263.585
2666.69	246.516
2668.97	245.168
2671.24	223.435
2673.52	236.276
2675.79	253.949
2678.06	262.396
2680.33	240.98
2682.61	233.607
2684.88	261.123
2687.15	261.719
2689.41	271.865
2691.68	237.233
2693.95	248.882
2696.22	261.809
2698.48	238.054
2700.74	238.321
2703.01	240.173
2705.27	240.401
2707.53	245.458
2709.8	248.893
2712.06	255.553
2714.32	212.22
2716.57	249.658
2718.83	246.647
2721.09	248.512
2723.35	240.626
2725.6	227.817
2727.86	247.437
2730.11	231.336
2732.37	241.155
2734.62	234.774
2736.87	259.23
2739.12	239.798
2741.37	236.686
2743.62	238.456
2745.87	230.481
2748.12	251.861
2750.37	240.692
2752.61	244.387
2754.86	234.871
2757.1	248.214
2759.35	232.023
2761.59	246.937
2763.83	247.158
2766.08	230.965
2768.32	244.372
2770.56	209.986
2772.8	231.64
2775.04	228.612
2777.27	240.491
2779.51	234.202
2781.75	249.537
2783.98	246.626
2786.22	240.395
2788.45	237.461
2790.68	232.837
2792.92	248.247
2795.15	256.993
2797.38	238.889
2799.61	237.527
2801.84	224.364
2804.07	234.707
2806.3	241.684
2808.52	228.432
2810.75	238.769
2812.98	232.225
2815.2	242.531
2817.42	249.476
2819.65	217.508
2821.87	244.786
2824.09	228.04
2826.31	229.932
2828.53	231.814
2830.75	243.889
2832.97	233.862
2835.19	232.318
2837.41	220.561
2839.62	207.084
2841.84	249.876
2844.05	236.412
2846.27	231.503
2848.48	218.03
2850.69	214.824
2852.9	230.494
2855.12	229.068
2857.33	237.948
2859.54	217.597
2861.74	228.23
2863.95	237.192
2866.16	222.019
2868.37	218.907
2870.57	224.446
2872.78	243.881
2874.98	246
2877.18	242.908
2879.39	220.636
2881.59	250.718
2883.79	212.659
2885.99	228.831
2888.19	218.69
2890.39	231.377
2892.59	237.048
2894.78	219.786
2896.98	211.358
2899.18	234.794
2901.37	213.914
2903.57	233.808
2905.76	216.357
2907.95	205.98
2910.15	220.564
2912.34	208.298
2914.53	204.951
2916.72	232.049
2918.91	237.716
2921.09	221.845
2923.28	205.936
2925.47	233.237
2927.65	224.559
2929.84	219.469
2932.02	207.137
2934.21	229.137
2936.39	227.589
2938.57	213.293
2940.75	222.57
2942.94	211.873
2945.12	222.974
2947.29	214.011
2949.47	217.808
2951.65	245.332
2953.83	227.255
2956	207.322
2958.18	234.882
2960.36	225.906
2962.53	227.91
2964.7	224.424
2966.88	209.952
2969.05	228.494
2971.22	237.89
2973.39	219.727
2975.56	219.934
2977.73	220.14
2979.9	222.19
2982.06	222.425
2984.23	207.905
2986.4	210.014
2988.56	217.703
2990.73	216.145
2992.89	220.173
2995.05	224.197
2997.21	200.312
2999.38	223.02
3001.54	210.295
3003.7	223.756
3005.86	199.757
3008.01	228.274
3010.17	215.475
3012.33	210.131
3014.49	218.04
3016.64	227.88
3018.8	215.037
3020.95	228.714
3023.1	221.495
3025.26	218.025
3027.41	195.439
3029.56	214.783
3031.71	209.31
3033.86	215.275
3036.01	244.21
3038.16	229.068
3040.31	210.155
3042.45	214.206
3044.6	216.324
3046.74	212.664
3048.89	224.404
3051.03	226.521
3053.18	222.852
3055.32	223.059
3057.46	215.534
3059.6	215.724
3061.74	225.595
3063.88	212.226
3066.02	235.692
3068.16	208.716
3070.3	222.501
3072.43	228.53
3074.57	219.007
3076.7	223.108
3078.84	223.318
3080.97	207.906
3083.1	208.099
3085.24	222.029
3087.37	192.91
3089.5	218.663
3091.63	207.194
3093.76	242.917
3095.89	233.468
3098.02	204.248
3100.14	230.274
3102.27	230.666
3104.4	217.197
3106.52	237.476
3108.65	208.06
3110.77	226.425
3112.89	228.879
3115.01	231.319
3117.14	239.805
3119.26	212.127
3121.38	248.844
3123.5	223.126
3125.62	239.809
3127.73	230.214
3129.85	210.428
3131.97	233.373
3134.08	238.027
3136.2	234.507
3138.31	230.952
3140.43	239.7
3142.54	254.651
3144.65	238.645
3146.76	226.695
3148.87	235.437
3150.98	237.928
3153.09	232.047
3155.2	236.569
3157.31	264.049
3159.42	239.352
3161.52	256.458
3163.63	254.746
3165.73	259.292
3167.84	238.608
3169.94	234.691
3172.05	264.571
3174.15	248.015
3176.25	231.358
3178.35	271.743
3180.45	248.675
3182.55	253.086
3184.65	276.563
3186.75	257.648
3188.84	272.588
3190.94	243.072
3193.04	243.275
3195.13	232.857
3197.23	237.382
3199.32	233.463
3201.41	270.221
3203.51	245.008
3205.6	245.459
3207.69	267.441
3209.78	248.601
3211.87	246.952
3213.96	238.827
3216.05	265.352
3218.13	237.692
3220.22	262.085
3222.31	236.459
3224.39	250.031
3226.48	239.602
3228.56	253.231
3230.64	251.516
3232.73	232.208
3234.81	228.197
3236.89	241.848
3238.97	246.731
3241.05	251.67
3243.13	241.074
3245.21	243.866
3247.29	246.543
3249.36	204.543
3251.44	242.885
3253.52	216.331
3255.59	209.84
3257.66	210.079
3259.74	232.939
3261.81	199.506
3263.88	226.967
3265.95	207.073
3268.03	214.564
3270.1	214.831
3272.17	208.581
3274.23	208.874
3276.3	197.63
3278.37	200.134
3280.44	218.65
3282.5	211.998
3284.57	196.154
3286.63	226.206
3288.7	208.037
3290.76	222.04
3292.82	217.633
3294.88	208.603
3296.94	215.703
3299	206.665
3301.06	206.908
3303.12	197.841
3305.18	193.407
3307.24	184.323
3309.3	210.024
3311.35	186.982
3313.41	203.406
3315.46	198.953
3317.52	185.152
3319.57	185.347
3321.63	187.879
3323.68	209.149
3325.73	183.666
3327.78	195.633
3329.83	181.814
3331.88	189.187
3333.93	177.764
3335.98	206.377
3338.02	209.107
3340.07	190.45
3342.12	197.78
3344.16	202.721
3346.21	217.17
3348.25	184.07
3350.3	189.007
3352.34	203.447
3354.38	191.71
3356.42	191.932
3358.46	175.44
3360.5	192.361
3362.54	173.449
3364.58	207.161
3366.62	178.607
3368.66	185.997
3370.69	174.187
3372.73	174.35
3374.76	198.569
3376.8	193.9
3378.83	186.807
3380.87	194.173
3382.9	167.751
3384.93	199.256
3386.96	172.794
3388.99	177.73
3391.02	180.241
3393.05	187.598
3395.08	178.032
3397.11	175.742
3399.14	190.43
3401.16	185.698
3403.19	195.5
3405.21	183.44
3407.24	176.24
3409.26	193.348
3411.29	178.816
3413.31	149.682
3415.33	178.957
3417.35	186.34
3419.37	171.79
3421.39	166.976
3423.41	179.221
3425.43	198.802
3427.45	189.139
3429.46	181.919
3431.48	189.363
3433.5	174.821
3435.51	172.507
3437.53	167.753
3439.54	170.355
3441.55	160.695
3443.57	192.78
3445.58	185.628
3447.59	190.794
3449.6	173.776
3451.61	173.993
3453.62	186.595
3455.63	174.503
3457.64	184.715
3459.64	182.551
3461.65	165.456
3463.66	188.18
3465.66	176.029
3467.67	163.834
3469.67	181.647
3471.67	154.34
3473.68	167.069
3475.68	174.876
3477.68	177.662
3479.68	177.932
3481.68	195.89
3483.68	175.924
3485.68	163.501
3487.68	173.883
3489.67	153.785
3491.67	169.266
3493.67	164.389
3495.66	182.443
3497.66	187.757
3499.65	147.039
3501.64	177.898
3503.64	170.358
3505.63	170.503
3507.62	170.612
3509.61	170.688
3511.6	170.744
3513.59	173.369
3515.58	170.854
3517.57	140.063
3519.56	168.382
3521.54	173.571
3523.53	176.195
3525.52	150.531
3527.5	168.612
3529.49	171.216
3531.47	173.888
3533.45	171.455
3535.43	169.039
3537.42	166.647
3539.4	169.443
3541.38	154.08
3543.36	164.591
3545.34	154.354
3547.32	167.458
3549.29	180.564
3551.27	167.661
3553.25	152.061
3555.22	167.722
3557.2	160.001
3559.17	162.698
3561.15	144.57
3563.12	147.284
3565.09	170.886
3567.07	137.101
3569.04	158.19
3571.01	160.96
3572.98	171.606
3574.95	158.686
3576.92	156.256
3578.88	169.615
3580.85	156.69
3582.82	156.924
3584.79	149.235
3586.75	160.038
3588.72	162.921
3590.68	157.852
3592.64	155.424
3594.61	168.953
3596.57	137.225
3598.53	153.423
3600.49	166.973
3602.45	148.461
3604.41	154.003
3606.37	162.223
3608.33	143.61
3610.29	157.189
3612.25	157.347
3614.2	154.83
3616.16	154.97
3618.12	152.426
3620.07	147.15
3622.02	152.636
3623.98	155.393
3625.93	155.442
3627.88	147.38
3629.84	144.715
3631.79	155.554
3633.74	136.646
3635.69	158.346
3637.64	150.298
3639.58	147.687
3641.53	147.818
3643.48	142.532
3645.43	153.545
3647.37	159.178
3649.32	131.976
3651.26	145.664
3653.21	151.197
3655.15	151.264
3657.09	143.154
3659.03	156.856
3660.98	143.276
3662.92	137.863
3664.86	151.579
3666.8	143.46
3668.74	132.602
3670.67	135.399
3672.61	146.413
3674.55	146.519
3676.49	135.674
3678.42	144.031
3680.36	144.18
3682.29	144.346
3684.23	136.271
3686.16	139.219
3688.09	144.934
3690.02	147.903
3691.96	145.348
3693.89	128.903
3695.82	156.809
3697.75	137.573
3699.68	121.058
3701.61	124.013
3703.53	149.268
3705.46	155.067
3707.39	144.094
3709.31	147.096
3711.24	141.685
3713.16	150.306
3715.09	156.112
3717.01	136.575
3718.93	145.176
3720.86	128.392
3722.78	139.814
3724.7	156.902
3726.62	157.035
3728.54	128.853
3730.46	148.807
3732.38	126.256
3734.29	140.575
3736.21	129.34
3738.13	137.993
3740.04	143.809
3741.96	132.525
3743.87	144.041
3745.79	147.005
3747.7	144.252
3749.62	147.202
3751.53	150.142
3753.44	138.769
3755.35	118.788
3757.26	153.187
3759.17	138.91
3761.08	136.078
3762.99	147.572
3764.9	139.004
3766.81	136.17
3768.71	139.084
3770.62	116.19
3772.52	142.074
3774.43	127.778
3776.33	145.069
3778.24	116.403
3780.14	130.854
3782.04	133.824
3783.95	131.05
3785.85	131.153
3787.75	137.018
3789.65	125.562
3791.55	131.426
3793.45	137.314
3795.34	125.868
3797.24	143.372
3799.14	126.12
3801.04	140.764
3802.93	135.103
3804.83	132.346
3806.72	147.061
3808.62	126.823
3810.51	144.474
3812.4	141.701
3814.29	127.221
3816.19	136.129
3818.08	145.056
3819.97	136.395
3821.86	136.519
3823.75	133.697
3825.64	127.914
3827.52	133.904
3829.41	136.966
3831.3	140.045
3833.18	131.326
3835.07	131.445
3836.95	140.426
3838.84	137.58
3840.72	114.019
3842.61	123.032
3844.49	143.884
3846.37	120.21
3848.25	120.242
3850.13	111.376
3852.01	141.125
3853.89	123.32
3855.77	132.272
3857.65	132.279
3859.53	120.384
3861.41	135.266
3863.28	132.325
3865.16	117.547
3867.03	135.55
3868.91	135.734
3870.78	135.865
3872.66	132.896
3874.53	129.949
3876.4	129.99
3878.27	124.051
3880.14	118.111
3882.01	118.152
3883.89	124.184
3885.75	124.239
3887.62	121.305
3889.49	124.365
3891.36	121.439
3893.23	124.529
3895.09	118.651
3896.96	124.756
3898.82	127.86
3900.69	130.973
3902.55	109.982
3904.42	122.116
3906.28	125.227
3908.14	122.285
3910	107.27
3911.87	122.487
3913.73	119.561
3915.59	134.821
3917.45	131.925
3919.3	129.035
3921.16	123.116
3923.02	132.398
3924.88	138.645
3926.73	120.495
3928.59	141.997
3930.45	108.517
3932.3	133.089
3934.15	136.247
3936.01	124.092
3937.86	118.044
3939.71	133.49
3941.56	133.615
3943.42	124.537
3945.27	136.966
3947.12	109.371
3948.97	118.719
3950.81	121.895
3952.66	121.983
3954.51	122.062
3956.36	115.958
3958.2	134.583
3960.05	125.35
3961.9	125.4
3963.74	122.351
3965.58	119.287
3967.43	113.113
3969.27	134.817
3971.11	119.338
3972.96	113.158
3974.8	113.179
3976.64	119.399
3978.48	131.817
3980.32	110.105
3982.16	131.806
3984	122.498
3985.83	128.7
3987.67	110.085
3989.51	116.291
3991.34	125.611
3993.18	110.129
3995.01	122.576
3996.85	125.734
3998.68	100.947
