#Acq. time (s)=	45
#Accumulations=	2
#Range (cm-¹)=	1200...2399
#Windows=	6
#Auto scanning=	Off
#Autofocus=	Off
#Macrospot=	Off
#AutoExposure=	Off
#Spike filter=	Multiple accum.
#Delay time (s)=	2
#Binning=	1
#Readout mode=	Signal
#DeNoise=	Off
#ICS correction=	On
#Dark correction=	Off
#Inst. Process=	Off
#Detector Gain=	Best Dynamic
#Detector ADC=	50 kHz EM
#Detector EM gain=	100
#Detector temperature (°C)=	-60.09
#Instrument=	LabRAM HR Evol
#Detector=	SIN-EM FIVIS
#Objective=	x100_VIS_LWD
#Grating=	1800 (450-850nm)
#ND Filter=	100%
#Laser=	633nm_Edge
#Hole=	49.98
#Temperature=	0
#Range=	Visible
#StageXY=	75x50mm Scan+
#StageZ=	Z motor
#X (µm)=	0
#Y (µm)=	0
#Z (µm)=	4.4
#Full time(mm:ss)=	9:31
#Project=	21_11_22
#Sample=	BU04w
#Site=	
#Title=	BU04w-A-FF3-FI10-V_1800 (450-850nm)_633nm_Edge_100%_x100_VIS_LWD_H50um_45sX2
#Remark=	
#Date=	22.11.2021 11:53
#Acquired=	22.11.2021 11:53:53
1201.04	292.519
1201.21	294.242
1201.39	292.759
1201.56	295.17
1201.73	290.536
1201.9	300.432
1202.08	296.61
1202.25	294.643
1202.42	294.589
1202.59	295.247
1202.76	293.741
1202.94	294.679
1203.11	299.538
1203.28	289.983
1203.45	292.154
1203.62	293.621
1203.8	295.362
1203.97	291.41
1204.14	293.717
1204.31	290.285
1204.48	291.63
1204.66	294.381
1204.83	290.949
1205	294.134
1205.17	293.716
1205.34	296.274
1205.52	296.347
1205.69	292.201
1205.86	297.041
1206.03	296.163
1206.2	291.299
1206.38	293.679
1206.55	295.351
1206.72	295.7
1206.89	292.837
1207.06	293.155
1207.24	293.934
1207.41	295.392
1207.58	296.389
1207.75	290.116
1207.92	295.209
1208.09	296.237
1208.27	292.763
1208.44	294.985
1208.61	297.103
1208.78	295.931
1208.95	296.714
1209.13	295.913
1209.3	294.807
1209.47	295.811
1209.64	299.413
1209.81	295.976
1209.98	293.268
1210.16	294.086
1210.33	293.121
1210.5	296.825
1210.67	296.299
1210.84	289.915
1211.02	290.833
1211.19	295.659
1211.36	295.62
1211.53	291.932
1211.7	296.662
1211.87	293.723
1212.04	295.425
1212.22	295.974
1212.39	296.426
1212.56	292.512
1212.73	296.377
1212.9	296.648
1213.08	295.01
1213.25	297.759
1213.42	296.734
1213.59	299.243
1213.76	293.832
1213.93	295.135
1214.11	293.494
1214.28	295.815
1214.45	292.988
1214.62	299.029
1214.79	296.642
1214.96	296.536
1215.13	296.066
1215.31	295.891
1215.48	298.091
1215.65	297.211
1215.82	294.923
1215.99	294.283
1216.16	293.991
1216.33	294.13
1216.51	293.88
1216.68	299.116
1216.85	296.924
1217.02	295.799
1217.19	296.525
1217.36	293.757
1217.54	295.186
1217.71	298.213
1217.88	295.606
1218.05	294.578
1218.22	298.649
1218.39	291.386
1218.56	294.999
1218.74	297.917
1218.91	296.128
1219.08	296.623
1219.25	299.026
1219.42	303.147
1219.59	295.906
1219.76	295.429
1219.93	297.767
1220.11	299.474
1220.28	297.576
1220.45	296.819
1220.62	297.722
1220.79	298.902
1220.96	298.235
1221.13	294.108
1221.31	293.373
1221.48	293.459
1221.65	293.346
1221.82	296.697
1221.99	296.188
1222.16	300.275
1222.33	297.976
1222.5	297.208
1222.68	294.583
1222.85	296.557
1223.02	297.161
1223.19	299.977
1223.36	301.007
1223.53	298.353
1223.7	297.397
1223.87	294.329
1224.04	297.113
1224.22	296.634
1224.39	294.204
1224.56	295.884
1224.73	300.179
1224.9	298.677
1225.07	294.146
1225.24	297.202
1225.41	297.457
1225.59	293.354
1225.76	296.625
1225.93	300.428
1226.1	296.43
1226.27	297.074
1226.44	300.199
1226.61	299.875
1226.78	296.037
1226.95	296.531
1227.12	301.516
1227.3	297.553
1227.47	297.013
1227.64	300.102
1227.81	298.055
1227.98	298.272
1228.15	301.013
1228.32	299.326
1228.49	298.786
1228.66	298.457
1228.84	296.351
1229.01	299.352
1229.18	294.778
1229.35	311.107
1229.52	304.551
1229.69	296.7
1229.86	297.953
1230.03	295.776
1230.2	301.035
1230.37	294.945
1230.54	299.973
1230.71	299.356
1230.89	300.459
1231.06	295.016
1231.23	302.066
1231.4	300.181
1231.57	302.349
1231.74	300.813
1231.91	300.549
1232.08	298.283
1232.25	300.509
1232.42	301.077
1232.59	300.139
1232.77	302.616
1232.94	302.367
1233.11	300.951
1233.28	299.083
1233.45	296.953
1233.62	299.303
1233.79	298.423
1233.96	300.995
1234.13	301.73
1234.3	302.428
1234.47	300.083
1234.64	305.924
1234.81	300.117
1234.99	304.537
1235.16	299.76
1235.33	299.525
1235.5	303.76
1235.67	306.864
1235.84	304.634
1236.01	299.476
1236.18	303.903
1236.35	302.994
1236.52	304.905
1236.69	301.693
1236.86	299.563
1237.03	301.977
1237.2	303.432
1237.37	300.846
1237.54	303.636
1237.72	299.723
1237.89	303.32
1238.06	301.56
1238.23	296.424
1238.4	300.595
1238.57	304.676
1238.74	301.428
1238.91	303.296
1239.08	302.078
1239.25	298.361
1239.42	301.81
1239.59	299.436
1239.76	298.567
1239.93	300.172
1240.1	302.858
1240.27	304.015
1240.44	303.725
1240.61	303.782
1240.79	302.608
1240.96	302.503
1241.13	302.62
1241.3	305.849
1241.47	302.848
1241.64	300.035
1241.81	305.4
1241.98	300.952
1242.15	301.497
1242.32	300.013
1242.49	302.66
1242.66	300.513
1242.83	304.637
1243	297.893
1243.17	299.87
1243.34	305.895
1243.51	307.658
1243.68	304.366
1243.85	306.535
1244.02	301.709
1244.19	301.33
1244.36	306.784
1244.53	306.619
1244.7	308.041
1244.87	300.486
1245.05	301.673
1245.21	303.328
1245.39	308.441
1245.55	304.968
1245.73	305.902
1245.9	302.774
1246.07	304.895
1246.24	303.302
1246.41	302.086
1246.58	305.577
1246.75	309.25
1246.92	309.399
1247.09	306.247
1247.26	304.268
1247.43	301.609
1247.6	305.972
1247.77	305.812
1247.94	307.552
1248.11	305.579
1248.28	305.751
1248.45	304.739
1248.62	305.894
1248.79	304.127
1248.96	305.463
1249.13	305.094
1249.3	304.806
1249.47	303.95
1249.64	303.753
1249.81	306.884
1249.98	308.12
1250.15	306.089
1250.32	303.235
1250.49	304.574
1250.66	303.794
1250.83	305.314
1251	303.982
1251.17	306.63
1251.34	303.513
1251.51	304.568
1251.68	307.172
1251.85	305.215
1252.02	306.218
1252.19	304.096
1252.36	303.098
1252.53	308.718
1252.7	306.276
1252.87	302.154
1253.04	305.089
1253.21	304.501
1253.38	305.656
1253.55	301.295
1253.72	306.921
1253.89	305.517
1254.06	307.038
1254.23	305.012
1254.4	307.21
1254.57	306.977
1254.74	308.15
1254.91	306.566
1255.08	302.953
1255.25	306.891
1255.42	304.775
1255.59	304.946
1255.76	301.837
1255.93	305.267
1256.1	302.637
1256.27	307.35
1256.44	304.838
1256.61	303.469
1256.78	305.962
1256.95	306.989
1257.12	302.336
1257.29	308.74
1257.46	303.588
1257.63	308.511
1257.8	306.763
1257.97	306.584
1258.13	305.507
1258.31	317.529
1258.47	310.161
1258.64	305.239
1258.81	311.989
1258.98	304.874
1259.15	306.146
1259.32	310.448
1259.49	302.854
1259.66	303.428
1259.83	307.405
1260	304.299
1260.17	308.717
1260.34	302.95
1260.51	307.046
1260.68	307.116
1260.85	304.9
1261.02	309.86
1261.19	308.02
1261.36	309.843
1261.53	307.543
1261.7	310.057
1261.87	305.712
1262.04	307.452
1262.21	309.598
1262.38	306.066
1262.55	304.765
1262.72	308.111
1262.89	304.869
1263.05	305.953
1263.22	306.019
1263.39	311.596
1263.56	313.571
1263.73	318.914
1263.9	311.621
1264.07	310.247
1264.24	307.447
1264.41	314.574
1264.58	305.039
1264.75	306.207
1264.92	310.543
1265.09	311.723
1265.26	308.335
1265.43	308.399
1265.6	307.413
1265.77	306.338
1265.94	311.547
1266.11	307.622
1266.27	307.798
1266.44	304.391
1266.61	312.016
1266.78	309.03
1266.95	305.984
1267.12	305.446
1267.29	306.339
1267.46	304.695
1267.63	307.006
1267.8	304.178
1267.97	307.013
1268.14	301.909
1268.31	307.992
1268.48	307.973
1268.65	310.968
1268.81	308.773
1268.98	302.848
1269.15	304.589
1269.32	307.515
1269.49	307.485
1269.66	304.344
1269.83	308.726
1270	303.536
1270.17	306.311
1270.34	304.299
1270.51	307.365
1270.68	302.642
1270.85	306.812
1271.01	300.445
1271.18	305.783
1271.35	307.54
1271.52	305.293
1271.69	305.484
1271.86	307.154
1272.03	304.283
1272.2	307.495
1272.37	305.041
1272.54	308.351
1272.71	305.645
1272.88	302.813
1273.04	310.527
1273.21	306
1273.38	304.697
1273.55	305.105
1273.72	309.309
1273.89	308.704
1274.06	311.246
1274.23	305.42
1274.4	304.576
1274.57	305.115
1274.74	305.712
1274.9	304.855
1275.07	306.112
1275.24	307.698
1275.41	306.662
1275.58	309.314
1275.75	307.161
1275.92	303.896
1276.09	309.272
1276.26	304.944
1276.42	302.109
1276.59	312.033
1276.76	307.592
1276.93	304.794
1277.1	303.907
1277.27	305.939
1277.44	303.83
1277.61	306.206
1277.78	304.47
1277.95	311.384
1278.11	302.931
1278.28	303.835
1278.45	305.098
1278.62	304.127
1278.79	304.984
1278.96	306.108
1279.13	304.666
1279.3	306.508
1279.46	308.334
1279.63	309.341
1279.8	306.248
1279.97	308.254
1280.14	306.471
1280.31	303.887
1280.48	306.675
1280.65	309.599
1280.82	307.278
1280.98	307.876
1281.15	310.339
1281.32	307.666
1281.49	310.715
1281.66	309.2
1281.83	318.871
1282	319.077
1282.17	313.489
1282.33	315.891
1282.5	325.295
1282.67	329.86
1282.84	341.285
1283.01	337.865
1283.18	352.171
1283.35	351.557
1283.52	374.133
1283.68	396.251
1283.85	420.235
1284.02	459.241
1284.19	465.348
1284.36	451.263
1284.53	450.49
1284.7	398.465
1284.86	386.591
1285.03	350.032
1285.2	339.484
1285.37	331.963
1285.54	317.763
1285.71	320.855
1285.88	312.795
1286.04	306.98
1286.21	311.881
1286.38	310.527
1286.55	314.726
1286.72	310.041
1286.89	311.304
1287.06	316.275
1287.22	305.913
1287.39	305.45
1287.56	312.695
1287.73	309.013
1287.9	302.298
1288.07	306.333
1288.24	306.138
1288.4	307.619
1288.57	302.462
1288.74	302.514
1288.91	302.084
1289.08	300.598
1289.25	303.977
1289.41	306.272
1289.58	306.977
1289.75	305.783
1289.92	303.735
1290.09	305.917
1290.26	307.111
1290.42	303.913
1290.59	307.041
1290.76	305.356
1290.93	301.608
1291.1	299.284
1291.27	302.103
1291.44	303.056
1291.6	305.277
1291.77	301.9
1291.94	299.178
1292.11	307.67
1292.28	302.511
1292.44	300.804
1292.61	303.113
1292.78	302.661
1292.95	303.881
1293.12	303.265
1293.29	304.151
1293.45	298.205
1293.62	299.507
1293.79	304.473
1293.96	303.037
1294.13	306.487
1294.29	297.672
1294.46	299.327
1294.63	305.267
1294.8	303.2
1294.97	306.67
1295.14	300.497
1295.3	301.859
1295.47	302.504
1295.64	300.49
1295.81	302.181
1295.98	302.737
1296.14	299.66
1296.31	299.374
1296.48	298.656
1296.65	304.285
1296.82	302.746
1296.99	303.126
1297.15	298.951
1297.32	304.614
1297.49	301.172
1297.66	299.958
1297.83	298.067
1297.99	301.264
1298.16	305.833
1298.33	302.947
1298.5	303.164
1298.67	303.596
1298.83	304.502
1299	299.287
1299.17	301.696
1299.34	296.805
1299.51	301.992
1299.67	296.657
1299.84	299.112
1300.01	305.58
1300.18	309.428
1300.35	300.03
1300.51	307.699
1300.68	297.436
1300.85	302.958
1301.02	300.288
1301.19	308.431
1301.35	308.999
1301.52	304.251
1301.69	299.21
1301.86	304.052
1302.03	300.296
1302.19	307.055
1302.36	306.07
1302.53	297.327
1302.7	301.816
1302.86	300.269
1303.03	302.083
1303.2	304.08
1303.37	306.231
1303.54	301.507
1303.7	301.96
1303.87	296.06
1304.04	302.662
1304.21	306.843
1304.37	302.563
1304.54	304.367
1304.71	303.151
1304.88	298.705
1305.05	302.774
1305.21	299.342
1305.38	302.501
1305.55	300.265
1305.72	298.92
1305.88	298.822
1306.05	305.141
1306.22	301.204
1306.39	299.925
1306.55	300.858
1306.72	300.143
1306.89	302.069
1307.06	297.873
1307.23	302.097
1307.39	304.089
1307.56	302.899
1307.73	301.923
1307.9	301.52
1308.06	302.194
1308.23	303.942
1308.4	300.589
1308.57	300.435
1308.73	299.768
1308.9	302.615
1309.07	301.963
1309.24	299.089
1309.41	305.212
1309.57	305.427
1309.74	299.847
1309.91	304.334
1310.07	298.065
1310.24	303.119
1310.41	297.987
1310.58	311.404
1310.75	298.626
1310.91	304.676
1311.08	312.093
1311.25	299.33
1311.42	303.531
1311.58	301.788
1311.75	300.789
1311.92	301.911
1312.08	302.572
1312.25	302.525
1312.42	300.609
1312.59	300.121
1312.75	300.38
1312.92	301.616
1313.09	303.503
1313.26	301.212
1313.42	302.533
1313.59	301.229
1313.76	300.203
1313.93	299.582
1314.09	306.077
1314.26	299.925
1314.43	300.632
1314.6	305.837
1314.76	299.652
1314.93	300.772
1315.1	300.222
1315.27	299.513
1315.43	305.397
1315.6	301.234
1315.77	300.652
1315.93	302.252
1316.1	301.812
1316.27	301.432
1316.44	300.564
1316.6	300.97
1316.77	301.024
1316.94	302.468
1317.1	304.149
1317.27	300.929
1317.44	303.747
1317.61	302.568
1317.77	300.709
1317.94	305.703
1318.11	305.53
1318.28	304.545
1318.44	302.716
1318.61	301.19
1318.78	297.245
1318.94	301.435
1319.11	301.489
1319.28	302.681
1319.45	304.35
1319.61	301.808
1319.78	299.076
1319.95	304.007
1320.11	300.94
1320.28	299.259
1320.45	302.721
1320.62	303.06
1320.78	303.163
1320.95	305.994
1321.12	299.641
1321.28	310.662
1321.45	302.404
1321.62	303.575
1321.78	302.111
1321.95	299.864
1322.12	304.303
1322.29	305.46
1322.45	305.543
1322.62	300.558
1322.79	301.698
1322.95	301.806
1323.12	303.776
1323.29	304.603
1323.45	304.517
1323.62	303.48
1323.79	303.961
1323.96	308.456
1324.12	304.052
1324.29	303.102
1324.46	302.279
1324.62	301.086
1324.79	306.481
1324.96	301.988
1325.12	301.783
1325.29	300.554
1325.46	305.522
1325.62	303.507
1325.79	301.819
1325.96	302.236
1326.13	304.658
1326.29	300.857
1326.46	305.921
1326.63	304.899
1326.79	306.13
1326.96	302.875
1327.13	305.076
1327.29	308.545
1327.46	307.875
1327.63	305.02
1327.79	302.424
1327.96	301.702
1328.13	306.178
1328.29	310.217
1328.46	304.995
1328.63	300.488
1328.79	304.418
1328.96	306.436
1329.13	304.687
1329.29	304.173
1329.46	306.713
1329.63	301.171
1329.79	305.868
1329.96	307.418
1330.13	306.826
1330.3	306.359
1330.46	304.557
1330.63	307.845
1330.8	305.357
1330.96	302.867
1331.13	306.04
1331.29	302.453
1331.46	300.728
1331.63	300.733
1331.79	304.468
1331.96	306.58
1332.13	306.102
1332.29	306.098
1332.46	301.397
1332.63	303.769
1332.79	302.172
1332.96	303.711
1333.13	306.473
1333.29	306.253
1333.46	307.365
1333.63	307.621
1333.79	306.029
1333.96	304.132
1334.13	307.914
1334.29	306.04
1334.46	303.385
1334.63	306.699
1334.79	316.139
1334.96	304.837
1335.13	305.07
1335.29	309.107
1335.46	308.399
1335.62	304.911
1335.79	309.409
1335.96	309.483
1336.12	310.357
1336.29	303.159
1336.46	301.917
1336.62	308.135
1336.79	307.604
1336.96	308.402
1337.12	306.549
1337.29	304.637
1337.46	306.539
1337.62	305.256
1337.79	303.413
1337.95	305.028
1338.12	307.846
1338.29	310.37
1338.45	306.698
1338.62	304.886
1338.79	309.008
1338.95	304.965
1339.12	304.945
1339.29	305.411
1339.45	306.517
1339.62	308.159
1339.78	307.175
1339.95	303.32
1340.12	304.503
1340.28	305.186
1340.45	308.098
1340.62	309.795
1340.78	310.63
1340.95	305.483
1341.11	304.967
1341.28	306.324
1341.45	311.154
1341.61	313.906
1341.78	307.947
1341.94	312.324
1342.11	307.535
1342.28	308.75
1342.44	311.794
1342.61	308.398
1342.78	310.501
1342.94	309.629
1343.11	309.641
1343.27	307.74
1343.44	307.835
1343.61	311.846
1343.77	312.784
1343.94	313.882
1344.1	304.819
1344.27	312.189
1344.44	309.033
1344.6	311.14
1344.77	313.449
1344.93	307.137
1345.1	307.144
1345.27	311.664
1345.43	305.479
1345.6	312.832
1345.77	305.86
1345.93	309.557
1346.1	305.248
1346.26	305.623
1346.43	308.367
1346.6	306.77
1346.76	309.107
1346.93	309.113
1347.09	306.972
1347.26	305.909
1347.42	307.428
1347.59	309.225
1347.76	324.695
1347.92	309.497
1348.09	311.046
1348.25	305.735
1348.42	306.756
1348.59	307.871
1348.75	310.491
1348.92	306.275
1349.08	307.887
1349.25	310.183
1349.42	307.535
1349.58	309.739
1349.75	306.022
1349.91	308.876
1350.08	310.618
1350.25	313.073
1350.41	308.443
1350.58	311.948
1350.74	306.258
1350.91	310.361
1351.07	308.701
1351.24	307.061
1351.41	306.92
1351.57	308.835
1351.74	318.984
1351.9	309.6
1352.07	312.151
1352.23	315.755
1352.4	309.737
1352.57	308.832
1352.73	308.995
1352.9	309.784
1353.06	307.139
1353.23	311.113
1353.39	311.695
1353.56	310.33
1353.73	311.854
1353.89	309.293
1354.06	306.058
1354.22	312.515
1354.39	306.79
1354.55	309.846
1354.72	311.993
1354.88	309.368
1355.05	312.714
1355.22	311.519
1355.38	305.883
1355.55	311.145
1355.71	309.522
1355.88	313.771
1356.04	308.588
1356.21	309.259
1356.38	313.549
1356.54	311.026
1356.71	306.542
1356.87	310.851
1357.04	311.462
1357.2	312.108
1357.37	314.881
1357.53	309.824
1357.7	310.992
1357.87	311.429
1358.03	311.14
1358.2	309.178
1358.36	307.451
1358.53	305.951
1358.69	305.847
1358.86	309.439
1359.02	310.401
1359.19	310.141
1359.35	309.471
1359.52	308.521
1359.69	307.565
1359.85	321.128
1360.02	310.948
1360.18	307.59
1360.35	310.619
1360.51	309.858
1360.68	310.395
1360.84	310.002
1361.01	311.404
1361.17	311.733
1361.34	309.899
1361.5	310.476
1361.67	309.369
1361.84	311.996
1362	310.472
1362.17	309.772
1362.33	311.883
1362.5	312.265
1362.66	315.266
1362.83	312.488
1362.99	312.679
1363.16	308.659
1363.32	314.314
1363.49	309.631
1363.65	309.196
1363.82	311.94
1363.98	312.755
1364.15	310.592
1364.31	316.313
1364.48	311.22
1364.64	313.767
1364.81	309.789
1364.98	315.035
1365.14	312.317
1365.31	313.37
1365.47	315.088
1365.64	308.402
1365.8	309.35
1365.97	314.46
1366.13	313.507
1366.3	313.153
1366.46	311.38
1366.63	307.864
1366.79	307.733
1366.96	309.849
1367.12	312.435
1367.29	309.666
1367.45	312.161
1367.62	311.307
1367.78	313.724
1367.95	313.758
1368.11	310.031
1368.28	309.613
1368.44	312.076
1368.61	310.143
1368.77	312.291
1368.94	309.5
1369.1	312.947
1369.27	317.996
1369.43	321.462
1369.6	316.89
1369.76	316.629
1369.93	315.463
1370.09	315.177
1370.26	308.087
1370.42	312.904
1370.59	315.295
1370.75	310.954
1370.92	311.486
1371.08	312.399
1371.25	312.163
1371.41	315.894
1371.58	315.167
1371.74	309.753
1371.91	314.941
1372.07	309.995
1372.24	324.166
1372.4	319.074
1372.57	310.863
1372.73	312.936
1372.9	307.843
1373.06	313.541
1373.23	311.602
1373.39	311.99
1373.56	313.034
1373.72	311.032
1373.89	316.225
1374.05	306.4
1374.22	311.64
1374.38	312.177
1374.54	311.166
1374.71	312.111
1374.87	306.555
1375.04	310.279
1375.2	310.354
1375.37	311.568
1375.53	313.053
1375.7	313.776
1375.86	310.853
1376.03	314.495
1376.19	309.672
1376.36	309.682
1376.52	311.249
1376.69	312.555
1376.85	314.416
1377.02	315.678
1377.18	310.24
1377.34	314.195
1377.51	325.257
1377.67	315.033
1377.84	311.63
1378	314.246
1378.17	309.068
1378.33	312.989
1378.5	312.569
1378.66	309.199
1378.83	314.523
1378.99	314.877
1379.16	318.154
1379.32	311.27
1379.48	310.256
1379.65	313.004
1379.81	325.161
1379.98	313.148
1380.14	315.404
1380.31	314.149
1380.47	313.677
1380.64	314.924
1380.8	317.502
1380.97	314.912
1381.13	313.881
1381.3	313.181
1381.46	315.066
1381.62	313.701
1381.79	311.227
1381.95	313.492
1382.12	315.845
1382.28	317.116
1382.45	310.712
1382.61	316.271
1382.78	317.473
1382.94	309.92
1383.1	312.478
1383.27	314.635
1383.43	315.153
1383.6	316.12
1383.76	319.009
1383.93	312.996
1384.09	310.657
1384.26	323.248
1384.42	320.795
1384.58	313.511
1384.75	319.078
1384.91	318.399
1385.08	319.176
1385.24	322.907
1385.4	319.904
1385.57	321.783
1385.73	327.471
1385.9	331.173
1386.06	337.528
1386.23	341.878
1386.39	339.205
1386.56	357.083
1386.72	382.871
1386.88	415.817
1387.05	456.223
1387.21	528.95
1387.38	617.6
1387.54	649.629
1387.7	622.193
1387.87	540.298
1388.03	449.107
1388.2	389.966
1388.36	359.21
1388.53	337.948
1388.69	345.401
1388.85	328.694
1389.02	325.304
1389.18	329.507
1389.35	319.451
1389.51	320.594
1389.68	317.695
1389.84	322.103
1390	324.537
1390.17	321.163
1390.33	313.541
1390.5	306.441
1390.66	314.865
1390.82	311.689
1390.99	310.939
1391.15	312.307
1391.32	315.566
1391.48	314.897
1391.64	309.515
1391.81	316.689
1391.97	313.701
1392.14	310.762
1392.3	310.712
1392.46	313.52
1392.63	314.506
1392.79	311.674
1392.96	310.644
1393.12	317.507
1393.28	314.225
1393.45	315.621
1393.61	309.686
1393.78	315.26
1393.94	310.024
1394.1	314.26
1394.27	311.494
1394.43	316.232
1394.6	316.236
1394.76	311.659
1394.92	311.888
1395.09	313.148
1395.25	313.664
1395.42	310.44
1395.58	313.485
1395.74	306.312
1395.91	305.319
1396.07	308.758
1396.24	308.086
1396.4	308.706
1396.56	313.237
1396.73	316.516
1396.89	313.539
1397.05	308.532
1397.22	315.169
1397.38	312.101
1397.55	307.905
1397.71	308.556
1397.87	315.56
1398.04	310.2
1398.2	308.594
1398.36	304.267
1398.53	308.437
1398.69	312.784
1398.86	312.643
1399.02	308.385
1399.18	312.626
1399.35	312.488
1399.51	309.765
1399.67	310.1
1399.84	316.171
1400	309.897
1400.17	314.941
1400.33	309.963
1400.49	307.996
1400.66	308.39
1400.82	308.615
1400.98	309.345
1401.15	316.568
1401.31	309.231
1401.47	310.244
1401.64	309.294
1401.8	314.784
1401.97	309.687
1402.13	315.95
1402.29	315.837
1402.46	311.778
1402.62	313.825
1402.78	311.09
1402.95	313.104
1403.11	311.616
1403.27	306.871
1403.44	313.017
1403.6	310.568
1403.76	309.525
1403.93	313.526
1404.09	311.34
1404.26	308.266
1404.42	314.399
1404.58	313.486
1404.75	309.372
1404.91	311.138
1405.07	312.035
1405.24	311.196
1405.4	311.27
1405.56	314.382
1405.73	313.616
1405.89	314.714
1406.05	312.338
1406.22	309.231
1406.38	311.75
1406.54	314.99
1406.71	310.477
1406.87	312.51
1407.03	315.569
1407.2	313.358
1407.36	312.049
1407.52	317.351
1407.69	311.657
1407.85	318.906
1408.01	312.584
1408.18	317.857
1408.34	314.563
1408.5	323.757
1408.67	319.736
1408.83	323.278
1408.99	326.885
1409.16	322.58
1409.32	321.138
1409.48	321.195
1409.65	320.597
1409.81	316.756
1409.97	321.644
1410.14	314.687
1410.3	313.554
1410.46	314.747
1410.63	316.985
1410.79	311.02
1410.95	313.024
1411.12	311.958
1411.28	315.019
1411.44	310.758
1411.61	310.144
1411.77	310.348
1411.93	311.789
1412.1	310.75
1412.26	322.046
1412.42	309.59
1412.58	315.992
1412.75	309.946
1412.91	311.385
1413.08	308.709
1413.24	313.595
1413.4	308.714
1413.56	309.998
1413.73	309.198
1413.89	311.364
1414.05	312.628
1414.22	309.242
1414.38	307.747
1414.54	308.849
1414.71	308.902
1414.87	311.047
1415.03	312.566
1415.19	314.213
1415.36	313.254
1415.52	310.381
1415.68	311.331
1415.85	308.931
1416.01	313.14
1416.17	312.715
1416.34	309.976
1416.5	313.516
1416.66	309.577
1416.83	315.367
1416.99	309.983
1417.15	311.66
1417.31	309.834
1417.48	317.779
1417.64	309.794
1417.8	314.356
1417.97	307.925
1418.13	318.834
1418.29	317.79
1418.46	308.065
1418.62	311.43
1418.78	311.782
1418.94	311.417
1419.11	311.758
1419.27	318.035
1419.43	312.122
1419.59	308.691
1419.76	313.116
1419.92	316.055
1420.08	310.866
1420.25	309.755
1420.41	314.661
1420.57	308.394
1420.73	312.001
1420.9	312.596
1421.06	308.082
1421.22	312.333
1421.39	314.159
1421.55	311.156
1421.71	319.193
1421.87	314.06
1422.04	311.695
1422.2	313.902
1422.36	316.18
1422.52	314.445
1422.69	314.913
1422.85	308.974
1423.01	315.637
1423.18	307.945
1423.34	309.709
1423.5	310.023
1423.66	310.196
1423.83	313.235
1423.99	310.854
1424.15	313.369
1424.31	310.937
1424.48	313.875
1424.64	310.998
1424.8	314.424
1424.97	318.247
1425.13	321.584
1425.29	308.865
1425.45	317.134
1425.61	314.696
1425.78	313.992
1425.94	310.886
1426.1	312.272
1426.27	312.185
1426.43	310.949
1426.59	311.051
1426.75	311.027
1426.92	314.329
1427.08	310.256
1427.24	315.662
1427.4	310.694
1427.57	313.702
1427.73	311.6
1427.89	312.684
1428.05	313.435
1428.22	310.006
1428.38	313.688
1428.54	309.436
1428.7	312.721
1428.87	314.023
1429.03	311.966
1429.19	314.665
1429.35	312.061
1429.52	314.34
1429.68	316.029
1429.84	316.589
1430	315.407
1430.17	316.721
1430.33	310.334
1430.49	314.203
1430.65	311.278
1430.82	312.451
1430.98	310.603
1431.14	314.039
1431.3	312.872
1431.46	309.704
1431.63	312.685
1431.79	310.537
1431.95	314.157
1432.11	315.018
1432.28	312.93
1432.44	308.466
1432.6	313.022
1432.76	309.838
1432.93	313.334
1433.09	310.75
1433.25	309.624
1433.41	316.173
1433.57	316.132
1433.74	313.211
1433.9	309.632
1434.06	314.627
1434.22	314.864
1434.38	315.335
1434.55	316.176
1434.71	319.381
1434.87	311.684
1435.03	314.782
1435.2	316.161
1435.36	312.062
1435.52	315.786
1435.68	310.939
1435.85	312.404
1436.01	311.349
1436.17	310.958
1436.33	309.851
1436.49	318.011
1436.66	315.974
1436.82	314.91
1436.98	315.627
1437.14	312.482
1437.3	314.965
1437.47	319.598
1437.63	316.364
1437.79	317.901
1437.95	312.097
1438.11	315.706
1438.28	311.342
1438.44	314.586
1438.6	318.366
1438.76	315.302
1438.92	313.276
1439.09	313.893
1439.25	313.654
1439.41	316.059
1439.57	314.753
1439.73	317.015
1439.9	314.583
1440.06	314.432
1440.22	315.585
1440.38	314.988
1440.54	310.396
1440.71	315.123
1440.87	314.415
1441.03	311.292
1441.19	312.584
1441.35	312.648
1441.52	319.365
1441.68	313.491
1441.84	310.928
1442	313.774
1442.16	315.278
1442.33	314.301
1442.49	314.576
1442.65	316.643
1442.81	313.514
1442.97	322.744
1443.14	316.791
1443.3	315.567
1443.46	313.134
1443.62	317.251
1443.78	316.796
1443.94	315.529
1444.11	317.675
1444.27	310.469
1444.43	317.002
1444.59	318.299
1444.75	315.578
1444.91	315.934
1445.08	315.94
1445.24	314.836
1445.4	312.332
1445.56	314.934
1445.72	313.067
1445.88	314.228
1446.05	311.377
1446.21	315.827
1446.37	308.868
1446.53	316.092
1446.69	310.951
1446.85	315.281
1447.02	314.21
1447.18	312.537
1447.34	316.195
1447.5	315.435
1447.66	320.966
1447.82	314.499
1447.99	314.118
1448.15	313.904
1448.31	315.081
1448.47	317.252
1448.63	317.67
1448.79	311.515
1448.96	324.092
1449.12	315.652
1449.28	312.799
1449.44	317.3
1449.6	316.967
1449.76	317.19
1449.93	317.127
1450.09	315.533
1450.25	313.898
1450.41	312.459
1450.57	316.846
1450.73	315.54
1450.9	316.814
1451.06	317.431
1451.22	314.241
1451.38	312.255
1451.54	318.068
1451.7	314.76
1451.86	314.623
1452.03	313.527
1452.19	315.214
1452.35	317.675
1452.51	314.625
1452.67	317.962
1452.83	317.097
1452.99	318.042
1453.16	315.289
1453.32	316.829
1453.48	318.853
1453.64	314.973
1453.8	319.218
1453.96	317.046
1454.12	314.665
1454.28	313.303
1454.45	316.818
1454.61	317.744
1454.77	315.391
1454.93	314.509
1455.09	317.12
1455.25	314.95
1455.41	313.384
1455.58	314.937
1455.74	315.331
1455.9	315.167
1456.06	314.694
1456.22	314.471
1456.38	312.604
1456.54	312.685
1456.7	313.243
1456.86	312.975
1457.03	313.32
1457.19	313.869
1457.35	313.9
1457.51	315.987
1457.67	312.252
1457.83	318.596
1457.99	320.769
1458.15	316.269
1458.32	313.346
1458.48	316.096
1458.64	315.951
1458.8	315.322
1458.96	313.857
1459.12	317.423
1459.28	316.493
1459.44	314.471
1459.61	314.846
1459.77	315.248
1459.93	312.222
1460.09	317.73
1460.25	314.524
1460.41	312.647
1460.57	313.581
1460.73	317.627
1460.9	315.361
1461.06	317.639
1461.22	315.815
1461.38	315.78
1461.54	319.316
1461.7	316.438
1461.86	315.42
1462.02	314.565
1462.18	315.94
1462.34	316.494
1462.5	319.447
1462.67	315.479
1462.83	317.633
1462.99	316.923
1463.15	314.95
1463.31	317.087
1463.47	317.078
1463.63	318.532
1463.79	316.278
1463.95	315.651
1464.11	317.072
1464.28	316.288
1464.44	315.916
1464.6	315.534
1464.76	314.937
1464.92	315.541
1465.08	316.366
1465.24	317.717
1465.4	317.999
1465.56	316.587
1465.72	315.623
1465.88	315.583
1466.04	314.164
1466.21	314.767
1466.37	320.08
1466.53	321.1
1466.69	316.467
1466.85	314.682
1467.01	317.435
1467.17	318.096
1467.27	314.56
1467.43	310.503
1467.59	312.323
1467.76	316.437
1467.92	313.349
1468.08	321.578
1468.25	315.798
1468.41	314.712
1468.57	316.786
1468.74	315.564
1468.9	317.342
1469.07	313.437
1469.23	314.14
1469.39	320.704
1469.56	316.123
1469.72	317.637
1469.88	315.867
1470.04	317.761
1470.21	316.649
1470.37	314.648
1470.53	318.262
1470.7	318.111
1470.86	314.571
1471.02	315.64
1471.19	311.678
1471.35	316.796
1471.51	314.877
1471.68	313.668
1471.84	313.72
1472	313.249
1472.17	315.341
1472.33	312.86
1472.49	314.302
1472.66	313.755
1472.82	314.818
1472.98	314.533
1473.15	319.827
1473.31	314.617
1473.47	313.5
1473.64	313.805
1473.8	313.797
1473.96	315.629
1474.12	312.796
1474.29	316.607
1474.45	317.281
1474.61	314.734
1474.78	316.885
1474.94	315.053
1475.1	318.809
1475.27	317.53
1475.43	312.913
1475.59	315.758
1475.76	317.622
1475.92	313.597
1476.08	315.842
1476.25	316.382
1476.41	322.989
1476.57	313.164
1476.73	316.915
1476.9	313.774
1477.06	313.86
1477.22	317.62
1477.39	315.328
1477.55	315.507
1477.71	316.783
1477.88	314.809
1478.04	317.827
1478.2	314.804
1478.36	332.636
1478.53	320.944
1478.69	314.789
1478.85	313.951
1479.02	316.228
1479.18	313.709
1479.34	316.678
1479.51	316.986
1479.67	317.371
1479.83	314.584
1479.99	313.485
1480.16	317.7
1480.32	320.067
1480.48	319.847
1480.65	314.279
1480.81	315.275
1480.97	316.081
1481.13	316.25
1481.3	315.165
1481.46	314.737
1481.62	317.802
1481.79	315.918
1481.95	312.769
1482.11	313.546
1482.27	315.36
1482.44	316.188
1482.6	311.278
1482.76	312.646
1482.92	314.469
1483.09	317.346
1483.25	313.93
1483.41	319.875
1483.58	314.862
1483.74	315.76
1483.9	316.242
1484.06	315.206
1484.23	315.515
1484.39	317.118
1484.55	317.341
1484.72	316.115
1484.88	314.144
1485.04	315.819
1485.2	318.31
1485.37	317.803
1485.53	316.519
1485.69	314.891
1485.85	316.214
1486.02	318.154
1486.18	312.554
1486.34	317.834
1486.5	312.604
1486.67	313.192
1486.83	314.804
1486.99	311.759
1487.15	315.059
1487.32	314.051
1487.48	314.529
1487.64	313.776
1487.81	318.061
1487.97	316.922
1488.13	313.503
1488.29	316.681
1488.46	314.431
1488.62	312.424
1488.78	317.172
1488.94	313.377
1489.1	318.221
1489.27	315.71
1489.43	314.165
1489.59	313.463
1489.76	314.769
1489.92	317.222
1490.08	316.522
1490.24	317.837
1490.41	319.641
1490.57	314.191
1490.73	318.688
1490.89	315.986
1491.06	314.431
1491.22	315.253
1491.38	314.354
1491.54	317.699
1491.7	316.89
1491.87	315.769
1492.03	315.509
1492.19	314.925
1492.35	319.359
1492.52	317.982
1492.68	317.629
1492.84	316.868
1493	315.414
1493.17	314.335
1493.33	314.552
1493.49	312.674
1493.65	316.937
1493.82	314.506
1493.98	315.871
1494.14	320.711
1494.3	317.781
1494.46	313.01
1494.63	314.692
1494.79	312.211
1494.95	318.545
1495.11	315.376
1495.28	317.29
1495.44	313.761
1495.6	313.239
1495.76	321.337
1495.92	318.039
1496.09	315.965
1496.25	313.627
1496.41	321.731
1496.57	318.936
1496.74	316.945
1496.9	313.942
1497.06	316.602
1497.22	320.063
1497.38	315.039
1497.55	317.91
1497.71	316.362
1497.87	315.442
1498.03	317.736
1498.2	316.682
1498.36	316.704
1498.52	314.595
1498.68	312.489
1498.84	319.04
1499.01	319.337
1499.17	315.957
1499.33	316.203
1499.49	318.662
1499.65	317.401
1499.82	320.223
1499.98	315.871
1500.14	312.676
1500.3	315.049
1500.46	316.135
1500.63	316.129
1500.79	313.98
1500.95	314.635
1501.11	320.017
1501.27	315.293
1501.44	314.124
1501.6	314.829
1501.76	315.14
1501.92	316.346
1502.08	316.1
1502.25	315.377
1502.41	314.304
1502.57	313.853
1502.73	318.233
1502.89	317.75
1503.06	319.49
1503.22	317.223
1503.38	318.427
1503.54	316.297
1503.7	316.929
1503.87	316.656
1504.03	316.84
1504.19	313.852
1504.35	317.532
1504.51	316.349
1504.68	318.11
1504.84	320.682
1505	316.021
1505.16	315.838
1505.32	320.095
1505.48	315.926
1505.65	316.561
1505.81	316.961
1505.97	331.653
1506.13	321.095
1506.29	316.679
1506.46	322.352
1506.62	318.704
1506.78	318.196
1506.94	319.427
1507.1	314.246
1507.26	314.281
1507.43	318.816
1507.59	320.61
1507.75	317.954
1507.91	317.605
1508.07	321.153
1508.23	315.413
1508.4	317.565
1508.56	321.766
1508.72	317.229
1508.88	314.513
1509.04	322.853
1509.2	315.29
1509.37	316.925
1509.53	316.64
1509.69	317.793
1509.85	313.975
1510.01	315.367
1510.17	314.502
1510.34	315.559
1510.5	317.876
1510.66	320.218
1510.82	315.745
1510.98	316.853
1511.14	319.27
1511.31	317.035
1511.47	318.898
1511.63	316.204
1511.79	317.141
1511.95	315.348
1512.11	319.336
1512.27	318.758
1512.44	316.735
1512.6	321.746
1512.76	318.577
1512.92	319.278
1513.08	316.743
1513.24	316.53
1513.4	318.935
1513.57	317.364
1513.73	314.153
1513.89	314.371
1514.05	320.778
1514.21	324.88
1514.37	316.768
1514.54	319.077
1514.7	320.23
1514.86	322.383
1515.02	318.127
1515.18	324.759
1515.34	318.559
1515.5	319.869
1515.67	319.564
1515.83	325.458
1515.99	319.077
1516.15	318.224
1516.31	317.683
1516.47	320.72
1516.63	316.008
1516.8	317.606
1516.96	316.741
1517.12	315.67
1517.28	318.332
1517.44	316.821
1517.6	319.077
1517.76	320.73
1517.92	321.348
1518.09	319.373
1518.25	318.448
1518.41	318.422
1518.57	316.265
1518.73	321.656
1518.89	316.384
1519.05	315.947
1519.21	318.446
1519.38	316.314
1519.54	319.574
1519.7	321.92
1519.86	317.904
1520.02	317.882
1520.18	320.102
1520.34	318.237
1520.5	318.58
1520.67	318.572
1520.83	318.752
1520.99	320.358
1521.15	322.304
1521.31	317.243
1521.47	323.148
1521.63	318.266
1521.79	315.69
1521.95	316.975
1522.12	320.703
1522.28	317.782
1522.44	321.603
1522.6	321.295
1522.76	318.241
1522.92	318.066
1523.08	324.884
1523.24	320.317
1523.4	320.668
1523.57	318.667
1523.73	318.373
1523.89	320.915
1524.05	318.845
1524.21	320.789
1524.37	317.737
1524.53	325.225
1524.69	325.316
1524.85	321.199
1525.02	321.93
1525.18	318.955
1525.34	320.302
1525.5	323.212
1525.66	318.978
1525.82	324.665
1525.98	317.858
1526.14	319.684
1526.3	318.878
1526.46	319.213
1526.63	319.027
1526.79	321.516
1526.95	317.59
1527.11	321.52
1527.27	319.066
1527.43	319.849
1527.59	318.692
1527.75	323.342
1527.91	317.25
1528.07	318.504
1528.23	317.448
1528.4	318.55
1528.56	316.501
1528.72	319.981
1528.88	320.29
1529.04	320.105
1529.2	320.37
1529.36	323.844
1529.52	324.514
1529.68	320.046
1529.84	319.084
1530	320.672
1530.16	320.069
1530.33	323.633
1530.49	323.051
1530.65	320.616
1530.81	320.406
1530.97	318.317
1531.13	321.424
1531.29	321.18
1531.45	323.128
1531.61	321.879
1531.77	323.995
1531.93	322.834
1532.09	321.694
1532.25	321.693
1532.41	319.575
1532.58	322.448
1532.74	319.693
1532.9	325.624
1533.06	325.93
1533.22	328.665
1533.38	322.926
1533.54	320.612
1533.7	319.542
1533.86	324.071
1534.02	320.245
1534.18	319.736
1534.34	321.9
1534.5	323.463
1534.66	323.569
1534.82	322.217
1534.98	321.107
1535.15	320.221
1535.31	318.477
1535.47	321.798
1535.63	319.335
1535.79	322.892
1535.95	319.137
1536.11	324.586
1536.27	326.558
1536.43	323.881
1536.59	330.798
1536.75	322.294
1536.91	323.951
1537.07	325.292
1537.23	324.683
1537.39	324.457
1537.55	325.837
1537.71	323.053
1537.87	326.098
1538.03	322.381
1538.19	323.85
1538.36	323.892
1538.52	325.172
1538.68	320.91
1538.84	322.579
1539	320.482
1539.16	326.121
1539.32	322.86
1539.48	320.529
1539.64	322.357
1539.8	322.358
1539.96	324.637
1540.12	322.957
1540.28	325.013
1540.44	320.872
1540.6	324.042
1540.76	322.902
1540.92	323.523
1541.08	321.74
1541.24	323.715
1541.4	320.742
1541.56	320.806
1541.72	323.51
1541.88	322.352
1542.04	323.261
1542.2	321.987
1542.36	320.378
1542.52	325.07
1542.68	323.451
1542.84	328.257
1543.01	323.271
1543.17	325.268
1543.33	325.88
1543.49	325.603
1543.65	322.61
1543.81	321.833
1543.97	326.093
1544.13	325.02
1544.29	326.827
1544.45	326.567
1544.61	327.244
1544.77	321.97
1544.93	320.321
1545.09	321.488
1545.25	324.713
1545.41	320.583
1545.57	323.598
1545.73	327.739
1545.89	333.934
1546.05	323.367
1546.21	324.231
1546.37	323.176
1546.53	324.998
1546.69	324.711
1546.85	325.455
1547.01	328.72
1547.17	323.964
1547.33	323.537
1547.49	326.338
1547.65	321.339
1547.81	325.127
1547.97	321.624
1548.13	323.873
1548.29	326.781
1548.45	321.782
1548.61	330.995
1548.77	324.652
1548.93	321.44
1549.09	328.955
1549.25	328.072
1549.41	325.193
1549.57	324.429
1549.73	322.458
1549.89	322.888
1550.05	319.604
1550.21	326.201
1550.37	322.019
1550.53	325.626
1550.69	322.317
1550.85	324.684
1551.01	326.036
1551.17	327.962
1551.33	324.015
1551.49	324.857
1551.65	324.125
1551.81	326.58
1551.97	325.272
1552.13	324.591
1552.29	325.417
1552.45	320.356
1552.61	322.226
1552.77	323.638
1552.93	326.79
1553.09	324.698
1553.25	322.733
1553.41	322.271
1553.57	323.879
1553.73	328.467
1553.89	324.747
1554.05	322.542
1554.21	320.522
1554.37	324.963
1554.53	324.284
1554.69	325.4
1554.84	325.698
1555	328.72
1555.16	324.637
1555.32	329.97
1555.48	324.736
1555.64	320.671
1555.8	328.685
1555.96	324.108
1556.12	328.219
1556.28	329.844
1556.44	322.061
1556.6	323.579
1556.76	329.517
1556.92	327.862
1557.08	325.656
1557.24	325.605
1557.4	327.079
1557.56	332.011
1557.72	324.649
1557.88	325.818
1558.04	327.19
1558.2	324.099
1558.36	327.146
1558.52	324.884
1558.68	321.883
1558.84	328.204
1558.99	325.16
1559.15	325.221
1559.31	326.803
1559.47	330.636
1559.63	323.415
1559.79	325.886
1559.95	328.169
1560.11	330.675
1560.27	324.945
1560.43	324.219
1560.59	328.671
1560.75	327.133
1560.91	324.679
1561.07	326.466
1561.23	322.894
1561.39	323.887
1561.55	326.217
1561.71	325.028
1561.87	324.328
1562.03	327.585
1562.19	324.641
1562.35	325.855
1562.5	326.408
1562.66	322.865
1562.82	331.621
1562.98	326.062
1563.14	325.938
1563.3	324.813
1563.46	331.99
1563.62	326.934
1563.78	325.508
1563.94	326.081
1564.1	328.73
1564.26	327.964
1564.42	328.967
1564.58	323.909
1564.73	324.863
1564.89	326.294
1565.05	326.378
1565.21	327.232
1565.37	325.432
1565.53	326.199
1565.69	321.353
1565.85	323.886
1566.01	328.612
1566.17	329.846
1566.33	323.255
1566.49	325.399
1566.65	324.916
1566.81	323.267
1566.97	323.34
1567.12	324.118
1567.28	327.31
1567.44	321.737
1567.6	323.683
1567.76	324.975
1567.92	326.588
1568.08	325.835
1568.24	324.775
1568.4	326.291
1568.56	328.304
1568.72	322.688
1568.88	326.12
1569.03	327.222
1569.19	328.16
1569.35	323.167
1569.51	322.156
1569.67	324.019
1569.83	324.073
1569.99	324.835
1570.15	323.601
1570.31	322.115
1570.47	331.73
1570.63	323.293
1570.78	324.72
1570.94	327.003
1571.1	329.105
1571.26	327.216
1571.42	328.564
1571.58	327.58
1571.74	323.227
1571.9	325.23
1572.06	328.051
1572.22	326.452
1572.38	325.407
1572.53	325.915
1572.69	327.054
1572.85	325.26
1573.01	323.385
1573.17	323.021
1573.33	324.966
1573.49	327.323
1573.65	326.054
1573.81	322.813
1573.96	329.114
1574.12	323.795
1574.28	325.727
1574.44	327.16
1574.6	323.289
1574.76	323.841
1574.92	330.044
1575.08	326.627
1575.24	328.606
1575.39	325.454
1575.55	327.498
1575.71	326.278
1575.87	328.315
1576.03	327.69
1576.19	326.987
1576.35	327.889
1576.51	325.616
1576.67	322.488
1576.82	320.94
1576.98	324.945
1577.14	323.625
1577.3	327.332
1577.46	324.139
1577.62	327.278
1577.78	323.89
1577.94	324.602
1578.09	322.542
1578.25	325.937
1578.41	324.257
1578.57	324.437
1578.73	323.113
1578.89	326.629
1579.05	324.476
1579.21	324.709
1579.36	328.081
1579.52	323.859
1579.68	323.589
1579.84	328.376
1580	328.958
1580.16	323.53
1580.32	324.54
1580.47	321.015
1580.63	326.862
1580.79	327.892
1580.95	323.536
1581.11	324.638
1581.27	323.154
1581.43	325.523
1581.59	325.965
1581.74	323.708
1581.9	324.665
1582.06	332.428
1582.22	324.037
1582.38	323.358
1582.54	324.137
1582.7	325.21
1582.85	328.747
1583.01	324.98
1583.17	327.553
1583.33	321.343
1583.49	322.839
1583.65	328.19
1583.8	325.417
1583.96	323.875
1584.12	327.445
1584.28	326.32
1584.44	326.588
1584.6	326.599
1584.76	327.889
1584.91	325.182
1585.07	328.064
1585.23	322.617
1585.39	327.245
1585.55	327.36
1585.71	324.97
1585.87	327.375
1586.02	325.417
1586.18	328.134
1586.34	323.955
1586.5	325.071
1586.66	323.081
1586.82	324.097
1586.97	328.594
1587.13	323.846
1587.29	325.703
1587.45	323.272
1587.61	329.602
1587.77	325.127
1587.92	327.907
1588.08	324.603
1588.24	326.262
1588.4	324.386
1588.56	327.414
1588.72	326.086
1588.87	324.347
1589.03	322.892
1589.19	328.195
1589.35	326.13
1589.51	323.816
1589.67	325.437
1589.82	326.85
1589.98	325.479
1590.14	324.729
1590.3	328.071
1590.46	324.197
1590.62	322.337
1590.77	325.542
1590.93	324.013
1591.09	325.356
1591.25	337.463
1591.41	327.111
1591.56	329.09
1591.72	322.246
1591.88	324.341
1592.04	325.58
1592.2	323.045
1592.36	329.564
1592.51	325.06
1592.67	324.869
1592.83	326.419
1592.99	323.555
1593.15	329.531
1593.3	325.314
1593.46	327.95
1593.62	323.849
1593.78	330.282
1593.94	322.84
1594.09	328.533
1594.25	329.684
1594.41	325.283
1594.57	323.524
1594.73	322.463
1594.88	327.674
1595.04	333.565
1595.2	330.869
1595.36	323.593
1595.52	328.824
1595.67	333.685
1595.83	324.964
1595.99	327.99
1596.15	324.788
1596.31	327.542
1596.47	328.805
1596.62	327.742
1596.78	324.257
1596.94	323.011
1597.1	328.525
1597.25	324.975
1597.41	325.583
1597.57	324.479
1597.73	322.923
1597.89	327.355
1598.04	327.477
1598.2	327.193
1598.36	321.87
1598.52	326.983
1598.68	324.086
1598.83	330.328
1598.99	326.831
1599.15	324.521
1599.31	324.171
1599.47	327.9
1599.62	323.704
1599.78	324.594
1599.94	329.314
1600.1	324.665
1600.25	326.086
1600.41	325.443
1600.57	328.282
1600.73	329.166
1600.89	324.41
1601.04	325.5
1601.2	328.504
1601.36	326.495
1601.52	327.951
1601.67	327.575
1601.83	323.774
1601.99	327.245
1602.15	324.05
1602.31	327.038
1602.46	326.745
1602.62	325.407
1602.78	328.492
1602.94	325.897
1603.09	325.171
1603.25	328.591
1603.41	330.667
1603.57	322.629
1603.72	329.062
1603.88	327.679
1604.04	328.844
1604.2	327.188
1604.35	329.971
1604.51	323.785
1604.67	324.558
1604.83	324.817
1604.99	324.496
1605.14	324.54
1605.3	324.549
1605.46	326.984
1605.62	325.938
1605.77	325.808
1605.93	324.99
1606.09	326.35
1606.25	327.35
1606.4	322.82
1606.56	328.942
1606.72	325.417
1606.88	326.616
1607.03	324.68
1607.19	333.314
1607.35	326.525
1607.51	324.36
1607.66	324.867
1607.82	325.405
1607.98	330.743
1608.14	328.296
1608.29	325.866
1608.45	322.395
1608.61	330.305
1608.77	323.656
1608.92	323.66
1609.08	327.389
1609.24	329.027
1609.4	329.026
1609.55	326.594
1609.71	332.772
1609.87	329.26
1610.03	332.696
1610.18	325.781
1610.34	325.146
1610.5	325.338
1610.66	328.899
1610.81	328.972
1610.97	325.641
1611.13	330.297
1611.28	328.808
1611.44	328.959
1611.6	329.746
1611.76	328.579
1611.91	325.586
1612.07	325.953
1612.23	326.565
1612.39	326.092
1612.54	329.229
1612.7	328.286
1612.86	325.726
1613.02	325.324
1613.17	327.353
1613.33	329.781
1613.49	326.882
1613.64	328.014
1613.8	326.811
1613.96	328.062
1614.12	334.017
1614.27	329.724
1614.43	325.256
1614.59	326.581
1614.75	328.225
1614.9	331.815
1615.06	326.598
1615.22	326.908
1615.37	326.003
1615.53	327.209
1615.69	329.284
1615.84	328.697
1616	330.887
1616.16	332.999
1616.32	327.305
1616.47	328.917
1616.63	328.312
1616.79	327.72
1616.95	330.964
1617.1	329.117
1617.26	327.044
1617.42	327.863
1617.57	329.129
1617.73	329.106
1617.89	332.482
1618.04	331.713
1618.2	327.508
1618.36	326.793
1618.52	328.372
1618.67	331.512
1618.83	325.785
1618.99	331.444
1619.14	327.569
1619.3	328.628
1619.46	329.012
1619.61	341.348
1619.77	327.512
1619.93	328.746
1620.09	330.711
1620.24	331.775
1620.4	333.715
1620.56	334.249
1620.71	326.578
1620.87	329.295
1621.03	328.4
1621.18	325.433
1621.34	332.738
1621.5	330.216
1621.65	331.971
1621.81	336.026
1621.97	326.066
1622.13	328.135
1622.28	328.969
1622.44	326.271
1622.6	330.609
1622.75	330.203
1622.91	331.072
1623.07	330.954
1623.22	328.021
1623.38	330.059
1623.54	334.639
1623.69	326.908
1623.85	328.236
1624.01	332.461
1624.16	329.928
1624.32	330.189
1624.48	329.623
1624.63	331.498
1624.79	329.264
1624.95	329.444
1625.11	333.167
1625.26	329.066
1625.42	331.142
1625.58	327.781
1625.73	326.617
1625.89	327.924
1626.05	334.084
1626.2	329.446
1626.36	331.655
1626.52	330.118
1626.67	329.478
1626.83	331.138
1626.99	329.125
1627.14	328.673
1627.3	333.039
1627.46	330.295
1627.61	329.565
1627.77	326.072
1627.93	333.738
1628.08	328.715
1628.24	330.297
1628.4	333.923
1628.55	332.258
1628.71	332.266
1628.87	335.653
1629.02	332.871
1629.18	337.001
1629.33	328.547
1629.49	332.938
1629.65	332.862
1629.8	328.754
1629.96	332.957
1630.12	329.285
1630.27	331.649
1630.43	333.012
1630.59	331.345
1630.74	334.263
1630.9	329.538
1631.06	327.992
1631.21	330.872
1631.37	335.303
1631.53	335.721
1631.68	332.937
1631.84	334.33
1632	332.542
1632.15	333.559
1632.31	331.943
1632.46	334.84
1632.62	333.633
1632.78	333.027
1632.93	332.806
1633.09	332.686
1633.25	330.797
1633.4	332.16
1633.56	333.143
1633.72	331.925
1633.87	338.093
1634.03	333.892
1634.19	334.063
1634.34	336.352
1634.5	332.785
1634.65	335.734
1634.81	333.507
1634.97	330.657
1635.12	335.434
1635.28	334.316
1635.44	330.721
1635.59	336.198
1635.75	331.672
1635.91	337.337
1636.06	336.595
1636.22	333.206
1636.37	338.876
1636.53	335.042
1636.69	342.831
1636.84	333.337
1637	335.026
1637.15	333.686
1637.31	332.045
1637.47	333.566
1637.62	334.952
1637.78	330.956
1637.94	337.411
1638.09	332.841
1638.25	332.366
1638.41	333.088
1638.56	332.049
1638.72	338.448
1638.87	333.491
1639.03	332.209
1639.19	334.363
1639.34	331.16
1639.5	330.27
1639.65	331.879
1639.81	337.473
1639.97	334.55
1640.12	335.588
1640.28	334.738
1640.43	331.449
1640.59	334.537
1640.75	332.28
1640.9	332.258
1641.06	334.878
1641.22	332.808
1641.37	334.804
1641.53	334.156
1641.68	337.543
1641.84	333.119
1642	335.528
1642.15	337.08
1642.31	333.671
1642.46	335.588
1642.62	332.465
1642.78	336.033
1642.93	337.336
1643.09	335.092
1643.24	333.528
1643.4	334.728
1643.56	336.512
1643.71	331.806
1643.87	335.889
1644.02	335.091
1644.18	336.243
1644.33	334.291
1644.49	335.538
1644.65	332.058
1644.8	334.416
1644.96	333.173
1645.11	331.947
1645.27	337.919
1645.43	334.699
1645.58	334.083
1645.74	336.219
1645.89	334.038
1646.05	335.15
1646.21	340.54
1646.36	334.983
1646.52	341.57
1646.67	330.297
1646.83	334.995
1646.98	334.118
1647.14	336.027
1647.3	335.864
1647.45	332.528
1647.61	333.499
1647.76	333.567
1647.92	337.427
1648.08	335.134
1648.23	334.934
1648.39	337.115
1648.54	335.097
1648.7	336.767
1648.85	332.06
1649.01	334.755
1649.17	337.288
1649.32	330.384
1649.48	337.674
1649.63	334.223
1649.79	338.245
1649.94	339.528
1650.1	333.838
1650.26	332.745
1650.41	336.658
1650.57	340.546
1650.72	338.091
1650.88	336.596
1651.03	334.873
1651.19	341.188
1651.35	337.518
1651.5	339.869
1651.66	334.864
1651.81	338.446
1651.97	340.348
1652.12	333.627
1652.28	337.63
1652.43	337.986
1652.59	332.61
1652.75	349.034
1652.9	333.452
1653.06	337.509
1653.21	331.674
1653.37	336.693
1653.52	333.132
1653.68	336.077
1653.83	335.562
1653.99	338.284
1654.15	339.383
1654.3	335.436
1654.46	334.075
1654.61	337.61
1654.77	339.265
1654.92	339.239
1655.08	335.952
1655.23	337.431
1655.39	334.693
1655.55	335.488
1655.7	334.105
1655.86	331.717
1656.01	333.066
1656.17	336.235
1656.32	338.337
1656.48	330.639
1656.63	338.394
1656.79	341.718
1656.94	338.369
1657.1	335.013
1657.25	338.557
1657.41	335.771
1657.57	340.589
1657.72	341.442
1657.88	341.616
1658.03	337.24
1658.19	338.267
1658.34	341.898
1658.5	345.639
1658.65	335.995
1658.81	338.086
1658.96	334.635
1659.12	337.498
1659.27	332.428
1659.43	340.03
1659.58	336.632
1659.74	336.408
1659.89	339.784
1660.05	339.395
1660.21	336.344
1660.36	334.111
1660.52	336.813
1660.67	337.495
1660.83	340.919
1660.98	336.317
1661.14	341.311
1661.29	341.059
1661.45	335.066
1661.6	340.006
1661.76	336.815
1661.91	340.233
1662.07	340.135
1662.22	334.993
1662.38	334.968
1662.53	342.111
1662.69	337.754
1662.84	335.289
1663	334.011
1663.15	336.465
1663.31	342.488
1663.46	335.568
1663.62	340.827
1663.77	337.3
1663.93	339.173
1664.08	341.681
1664.24	340.064
1664.39	337.209
1664.55	338.461
1664.7	337.322
1664.86	338.22
1665.02	339.914
1665.17	336.517
1665.33	338.651
1665.48	341.14
1665.64	332.329
1665.79	339.072
1665.95	335.809
1666.1	336.563
1666.26	337.094
1666.41	334.661
1666.56	333.33
1666.72	334.91
1666.87	337.892
1667.03	341.421
1667.18	335.271
1667.34	332.279
1667.5	336.143
1667.65	337.668
1667.81	337.807
1667.96	332.935
1668.11	338.605
1668.27	335.452
1668.42	339.646
1668.58	335.596
1668.73	330.662
1668.89	339.71
1669.04	337.432
1669.2	336.958
1669.35	338.034
1669.51	341.756
1669.66	336.227
1669.82	337.607
1669.97	337.524
1670.13	331.196
1670.28	338.919
1670.44	339.61
1670.59	332.939
1670.75	341.971
1670.9	337.259
1671.06	337.967
1671.21	337.302
1671.37	332.619
1671.52	336.443
1671.68	335.081
1671.83	338.361
1671.99	337.471
1672.14	338.645
1672.29	341.557
1672.45	334.816
1672.6	335.684
1672.76	336.973
1672.91	334.329
1673.07	342.127
1673.22	338.189
1673.38	334.597
1673.53	337.467
1673.69	339.541
1673.84	339.497
1674	340.142
1674.15	337.901
1674.31	337.581
1674.46	335.664
1674.61	339.813
1674.77	338.819
1674.92	339.509
1675.08	342.02
1675.23	334.429
1675.39	335.645
1675.54	338.674
1675.7	338.177
1675.85	334.172
1676.01	341.808
1676.16	341.289
1676.31	336.105
1676.47	337.089
1676.62	336.698
1676.78	338.895
1676.93	339.084
1677.09	341.581
1677.24	334.6
1677.4	334.721
1677.55	339.234
1677.71	338.164
1677.86	337.485
1678.02	339.591
1678.17	337.726
1678.32	336.227
1678.48	338.108
1678.63	339.418
1678.79	339.343
1678.94	339.566
1679.1	338.582
1679.25	337.68
1679.41	339.187
1679.56	334.161
1679.71	333.595
1679.87	336.137
1680.02	338.797
1680.18	338.881
1680.33	334.427
1680.49	337.98
1680.64	335.743
1680.79	333.462
1680.95	337.61
1681.1	337.178
1681.26	337.31
1681.41	335.855
1681.57	332.348
1681.72	337.535
1681.88	337.509
1682.03	346.382
1682.18	338.236
1682.34	333.071
1682.49	332.046
1682.65	341.49
1682.8	336.16
1682.96	334.27
1683.11	336.631
1683.26	336.399
1683.42	337.177
1683.57	332.704
1683.73	335.256
1683.88	333.007
1684.03	337.52
1684.19	342.054
1684.34	336.072
1684.5	330.318
1684.65	340.564
1684.81	337.163
1684.96	335.161
1685.12	337.495
1685.27	339.492
1685.42	333.915
1685.58	341.061
1685.73	335.543
1685.89	335.626
1686.04	338.951
1686.19	335.597
1686.35	338.799
1686.5	339.656
1686.66	339.554
1686.81	334.188
1686.96	337.734
1687.12	336.33
1687.27	340.092
1687.43	338.097
1687.58	336.72
1687.74	343.512
1687.89	335.279
1688.04	335.785
1688.2	334.572
1688.35	336.883
1688.5	332.72
1688.66	338.141
1688.81	335.012
1688.97	336.3
1689.12	334.117
1689.27	337.206
1689.43	333.973
1689.58	335.411
1689.74	336.809
1689.89	336.867
1690.05	335.016
1690.2	336.409
1690.35	334.755
1690.51	336.388
1690.66	337.256
1690.81	332.44
1690.97	334.627
1691.12	336.225
1691.28	336.817
1691.43	335.13
1691.58	338.538
1691.74	340.078
1691.89	333.917
1692.05	334.756
1692.2	336.915
1692.35	336.374
1692.51	336.53
1692.66	339.891
1692.82	335.843
1692.97	340.858
1693.12	338.685
1693.28	337.892
1693.43	335.578
1693.58	337.684
1693.74	337.165
1693.89	338.786
1694.05	334.614
1694.2	337.198
1694.35	336.811
1694.51	339.175
1694.66	337.406
1694.81	337.892
1694.97	336.252
1695.12	335.044
1695.28	336.932
1695.43	339.277
1695.58	337.973
1695.74	336.621
1695.89	336.277
1696.04	339.848
1696.2	335.514
1696.35	336.898
1696.51	339.246
1696.66	336.112
1696.81	335.823
1696.97	336.23
1697.12	338.908
1697.27	334.377
1697.43	337.675
1697.58	335.294
1697.74	334.756
1697.89	335.838
1698.04	336.478
1698.2	335.881
1698.35	337.947
1698.5	339.23
1698.66	336.305
1698.81	335.733
1698.96	338.113
1699.12	338.359
1699.27	335.603
1699.42	336.733
1699.58	337.667
1699.73	336.82
1699.88	334.817
1700.04	335.25
1700.19	335.242
1700.35	337.926
1700.5	338.743
1700.65	335.941
1700.81	337.735
1700.96	339.817
1701.11	336.96
1701.27	334.994
1701.42	335.441
1701.57	339.67
1701.73	336.078
1701.88	337.782
1702.03	336.836
1702.19	336.869
1702.34	336.893
1702.49	336.548
1702.65	335.394
1702.8	336.425
1702.95	335.593
1703.11	337.426
1703.26	335.353
1703.42	336.903
1703.57	334.534
1703.72	334.71
1703.88	337.35
1704.03	337.599
1704.18	336.656
1704.33	336.168
1704.49	338.823
1704.64	338.729
1704.79	339.721
1704.95	338.944
1705.1	340.12
1705.16	341.475
1705.32	333.177
1705.47	340.811
1705.63	337.107
1705.78	339.1
1705.94	335.933
1706.1	336.917
1706.25	339.633
1706.41	337.095
1706.56	335.694
1706.72	335.715
1706.88	339.312
1707.03	339.232
1707.19	338.984
1707.34	337.777
1707.5	335.496
1707.65	335.985
1707.81	335.923
1707.97	337.705
1708.12	336.598
1708.28	335.378
1708.43	338.16
1708.59	338.158
1708.74	340.798
1708.9	340.474
1709.06	335.461
1709.21	336.53
1709.37	333.995
1709.52	333.273
1709.68	342.647
1709.83	338.548
1709.99	337.633
1710.15	333.372
1710.3	336.651
1710.46	333.963
1710.61	333.693
1710.77	340.027
1710.92	341.323
1711.08	335.688
1711.23	336.139
1711.39	333.744
1711.55	336.909
1711.7	335.812
1711.86	340.377
1712.01	335.898
1712.17	333.31
1712.32	336.887
1712.48	335.123
1712.63	335.067
1712.79	337.506
1712.95	335.898
1713.1	334.737
1713.26	336.191
1713.41	342.598
1713.57	349.069
1713.72	339.796
1713.88	341.862
1714.04	340.92
1714.19	335.652
1714.35	337.883
1714.5	337.836
1714.66	333.832
1714.81	336.253
1714.97	335.9
1715.12	335.255
1715.28	335.784
1715.43	341.368
1715.59	335.98
1715.74	337.52
1715.9	339.624
1716.06	333.419
1716.21	334.274
1716.37	335.698
1716.52	338.092
1716.68	341.517
1716.83	334.759
1716.99	336.163
1717.14	336.986
1717.3	333.121
1717.46	338.805
1717.61	338.449
1717.77	337.881
1717.92	336.354
1718.08	333.141
1718.23	338.091
1718.39	337.855
1718.54	335.663
1718.7	341.895
1718.85	339.831
1719.01	341.559
1719.16	341.15
1719.32	339.033
1719.47	339.585
1719.63	344.722
1719.78	338.839
1719.94	335.966
1720.09	336.759
1720.25	337.292
1720.41	338.3
1720.56	335.781
1720.72	339.699
1720.87	339.766
1721.03	343.132
1721.18	333.869
1721.34	333.124
1721.49	336.208
1721.65	336.451
1721.8	336.087
1721.96	335.306
1722.11	342.046
1722.27	338.473
1722.42	334.728
1722.58	336.894
1722.73	339.164
1722.89	339.457
1723.04	334.022
1723.2	339.4
1723.35	343.364
1723.51	336.257
1723.66	340.531
1723.82	339.175
1723.97	336.333
1724.13	336.484
1724.28	339.866
1724.44	337.092
1724.6	339.244
1724.75	340.42
1724.9	338.215
1725.06	336.757
1725.21	334.922
1725.37	336.157
1725.53	341.769
1725.68	337.922
1725.84	343.165
1725.99	341.21
1726.14	339.416
1726.3	336.024
1726.45	337.671
1726.61	339.021
1726.77	336.011
1726.92	338.263
1727.07	336.222
1727.23	335.048
1727.38	340.682
1727.54	343.657
1727.7	341.565
1727.85	337.579
1728	335.933
1728.16	336.811
1728.31	339.363
1728.47	337.562
1728.62	336.525
1728.78	340.203
1728.93	338.316
1729.09	341.777
1729.24	339.437
1729.4	342.811
1729.55	339.11
1729.71	340.303
1729.86	336.256
1730.02	344.204
1730.17	340.464
1730.33	341.628
1730.48	339.148
1730.64	341.667
1730.79	338.473
1730.95	338.54
1731.1	342.106
1731.26	343.21
1731.41	341.905
1731.57	340.471
1731.72	340.858
1731.88	339.478
1732.03	339.367
1732.18	338.575
1732.34	340.912
1732.49	340.819
1732.65	342.306
1732.8	337.134
1732.96	341.53
1733.11	341.727
1733.27	338.495
1733.42	339.814
1733.58	335.806
1733.73	338.292
1733.89	341.032
1734.04	343.349
1734.2	342.667
1734.35	340.636
1734.51	339.504
1734.66	343.035
1734.82	338.454
1734.97	340.447
1735.12	339.322
1735.28	337.547
1735.43	340.008
1735.59	338.733
1735.74	339.805
1735.9	341.568
1736.05	339.061
1736.21	338.869
1736.36	337.772
1736.52	336.792
1736.67	334.292
1736.82	341.468
1736.98	342.549
1737.13	339.862
1737.29	341.424
1737.44	345.362
1737.6	346.801
1737.75	338.73
1737.91	339.746
1738.06	342.516
1738.21	343.57
1738.37	343.908
1738.52	342.087
1738.68	342.969
1738.83	339.446
1738.99	344.186
1739.14	341.162
1739.3	339.558
1739.45	338.385
1739.61	342.745
1739.76	341.5
1739.91	353.419
1740.07	343.013
1740.22	340.542
1740.38	340.303
1740.53	341.946
1740.69	343.765
1740.84	341.499
1741	340.849
1741.15	340.854
1741.3	343.441
1741.46	340.036
1741.61	343.93
1741.77	343.813
1741.92	342.309
1742.08	342.716
1742.23	341.843
1742.38	342.197
1742.54	341.943
1742.69	339.907
1742.85	343.791
1743	344.222
1743.16	336.876
1743.31	345.197
1743.46	340.23
1743.62	340.895
1743.77	339.458
1743.93	339.858
1744.08	348.124
1744.24	344.999
1744.39	342.908
1744.54	338.072
1744.7	344.581
1744.85	346.322
1745.01	341.395
1745.16	340.013
1745.32	338.561
1745.47	342.558
1745.62	340.58
1745.78	344.154
1745.93	340.545
1746.09	341.466
1746.24	343.284
1746.39	337.288
1746.55	343.433
1746.7	339.593
1746.86	341.449
1747.01	343.176
1747.16	335.27
1747.32	344.424
1747.47	347.205
1747.63	340.958
1747.78	342.812
1747.94	339.17
1748.09	341.142
1748.24	340.404
1748.4	341.298
1748.55	342.629
1748.71	341.773
1748.86	338.01
1749.01	341.338
1749.17	342.468
1749.32	351.777
1749.48	341.052
1749.63	339.529
1749.78	341.077
1749.94	343.242
1750.09	340.614
1750.25	343.719
1750.4	339.973
1750.55	345.582
1750.71	343.358
1750.86	340.447
1751.02	342.902
1751.17	342.6
1751.32	344.62
1751.48	342.078
1751.63	341.163
1751.79	342.491
1751.94	343.65
1752.09	344.823
1752.25	342.608
1752.4	342.078
1752.56	338.351
1752.71	344.576
1752.86	341.434
1753.02	346.457
1753.17	344.18
1753.33	344.276
1753.48	340.694
1753.63	346.996
1753.79	341.628
1753.94	344.247
1754.09	343.172
1754.25	345.879
1754.4	341.124
1754.56	344.268
1754.71	340.349
1754.86	341.51
1755.02	340.622
1755.17	342.675
1755.33	347.463
1755.48	346.649
1755.63	342.968
1755.79	345.233
1755.94	339.281
1756.09	345.822
1756.25	346.969
1756.4	339.297
1756.55	341.887
1756.71	347.159
1756.86	342.865
1757.02	343.674
1757.17	346.591
1757.32	340.611
1757.48	341.837
1757.63	340.164
1757.78	347.839
1757.94	343.878
1758.09	343.954
1758.25	341.726
1758.4	341.81
1758.55	342.662
1758.71	342.483
1758.86	343.917
1759.01	343.757
1759.17	342.611
1759.32	344.044
1759.47	342.62
1759.63	345.789
1759.78	340.504
1759.93	340.754
1760.09	348.781
1760.24	348.979
1760.4	339.664
1760.55	338.932
1760.7	340.713
1760.86	343.547
1761.01	340.558
1761.16	346.837
1761.32	344.121
1761.47	344.89
1761.62	343.398
1761.78	338.892
1761.93	340.975
1762.09	345.512
1762.24	340.37
1762.39	345.763
1762.54	346.795
1762.7	340.043
1762.85	343.167
1763.01	344.547
1763.16	344.791
1763.31	342.791
1763.47	344.141
1763.62	345.283
1763.77	343.749
1763.93	345.907
1764.08	343.081
1764.23	344.163
1764.39	346.113
1764.54	341.807
1764.69	346.47
1764.85	343.052
1765	349.977
1765.15	342.666
1765.31	342.703
1765.46	342.704
1765.61	342.694
1765.77	343.543
1765.92	349.494
1766.07	344.975
1766.23	344.731
1766.38	341.561
1766.53	344.761
1766.69	342.318
1766.84	343.569
1766.99	343.584
1767.15	341.746
1767.3	347.083
1767.45	345.35
1767.61	342.565
1767.76	344.157
1767.91	343.546
1768.07	348.345
1768.22	345.474
1768.37	346.889
1768.53	350.578
1768.68	345.475
1768.83	348.416
1768.99	342.248
1769.14	342.727
1769.29	343.235
1769.44	345.668
1769.6	346.613
1769.75	344.853
1769.9	345.731
1770.06	342.442
1770.21	345.18
1770.36	343.615
1770.52	344.658
1770.67	344.439
1770.82	340.334
1770.98	344.898
1771.13	343.678
1771.28	343.481
1771.44	340.572
1771.59	343.594
1771.74	344.25
1771.9	345.988
1772.05	345.986
1772.2	340.957
1772.35	345.412
1772.51	343.243
1772.66	351.486
1772.81	343.389
1772.97	342.022
1773.12	342.713
1773.27	345.03
1773.43	343.43
1773.58	342.356
1773.73	345.851
1773.88	345.966
1774.04	344.468
1774.19	341.45
1774.34	346.581
1774.5	347.35
1774.65	343.93
1774.8	343.907
1774.96	343.108
1775.11	347.185
1775.26	341.726
1775.41	343.755
1775.57	342.999
1775.72	343.295
1775.87	348.964
1776.03	342.217
1776.18	344.314
1776.33	340.959
1776.48	347.939
1776.64	344.581
1776.79	347.135
1776.94	342.894
1777.1	344.632
1777.25	341.876
1777.4	344.647
1777.56	344.542
1777.71	346.697
1777.86	348.957
1778.01	350.12
1778.17	348.693
1778.32	343.309
1778.47	345.81
1778.62	344.405
1778.78	343.113
1778.93	347.486
1779.08	350.315
1779.24	349.129
1779.39	342.013
1779.54	345.498
1779.69	344.626
1779.85	344.45
1780	347.894
1780.15	344.19
1780.31	343.791
1780.46	348.525
1780.61	342.531
1780.76	349.88
1780.92	345.128
1781.07	344.629
1781.22	353.086
1781.37	343.853
1781.53	344.309
1781.68	344.589
1781.83	344.606
1781.98	348.815
1782.14	343.003
1782.29	345.767
1782.44	347.083
1782.59	346.078
1782.75	347.656
1782.9	345.474
1783.05	342.446
1783.21	346.101
1783.36	347.379
1783.51	343.198
1783.66	346.176
1783.82	346.12
1783.97	346.483
1784.12	344.243
1784.27	344.038
1784.43	343.795
1784.58	342.168
1784.73	340.763
1784.88	347.557
1785.04	344.839
1785.19	342.492
1785.34	344.309
1785.49	346.216
1785.65	341.51
1785.8	344.839
1785.95	347.207
1786.1	347.526
1786.26	349.082
1786.41	345.893
1786.56	347.289
1786.71	347.201
1786.87	344.805
1787.02	346.045
1787.17	341.843
1787.32	346.531
1787.48	348.553
1787.63	347.365
1787.78	346.833
1787.93	354.775
1788.09	343.996
1788.24	347.792
1788.39	347.673
1788.54	347.245
1788.69	346.216
1788.85	348.967
1789	341.983
1789.15	343.972
1789.3	345.438
1789.46	344.748
1789.61	348.901
1789.76	347.308
1789.91	346.047
1790.07	339.769
1790.22	345.131
1790.37	348.474
1790.52	347.027
1790.67	350.665
1790.83	345.564
1790.98	342.204
1791.13	349.341
1791.28	349.529
1791.44	343.57
1791.59	348.81
1791.74	342.709
1791.89	345.138
1792.05	344.323
1792.2	348.684
1792.35	345.287
1792.5	349.385
1792.65	344.693
1792.81	343.57
1792.96	347.224
1793.11	342.372
1793.26	354.065
1793.42	346.038
1793.57	342.281
1793.72	351
1793.87	348.496
1794.02	347.306
1794.18	347.054
1794.33	344.682
1794.48	344.847
1794.63	344.254
1794.78	344.475
1794.94	347.282
1795.09	346.361
1795.24	344.979
1795.39	344.029
1795.54	346.322
1795.7	348.582
1795.85	344.109
1796	348.259
1796.15	346.326
1796.31	346.902
1796.46	345.617
1796.61	348.242
1796.76	346.409
1796.91	345.393
1797.07	343.533
1797.22	350.555
1797.37	345.744
1797.52	346.175
1797.67	349.009
1797.83	349.416
1797.98	345.649
1798.13	345.172
1798.28	343.639
1798.43	343.636
1798.59	344.344
1798.74	345.544
1798.89	348.218
1799.04	346.24
1799.19	345.908
1799.34	348.537
1799.5	343.278
1799.65	359.009
1799.8	348.529
1799.95	344.382
1800.1	349.443
1800.26	344.045
1800.41	344.967
1800.56	343.706
1800.71	342.35
1800.86	346.885
1801.02	344.379
1801.17	345.057
1801.32	344.699
1801.47	345.585
1801.62	343.245
1801.78	347.977
1801.93	350.236
1802.08	343.535
1802.23	347.025
1802.38	348.23
1802.53	345.655
1802.69	345.447
1802.84	351.746
1802.99	351.001
1803.14	349.895
1803.29	348.519
1803.44	349.407
1803.6	342.543
1803.75	349.523
1803.9	345.926
1804.05	355.483
1804.2	348.132
1804.35	344.121
1804.51	349.36
1804.66	351.476
1804.81	344.579
1804.96	346.027
1805.11	344.088
1805.26	349.338
1805.42	346.687
1805.57	351.206
1805.72	346.642
1805.87	345.455
1806.02	347.049
1806.18	345.903
1806.33	343.772
1806.48	347.427
1806.63	345.756
1806.78	348.089
1806.93	343.22
1807.08	351.588
1807.24	348.734
1807.39	350.01
1807.54	344.746
1807.69	344.596
1807.84	348.186
1807.99	349.343
1808.15	346.927
1808.3	347.976
1808.45	348.016
1808.6	347.945
1808.75	344.589
1808.9	351.13
1809.06	349.493
1809.21	351.197
1809.36	346.658
1809.51	351.575
1809.66	346.092
1809.81	346.122
1809.96	351.273
1810.12	348.327
1810.27	350.874
1810.42	345.17
1810.57	348.492
1810.72	344.084
1810.87	347.404
1811.02	351.224
1811.18	349.605
1811.33	348.691
1811.48	348.282
1811.63	346.792
1811.78	345.03
1811.93	350.96
1812.08	349.302
1812.24	347.15
1812.39	349.546
1812.54	344.781
1812.69	349.977
1812.84	347.591
1812.99	347.598
1813.14	352.143
1813.29	350.691
1813.45	355.181
1813.6	351.184
1813.75	348.662
1813.9	349.989
1814.05	351.381
1814.2	344.69
1814.35	346.547
1814.51	349.58
1814.66	351.895
1814.81	353.487
1814.96	347.725
1815.11	351.226
1815.26	346.813
1815.41	346.99
1815.56	346.934
1815.72	352.09
1815.87	354.17
1816.02	347.187
1816.17	351.546
1816.32	348.846
1816.47	346.914
1816.62	350.002
1816.77	353.494
1816.93	349.939
1817.08	346.25
1817.23	346.878
1817.38	346.385
1817.53	354.166
1817.68	346.216
1817.83	348.365
1817.98	352.136
1818.13	353.484
1818.29	345.782
1818.44	350.664
1818.59	351.637
1818.74	348.54
1818.89	352.784
1819.04	349.873
1819.19	348.484
1819.34	350.278
1819.49	357.181
1819.65	349.538
1819.8	347.259
1819.95	350.86
1820.1	347.819
1820.25	351.497
1820.4	349.227
1820.55	352.842
1820.7	348.685
1820.85	347.578
1821.01	350.229
1821.16	354.881
1821.31	369.149
1821.46	347.977
1821.61	353.568
1821.76	351.322
1821.91	347.887
1822.06	348.837
1822.21	354.371
1822.36	351.112
1822.51	351.536
1822.66	348.974
1822.82	349.533
1822.97	349.312
1823.12	350.555
1823.27	352.67
1823.42	351.879
1823.57	349.77
1823.72	350.711
1823.87	346.752
1824.02	347.901
1824.17	351.182
1824.33	347.871
1824.48	349.147
1824.63	350.975
1824.78	352.141
1824.93	360.428
1825.08	350.034
1825.23	346.181
1825.38	354.292
1825.53	350.881
1825.68	350.397
1825.83	354.179
1825.98	349.587
1826.14	351.808
1826.29	353.321
1826.44	356.649
1826.59	350.508
1826.74	349.337
1826.89	351.955
1827.04	349.382
1827.19	351.18
1827.34	356.614
1827.49	352.74
1827.64	350.566
1827.79	354.922
1827.94	353.502
1828.09	351.617
1828.25	356.108
1828.4	349.044
1828.55	349.997
1828.7	357.869
1828.85	351.502
1829	351.362
1829.15	351.71
1829.3	353.309
1829.45	354.4
1829.6	350.085
1829.75	354.928
1829.9	355.71
1830.05	356.686
1830.2	354.497
1830.36	349.987
1830.51	353.847
1830.66	353.473
1830.81	352.12
1830.96	350.452
1831.11	356.154
1831.26	354.56
1831.41	351.323
1831.56	353.123
1831.71	355.659
1831.86	354.435
1832.01	352.875
1832.16	352.753
1832.31	348.91
1832.46	350.278
1832.61	351.9
1832.76	354.971
1832.91	354.773
1833.06	352.082
1833.21	360.191
1833.37	351.191
1833.52	352.465
1833.67	352.001
1833.82	353.234
1833.97	352.262
1834.12	350.081
1834.27	352.386
1834.42	351.359
1834.57	354.571
1834.72	354.477
1834.87	353.195
1835.02	356.841
1835.17	351.855
1835.32	353.774
1835.47	354.178
1835.62	357.292
1835.77	353.44
1835.92	347.19
1836.07	352.575
1836.22	355.864
1836.37	355.073
1836.52	356.508
1836.67	352.157
1836.83	354.292
1836.98	354.131
1837.13	350.897
1837.28	350.072
1837.43	353.317
1837.58	356.902
1837.73	350.734
1837.88	355
1838.03	351.44
1838.18	353.078
1838.33	351.002
1838.48	357.823
1838.63	357.325
1838.78	353.357
1838.93	351.469
1839.08	354.088
1839.23	354.852
1839.38	352.925
1839.53	354.846
1839.68	352.533
1839.83	355.976
1839.98	354.398
1840.13	354.249
1840.28	357.666
1840.43	356.674
1840.58	356.9
1840.73	357.442
1840.88	361.833
1841.03	356.989
1841.18	356.691
1841.33	358.008
1841.48	353.939
1841.63	354.36
1841.78	353.368
1841.93	352.658
1842.08	356.542
1842.23	352.756
1842.38	354.077
1842.53	358.657
1842.68	350.598
1842.83	356.627
1842.98	351.398
1843.13	355.344
1843.28	355.416
1843.43	354.426
1843.58	362.401
1843.73	357.681
1843.88	353.776
1844.03	351.488
1844.18	356.169
1844.33	355.906
1844.48	358.778
1844.63	359.424
1844.78	353.055
1844.93	354.969
1845.08	359.594
1845.23	354.796
1845.38	353.033
1845.53	356.467
1845.68	353.308
1845.83	358.265
1845.98	354.586
1846.13	352.821
1846.28	355.782
1846.43	355.853
1846.58	355.457
1846.73	355.867
1846.88	355.718
1847.03	354.054
1847.18	354.123
1847.33	355.242
1847.48	357.069
1847.63	357.887
1847.78	355.309
1847.93	354.757
1848.08	349.879
1848.23	353.193
1848.38	363.801
1848.53	355.879
1848.68	355.264
1848.83	361.805
1848.98	354.013
1849.13	355.366
1849.28	353.475
1849.43	362.535
1849.58	359.916
1849.73	356.942
1849.88	358.484
1850.03	357.648
1850.18	359.924
1850.33	356.84
1850.48	362.101
1850.63	357.233
1850.78	353.962
1850.93	356.23
1851.08	356.204
1851.23	357.712
1851.38	357.544
1851.53	354.877
1851.68	360.001
1851.83	358.607
1851.98	356.934
1852.13	355.021
1852.27	356.006
1852.42	357.439
1852.57	356.071
1852.72	354.981
1852.87	362.403
1853.02	355.681
1853.17	356.363
1853.32	358.349
1853.47	355.565
1853.62	363.36
1853.77	354.157
1853.92	362.792
1854.07	357.352
1854.22	367.039
1854.37	354.395
1854.52	361.402
1854.67	356.402
1854.82	356.857
1854.97	356.345
1855.12	357.816
1855.27	354.939
1855.42	360.098
1855.57	356.075
1855.72	358.629
1855.87	355.97
1856.01	357.965
1856.16	360.218
1856.31	357.004
1856.46	359.268
1856.61	357.561
1856.76	362.418
1856.91	356.895
1857.06	357.586
1857.21	359.942
1857.36	356.295
1857.51	354.544
1857.66	352.972
1857.81	362.218
1857.96	359.341
1858.11	358.423
1858.26	362.315
1858.41	353.921
1858.56	360.801
1858.71	357.579
1858.86	359.183
1859	361.396
1859.15	359.059
1859.3	362.129
1859.45	362.646
1859.6	367.579
1859.75	357.345
1859.9	356.401
1860.05	358.117
1860.2	358.55
1860.35	358.237
1860.5	358.921
1860.65	359.419
1860.8	359.08
1860.95	358.984
1861.1	357.841
1861.24	357.412
1861.39	359.067
1861.54	359.237
1861.69	360.968
1861.84	367.418
1861.99	363.351
1862.14	357.649
1862.29	360.854
1862.44	358.094
1862.59	361.387
1862.74	358.261
1862.89	362.327
1863.04	357.362
1863.18	361.906
1863.33	357.173
1863.48	365.545
1863.63	359.7
1863.78	357.645
1863.93	357.423
1864.08	361.765
1864.23	359.988
1864.38	360.534
1864.53	358.951
1864.68	356.905
1864.83	360.012
1864.97	360.05
1865.12	361.959
1865.27	361.644
1865.42	360.725
1865.57	359.713
1865.72	363.014
1865.87	362.208
1866.02	356.342
1866.17	362.954
1866.32	355.401
1866.47	358.073
1866.61	360.709
1866.76	357.336
1866.91	358.751
1867.06	358.553
1867.21	359.043
1867.36	363.179
1867.51	357.29
1867.66	361.155
1867.81	359.711
1867.96	361.677
1868.1	355.155
1868.25	358.982
1868.4	359.329
1868.55	356.125
1868.7	357.6
1868.85	361.779
1869	358.505
1869.15	358.879
1869.3	356.957
1869.45	358.468
1869.59	363.961
1869.74	360.468
1869.89	361.831
1870.04	358.406
1870.19	366.203
1870.34	359.954
1870.49	357.295
1870.64	358.074
1870.79	365.438
1870.93	360.799
1871.08	356.008
1871.23	362.162
1871.38	360.348
1871.53	364.299
1871.68	358.087
1871.83	357.674
1871.98	358.047
1872.13	354.962
1872.27	355.982
1872.42	357.885
1872.57	358.545
1872.72	357.828
1872.87	360.099
1873.02	359.458
1873.17	360.663
1873.32	357.112
1873.46	364.648
1873.61	360.682
1873.76	358.902
1873.91	357.044
1874.06	362.606
1874.21	361.295
1874.36	362.518
1874.51	357.818
1874.66	358.914
1874.8	361.003
1874.95	357.009
1875.1	363.345
1875.25	360.397
1875.4	356.408
1875.55	354.573
1875.7	357.36
1875.84	356.763
1875.99	365.828
1876.14	359.964
1876.29	356.676
1876.44	358.787
1876.59	362.641
1876.74	357.961
1876.88	364.775
1877.03	360.888
1877.18	356.724
1877.33	357.605
1877.48	356.62
1877.63	354.751
1877.78	363.72
1877.92	364.127
1878.07	367.472
1878.22	361.933
1878.37	360.283
1878.52	358.887
1878.67	362.185
1878.82	360.319
1878.97	363.742
1879.11	363.554
1879.26	360.324
1879.41	354.167
1879.56	361.116
1879.71	359.426
1879.86	360.817
1880	374.946
1880.15	362.76
1880.3	359.56
1880.45	359.387
1880.6	358.87
1880.75	359.814
1880.9	359.46
1881.04	359.518
1881.19	361.197
1881.34	359.419
1881.49	358.503
1881.64	362.969
1881.79	358.831
1881.93	359.818
1882.08	359.552
1882.23	358.742
1882.38	360.057
1882.53	361.265
1882.68	364.743
1882.82	362.779
1882.97	361.475
1883.12	362.088
1883.27	358.276
1883.42	360.366
1883.57	360.255
1883.71	366.339
1883.86	363.464
1884.01	362.554
1884.16	364.311
1884.31	362.181
1884.46	363.422
1884.61	357.258
1884.75	363.883
1884.9	364.243
1885.05	362.826
1885.2	360.646
1885.35	367.554
1885.49	360.667
1885.64	359.143
1885.79	362.015
1885.94	359.531
1886.09	365.594
1886.24	364.367
1886.38	357.852
1886.53	356.767
1886.68	358.173
1886.83	361.953
1886.98	357.129
1887.12	362.537
1887.27	366.834
1887.42	367.017
1887.57	366.123
1887.72	365.606
1887.87	360.915
1888.01	366.972
1888.16	361.575
1888.31	357.635
1888.46	361.418
1888.61	366.394
1888.75	360.308
1888.9	360.123
1889.05	361.808
1889.2	361.63
1889.35	362.598
1889.5	365.871
1889.64	363.585
1889.79	364.901
1889.94	362.248
1890.09	364.341
1890.23	359.402
1890.38	360.838
1890.53	361.343
1890.68	364.127
1890.83	361.148
1890.98	358.366
1891.12	361.791
1891.27	361.68
1891.42	358.981
1891.57	361.629
1891.72	365.64
1891.86	359.444
1892.01	360.948
1892.16	361.958
1892.31	364.444
1892.46	364.469
1892.6	363.967
1892.75	359.088
1892.9	357.93
1893.05	367.913
1893.2	358.028
1893.34	361.144
1893.49	359.704
1893.64	356.52
1893.79	362.865
1893.93	364.066
1894.08	358.134
1894.23	362.087
1894.38	364.689
1894.53	359.459
1894.67	363.656
1894.82	359.041
1894.97	364.377
1895.12	362.279
1895.27	357.728
1895.41	367.653
1895.56	367.263
1895.71	358.339
1895.86	361.282
1896.01	363.579
1896.15	360.647
1896.3	367.015
1896.45	360.521
1896.6	361.152
1896.74	360.024
1896.89	361.796
1897.04	362.105
1897.19	363.561
1897.33	363.638
1897.48	365.201
1897.63	364.097
1897.78	361.94
1897.93	364.084
1898.07	362.725
1898.22	364.246
1898.37	364.273
1898.52	363.091
1898.66	360.534
1898.81	362.567
1898.96	362.251
1899.11	359.94
1899.25	364.128
1899.4	365.841
1899.55	362.406
1899.7	362.296
1899.85	362.438
1899.99	361.408
1900.14	365.453
1900.29	361.184
1900.44	363.44
1900.58	364.548
1900.73	357.862
1900.88	361.921
1901.03	361.557
1901.17	361.849
1901.32	368.723
1901.47	361.566
1901.62	361.744
1901.76	364.508
1901.91	364.05
1902.06	361.095
1902.21	365.707
1902.35	360.302
1902.5	360.724
1902.65	364.74
1902.8	360.517
1902.94	363.726
1903.09	361.887
1903.24	360.572
1903.39	365.972
1903.54	364.385
1903.68	363.284
1903.83	359.248
1903.98	363.668
1904.12	361.99
1904.27	362.968
1904.42	365.552
1904.57	363.109
1904.71	362.303
1904.86	360.898
1905.01	361.782
1905.16	366.816
1905.3	360.69
1905.45	360.515
1905.6	359.68
1905.75	363.708
1905.89	360.862
1906.04	367.658
1906.19	358.25
1906.34	362.8
1906.48	362.712
1906.63	361.257
1906.78	360.247
1906.92	367.4
1907.07	364.247
1907.22	361.925
1907.37	363.961
1907.51	362.668
1907.66	366.182
1907.81	366.801
1907.96	366.806
1908.1	368.716
1908.25	361.042
1908.4	363.707
1908.54	361.058
1908.69	360.131
1908.84	366.321
1908.99	364.25
1909.13	365.838
1909.28	365.076
1909.43	362.189
1909.58	363.071
1909.72	364.291
1909.87	362.265
1910.02	364.158
1910.17	364.624
1910.31	367.11
1910.46	362.932
1910.61	363.947
1910.75	361.173
1910.9	360.02
1911.05	363.697
1911.19	365.396
1911.34	365.863
1911.49	364.445
1911.64	364.519
1911.78	365.179
1911.93	364.806
1912.08	365.219
1912.23	369.643
1912.37	367.754
1912.52	366.428
1912.67	361.68
1912.81	362.32
1912.96	368.673
1913.11	365.933
1913.25	370.383
1913.4	383.117
1913.55	362.738
1913.7	363.734
1913.84	366.711
1913.99	366.671
1914.14	362.778
1914.28	364.091
1914.43	360.972
1914.58	363.096
1914.73	366.256
1914.87	362.37
1915.02	362.648
1915.17	364.127
1915.31	364.667
1915.46	365.43
1915.61	364.41
1915.75	363.985
1915.9	362.7
1916.05	368.915
1916.19	367.54
1916.34	366.236
1916.49	369.268
1916.64	368.89
1916.78	368.983
1916.93	362.671
1917.08	363.463
1917.22	367.009
1917.37	363.227
1917.52	362.799
1917.66	363.77
1917.81	364.276
1917.96	362.055
1918.1	367.488
1918.25	365.943
1918.4	370.478
1918.54	364.48
1918.69	367.893
1918.84	364.618
1918.99	363.174
1919.13	366.137
1919.28	365.439
1919.43	365.486
1919.57	365.89
1919.72	363.704
1919.87	364.831
1920.01	368.753
1920.16	361.199
1920.31	364.292
1920.45	363.295
1920.6	366.339
1920.75	365.938
1920.89	366.515
1921.04	366.63
1921.19	364.889
1921.33	366.74
1921.48	362.91
1921.63	361.685
1921.77	366.643
1921.92	364.195
1922.07	367.731
1922.21	366.869
1922.36	366.257
1922.51	369.544
1922.65	364.571
1922.8	363.831
1922.95	369.044
1923.09	365.818
1923.24	365.427
1923.39	365.604
1923.53	366.546
1923.68	365.249
1923.83	364.431
1923.97	366.103
1924.12	364.685
1924.27	366.065
1924.41	367.05
1924.56	366.772
1924.71	365.082
1924.85	365.87
1925	363.32
1925.15	365.56
1925.29	365.346
1925.44	365.416
1925.59	369.267
1925.73	365.871
1925.88	364.667
1926.03	366.181
1926.17	363.779
1926.32	370.419
1926.46	367.35
1926.61	366.559
1926.76	365.019
1926.9	365.015
1927.05	363.381
1927.2	366.288
1927.34	367.31
1927.49	366.86
1927.64	367.158
1927.78	369.358
1927.93	369.311
1928.08	365.455
1928.22	368.925
1928.37	365.995
1928.52	363.374
1928.66	364.846
1928.81	369.982
1928.95	368.486
1929.1	366.599
1929.25	369.201
1929.39	367.893
1929.54	367.491
1929.69	369.058
1929.83	366.103
1929.98	367.723
1930.05	371.081
1930.19	369.695
1930.34	365.87
1930.49	368.566
1930.64	369.922
1930.79	369.952
1930.94	369.959
1931.09	368.42
1931.24	367.127
1931.39	367.374
1931.53	365.177
1931.68	368.268
1931.83	369.549
1931.98	367.8
1932.13	368.333
1932.28	372.288
1932.43	368.427
1932.57	368.27
1932.72	365.422
1932.87	365.876
1933.02	364.915
1933.17	368.767
1933.32	370.24
1933.47	370.959
1933.62	368.501
1933.76	370.304
1933.91	366.474
1934.06	365.525
1934.21	362.453
1934.36	365.106
1934.51	371.228
1934.66	368.806
1934.81	368.377
1934.95	367.024
1935.1	372.019
1935.25	375.984
1935.4	371.206
1935.55	369.767
1935.7	367.355
1935.85	367.725
1935.99	374.017
1936.14	366.27
1936.29	372.45
1936.44	371.152
1936.59	371.494
1936.74	367.629
1936.89	366.612
1937.03	369.315
1937.18	368.966
1937.33	366.134
1937.48	368.283
1937.63	368.87
1937.78	366.063
1937.93	366.203
1938.08	370.764
1938.22	366.069
1938.37	365.416
1938.52	366.337
1938.67	378.9
1938.82	370.244
1938.97	366.02
1939.12	369.115
1939.26	373.261
1939.41	371.31
1939.56	372.902
1939.71	367.445
1939.86	369.537
1940.01	367.749
1940.15	368.302
1940.3	370.307
1940.45	372.826
1940.6	371.831
1940.75	367.38
1940.9	368.244
1941.04	366.982
1941.19	370.82
1941.34	366.586
1941.49	372.221
1941.64	373.831
1941.79	373.565
1941.93	371.888
1942.08	371.528
1942.23	369.953
1942.38	372.577
1942.53	369.169
1942.68	369.634
1942.82	369.938
1942.97	371.44
1943.12	368.904
1943.27	369.855
1943.42	370.346
1943.57	366.91
1943.71	365.339
1943.86	368.041
1944.01	372.661
1944.16	368.639
1944.31	369.486
1944.46	368.014
1944.6	370.92
1944.75	371.68
1944.9	368.886
1945.05	369.295
1945.2	368.08
1945.35	368.445
1945.49	374.535
1945.64	371.386
1945.79	371.747
1945.94	370.742
1946.09	375.926
1946.23	371.649
1946.38	366.527
1946.53	370.548
1946.68	372.253
1946.83	367.723
1946.98	369.3
1947.12	364.918
1947.27	368.003
1947.42	370.831
1947.57	373.172
1947.72	366.365
1947.86	366.027
1948.01	371.97
1948.16	371.325
1948.31	368.391
1948.46	369.646
1948.61	373.483
1948.75	371.982
1948.9	372.284
1949.05	369.734
1949.2	371.254
1949.35	369.21
1949.49	369.763
1949.64	372.34
1949.79	369.404
1949.94	366.259
1950.09	369.867
1950.23	369.717
1950.38	369.42
1950.53	367.275
1950.68	369.104
1950.83	370.547
1950.97	373.247
1951.12	370.658
1951.27	365.27
1951.42	367.006
1951.57	367.429
1951.71	370.143
1951.86	368.398
1952.01	369.516
1952.16	367.901
1952.31	370.434
1952.45	370.239
1952.6	369.49
1952.75	372.276
1952.9	374.372
1953.05	371.379
1953.19	367.873
1953.34	371.594
1953.49	372.507
1953.64	365.889
1953.79	371.606
1953.93	366.214
1954.08	371.291
1954.23	367.453
1954.38	372.159
1954.52	370.776
1954.67	371.734
1954.82	371.074
1954.97	371.721
1955.12	374.984
1955.26	373.214
1955.41	375.772
1955.56	367.084
1955.71	371.933
1955.85	367.722
1956	375.175
1956.15	368.756
1956.3	370.697
1956.45	376.204
1956.59	371.446
1956.74	373.487
1956.89	372.302
1957.04	376.093
1957.18	369.246
1957.33	368.714
1957.48	370.226
1957.63	369.968
1957.78	370.314
1957.92	374.952
1958.07	369.907
1958.22	374.518
1958.37	371.403
1958.51	371.709
1958.66	369.994
1958.81	372.428
1958.96	368.032
1959.1	372.192
1959.25	375.325
1959.4	368.711
1959.55	368.645
1959.7	369.456
1959.84	372.029
1959.99	368.56
1960.14	372.186
1960.29	369.898
1960.43	371.225
1960.58	370.553
1960.73	367.282
1960.88	369.07
1961.02	371.049
1961.17	368.32
1961.32	370.603
1961.47	365.782
1961.61	368.312
1961.76	370.311
1961.91	373.563
1962.06	376.388
1962.2	373.683
1962.35	370.841
1962.5	371.557
1962.65	374.069
1962.79	367.293
1962.94	370.419
1963.09	369.396
1963.24	373.163
1963.38	374.939
1963.53	370.933
1963.68	371.036
1963.83	389.168
1963.97	372.8
1964.12	372.816
1964.27	373.93
1964.42	369.224
1964.56	370.383
1964.71	372.532
1964.86	373.549
1965.01	376.117
1965.15	369.663
1965.3	367.324
1965.45	371.118
1965.6	372.29
1965.74	368.85
1965.89	370.454
1966.04	373.041
1966.19	372.906
1966.33	373.808
1966.48	368.794
1966.63	370.036
1966.77	374.198
1966.92	370.785
1967.07	374.837
1967.22	367.959
1967.36	377.839
1967.51	372.217
1967.66	374.342
1967.81	373.034
1967.95	373.719
1968.1	374.323
1968.25	372.265
1968.39	371.945
1968.54	377.124
1968.69	375.678
1968.84	372.529
1968.98	370.657
1969.13	368.977
1969.28	374.14
1969.43	370.16
1969.57	372.975
1969.72	369.097
1969.87	370.73
1970.01	374.629
1970.16	373.529
1970.31	375.704
1970.46	375.04
1970.6	371.174
1970.75	371.277
1970.9	370.455
1971.04	375.081
1971.19	371.397
1971.34	370.156
1971.49	369.916
1971.63	372.812
1971.78	373.281
1971.93	371.28
1972.07	373.534
1972.22	372.877
1972.37	370.924
1972.52	371.17
1972.66	369.603
1972.81	378.623
1972.96	371.083
1973.1	377.828
1973.25	371.783
1973.4	367.946
1973.55	372.864
1973.69	368.6
1973.84	370.759
1973.99	372.083
1974.13	370.375
1974.28	372.308
1974.43	371.016
1974.57	373.467
1974.72	372.969
1974.87	368.487
1975.02	374.467
1975.16	377.181
1975.31	369.559
1975.46	369.271
1975.6	375.387
1975.75	377.937
1975.9	373.117
1976.04	372.698
1976.19	370.357
1976.34	371.185
1976.49	375.141
1976.63	376.494
1976.78	368.915
1976.93	374.176
1977.07	372.691
1977.22	371.39
1977.37	370.895
1977.51	372.661
1977.66	366.43
1977.81	376.355
1977.95	374.102
1978.1	371.345
1978.25	371.56
1978.39	372.334
1978.54	370.387
1978.69	369.22
1978.84	369.35
1978.98	370.388
1979.13	369.607
1979.28	372.057
1979.42	367.32
1979.57	370.696
1979.72	371.312
1979.86	372.182
1980.01	370.137
1980.16	372.664
1980.3	371.932
1980.45	374.533
1980.6	374.538
1980.74	377.416
1980.89	380.511
1981.04	374.61
1981.18	370.162
1981.33	371.262
1981.48	370.093
1981.62	369.271
1981.77	366.448
1981.92	366.94
1982.06	377.003
1982.21	371.534
1982.36	371.535
1982.5	371.505
1982.65	369.699
1982.8	368.72
1982.94	370.479
1983.09	371.518
1983.24	370.518
1983.38	373.574
1983.53	369.219
1983.68	370.476
1983.82	376.666
1983.97	372.128
1984.12	370.572
1984.26	371.169
1984.41	372.433
1984.56	367.54
1984.7	372.427
1984.85	371.235
1985	370.057
1985.14	369.766
1985.29	371.821
1985.44	370.422
1985.58	370.997
1985.73	371.217
1985.88	372.304
1986.02	372.178
1986.17	372.116
1986.32	370.615
1986.46	369.484
1986.61	366.135
1986.75	374.178
1986.9	368.31
1987.05	371.898
1987.2	369.23
1987.34	371.35
1987.49	376.019
1987.63	366.587
1987.78	375.661
1987.93	367.683
1988.07	370.321
1988.22	374.488
1988.37	370.266
1988.51	368.33
1988.66	377.953
1988.81	374.639
1988.95	374.081
1989.1	371.89
1989.24	370.867
1989.39	376.637
1989.54	372.232
1989.68	368.953
1989.83	369.693
1989.98	372.768
1990.12	370.048
1990.27	369.043
1990.42	372.113
1990.56	368.288
1990.71	372.247
1990.85	373.805
1991	368.51
1991.15	371.751
1991.29	373.427
1991.44	375.719
1991.59	371.486
1991.73	376.085
1991.88	375.281
1992.02	368.651
1992.17	374.085
1992.32	373.917
1992.46	370.877
1992.61	370.922
1992.76	370.723
1992.9	373.127
1993.05	373.82
1993.19	369.457
1993.34	373.002
1993.49	370.974
1993.63	375.819
1993.78	374.481
1993.93	370.565
1994.07	371.405
1994.22	374.185
1994.36	368.968
1994.51	370.037
1994.66	369.241
1994.8	371.416
1994.95	369.019
1995.1	374.065
1995.24	369.861
1995.39	370.48
1995.53	373.544
1995.68	372.469
1995.83	376.396
1995.97	373.071
1996.12	372.832
1996.27	369.89
1996.41	372.204
1996.56	377.271
1996.7	374.628
1996.85	369.573
1996.99	373.912
1997.14	372.194
1997.29	370.075
1997.43	374.635
1997.58	373.231
1997.73	369.441
1997.87	370.845
1998.02	372.269
1998.16	368.205
1998.31	371.559
1998.46	376.11
1998.6	366.289
1998.75	373.801
1998.89	368.462
1999.04	368.12
1999.18	371.149
1999.33	370.201
1999.48	372.873
1999.62	369.945
1999.77	371.123
1999.92	370.913
2000.06	370.255
2000.21	378.269
2000.35	372.143
2000.5	369.928
2000.64	371.875
2000.79	367.358
2000.94	370.792
2001.08	369.398
2001.23	376.773
2001.37	372.997
2001.52	375.855
2001.67	368.726
2001.81	377.991
2001.96	371.601
2002.1	372.026
2002.25	370.136
2002.4	368.561
2002.54	370.662
2002.69	369.367
2002.83	369.673
2002.98	368.353
2003.12	373.476
2003.27	369.018
2003.42	369.444
2003.56	369.682
2003.71	376.854
2003.85	376.032
2004	371.028
2004.14	370.554
2004.29	373.367
2004.44	371.728
2004.58	376.053
2004.73	368.078
2004.87	373.159
2005.02	371.889
2005.16	371.724
2005.31	372.883
2005.46	368.024
2005.6	369.451
2005.75	375.575
2005.89	369.995
2006.04	374.133
2006.19	371.938
2006.33	370.062
2006.48	373.586
2006.62	375.299
2006.77	368.31
2006.91	374.683
2007.06	370.36
2007.21	367.658
2007.35	369.467
2007.5	370.085
2007.64	371.48
2007.79	368.663
2007.93	370.615
2008.08	370.636
2008.22	369.237
2008.37	372.484
2008.52	370.684
2008.66	369.929
2008.81	374.264
2008.95	367.933
2009.1	373.807
2009.24	373.673
2009.39	372.015
2009.53	371.376
2009.68	376.483
2009.83	367.245
2009.97	369.619
2010.12	373.855
2010.26	367.474
2010.41	369.454
2010.55	369.164
2010.7	371.732
2010.84	369.923
2010.99	371.998
2011.13	366.716
2011.28	371.167
2011.43	373.862
2011.57	371.19
2011.72	375.323
2011.86	369.265
2012.01	371.568
2012.15	368.903
2012.3	369.468
2012.44	370.466
2012.59	372.029
2012.73	371.874
2012.88	369.157
2013.03	368.966
2013.17	367.832
2013.32	369.887
2013.46	368.59
2013.61	371.796
2013.75	371.062
2013.9	374.668
2014.04	372.079
2014.19	372.732
2014.33	370.267
2014.48	369.739
2014.62	370.69
2014.77	369.427
2014.91	374.762
2015.06	374.376
2015.21	373.898
2015.35	373.915
2015.5	371.644
2015.64	370.564
2015.79	372.273
2015.93	374.489
2016.08	374.556
2016.22	372.408
2016.37	376.929
2016.51	369.194
2016.66	375.312
2016.8	371.58
2016.95	370.686
2017.09	369.406
2017.24	372.741
2017.38	374.787
2017.53	374.471
2017.67	369.694
2017.82	370.058
2017.96	371.14
2018.11	369.448
2018.26	370.884
2018.4	368.994
2018.55	380.319
2018.69	369.848
2018.84	369.524
2018.98	371.918
2019.13	370.634
2019.27	366.908
2019.42	372.012
2019.56	367.335
2019.71	366.136
2019.85	370.899
2020	372.591
2020.14	374.028
2020.29	368.633
2020.43	371.789
2020.58	370.112
2020.72	369.477
2020.87	376.812
2021.01	373.704
2021.16	370.734
2021.3	375.912
2021.45	370.323
2021.59	373.319
2021.74	371.193
2021.88	379.148
2022.03	373.757
2022.17	372.327
2022.32	368.985
2022.46	369.207
2022.61	368.873
2022.75	371.892
2022.9	372.317
2023.04	370.946
2023.19	368.887
2023.33	373.23
2023.48	374.672
2023.62	368.336
2023.77	369.825
2023.91	372.252
2024.06	373.867
2024.2	368.534
2024.35	370.787
2024.49	373.618
2024.64	373.935
2024.78	367.362
2024.93	373.309
2025.07	371.624
2025.22	375.673
2025.36	369.599
2025.51	368.947
2025.65	373.906
2025.8	376.731
2025.94	373.861
2026.09	370.725
2026.23	371.856
2026.38	371.145
2026.52	371.08
2026.67	373.663
2026.81	375.646
2026.95	370.813
2027.1	372.71
2027.24	370.945
2027.39	376.1
2027.53	367.854
2027.68	367.903
2027.82	372.352
2027.97	373.801
2028.11	373.101
2028.26	372.786
2028.4	374.927
2028.55	370.101
2028.69	371.103
2028.84	374.206
2028.98	376.367
2029.13	371.974
2029.27	371.008
2029.42	373.474
2029.56	368.632
2029.71	372.573
2029.85	372.905
2029.99	372.071
2030.14	371.336
2030.28	373.136
2030.43	370.293
2030.57	368.564
2030.72	370.598
2030.86	376.568
2031.01	373.837
2031.15	372.628
2031.3	369.949
2031.44	371.172
2031.59	372.573
2031.73	373.344
2031.87	377.698
2032.02	378.321
2032.16	370.412
2032.31	371.552
2032.45	374.86
2032.6	376.26
2032.74	371.584
2032.89	373.139
2033.03	372.399
2033.18	376.238
2033.32	374.338
2033.47	372.866
2033.61	372.394
2033.75	373.909
2033.9	369.784
2034.04	371.848
2034.19	372.944
2034.33	374.77
2034.48	373.776
2034.62	372.37
2034.77	371.674
2034.91	370.225
2035.05	376.764
2035.2	378.07
2035.34	375.74
2035.49	371.072
2035.63	375.006
2035.78	373.392
2035.92	368.216
2036.07	370.966
2036.21	374.46
2036.35	372.647
2036.5	368.906
2036.64	372.741
2036.79	371.85
2036.93	373.712
2037.08	376.646
2037.22	375.057
2037.37	373.567
2037.51	372.49
2037.65	376.751
2037.8	375.401
2037.94	372.626
2038.09	371.381
2038.23	371.662
2038.37	373.051
2038.52	370.757
2038.66	377.452
2038.81	372.42
2038.95	372.182
2039.1	376.939
2039.24	373.256
2039.39	377.379
2039.53	376.299
2039.67	376.165
2039.82	375.804
2039.96	372.551
2040.11	374.68
2040.25	372.293
2040.39	373.474
2040.54	378.35
2040.68	376.145
2040.83	371.412
2040.97	372.759
2041.12	372.775
2041.26	380.014
2041.41	373.328
2041.55	394.029
2041.69	374.307
2041.84	373.96
2041.98	376.965
2042.13	371.814
2042.27	376.63
2042.41	374.664
2042.56	371.83
2042.7	374.876
2042.85	376.361
2042.99	374.996
2043.13	371.326
2043.28	374.198
2043.42	372.055
2043.57	369.664
2043.71	373.47
2043.86	378.325
2044	375.83
2044.14	370.638
2044.29	380.77
2044.43	370.91
2044.58	371.419
2044.72	368.872
2044.86	371.37
2045.01	381.573
2045.15	373.047
2045.3	372.692
2045.44	372.805
2045.58	371.734
2045.73	376.041
2045.87	373.135
2046.02	373.912
2046.16	374.782
2046.3	375.65
2046.45	377.914
2046.59	378.512
2046.74	377.002
2046.88	375.071
2047.02	375.438
2047.17	376.501
2047.31	373.272
2047.46	373.876
2047.6	376.052
2047.74	377.287
2047.89	374.387
2048.03	370.974
2048.17	378.581
2048.32	373.65
2048.46	373.994
2048.61	375.118
2048.75	374.67
2048.89	371.753
2049.04	374.402
2049.18	371.215
2049.33	372.433
2049.47	375.199
2049.61	379.185
2049.76	375.186
2049.9	371.333
2050.05	375.101
2050.19	376.313
2050.33	373.763
2050.48	373.986
2050.62	375.309
2050.76	372.699
2050.91	378.336
2051.05	375.848
2051.2	370.819
2051.34	376.328
2051.48	371.411
2051.63	374.983
2051.77	378.309
2051.92	375.813
2052.06	377.941
2052.2	375.669
2052.35	379.353
2052.49	384.434
2052.63	372.04
2052.78	375.381
2052.92	373.227
2053.06	378.015
2053.21	374.742
2053.35	378.121
2053.49	376.598
2053.64	374.244
2053.78	376.041
2053.93	377.157
2054.07	371.503
2054.21	375.998
2054.36	375.911
2054.5	373.106
2054.64	372.849
2054.79	375.159
2054.93	372.556
2055.08	376.243
2055.22	372.612
2055.36	377.977
2055.51	377.233
2055.65	379.638
2055.79	377.75
2055.94	376.714
2056.08	373.344
2056.22	375.094
2056.37	376.645
2056.51	379.253
2056.65	372.519
2056.8	377.079
2056.94	375.532
2057.08	370.994
2057.23	378.5
2057.37	380.608
2057.52	372.392
2057.66	376.715
2057.8	382.045
2057.95	377.382
2058.09	377.016
2058.23	383.015
2058.38	376.67
2058.52	374.908
2058.66	376.114
2058.81	375.089
2058.95	375.086
2059.09	376.218
2059.24	379.725
2059.38	377.04
2059.52	377.379
2059.67	376.014
2059.81	377.546
2059.96	377.949
2060.1	372.686
2060.24	379.098
2060.39	379.474
2060.53	376.819
2060.67	371.659
2060.81	381.12
2060.96	378.629
2061.1	379.135
2061.24	375.222
2061.39	378.903
2061.53	379.723
2061.67	379.923
2061.82	383.396
2061.96	385.041
2062.1	376.041
2062.25	375.052
2062.39	377.444
2062.54	383.444
2062.68	374.317
2062.82	376.339
2062.97	379.245
2063.11	377.632
2063.25	374.194
2063.4	375.891
2063.54	378.482
2063.68	378.282
2063.83	379.796
2063.97	377.091
2064.11	376.069
2064.25	383.325
2064.4	376.97
2064.54	377.56
2064.68	376.406
2064.83	372.804
2064.97	380.66
2065.11	373.82
2065.26	378.531
2065.4	378.527
2065.54	381.854
2065.69	378.85
2065.83	380.202
2065.97	374.587
2066.12	379.315
2066.26	375.995
2066.4	376.682
2066.54	373.824
2066.69	377.336
2066.83	374.873
2066.97	378.044
2067.12	379.26
2067.26	379.986
2067.4	393.51
2067.55	375.709
2067.69	374.676
2067.83	376.972
2067.98	375.199
2068.12	376.817
2068.26	377.401
2068.41	379.475
2068.55	381.26
2068.69	381.023
2068.83	376.402
2068.98	377.419
2069.12	379.812
2069.26	379.83
2069.41	386.658
2069.55	375.479
2069.69	379.244
2069.84	379.009
2069.98	379.655
2070.12	379.049
2070.26	378.202
2070.41	381.737
2070.55	379.455
2070.69	376.684
2070.84	382.339
2070.98	380.753
2071.12	378.509
2071.27	372.548
2071.41	385.086
2071.55	380.484
2071.69	383.078
2071.84	378.76
2071.98	376.893
2072.12	377.383
2072.27	383.783
2072.41	380.862
2072.55	378.849
2072.69	377.4
2072.84	378.228
2072.98	378.693
2073.12	375.475
2073.27	383.543
2073.41	375.292
2073.55	376.607
2073.69	376.775
2073.84	380.308
2073.98	383.143
2074.12	376.504
2074.27	380.434
2074.41	377.711
2074.55	382.979
2074.69	374.242
2074.84	375.933
2074.98	382.764
2075.12	384.828
2075.26	377.246
2075.41	376.888
2075.55	378.767
2075.69	377.998
2075.84	379.821
2075.98	376.233
2076.12	386.799
2076.26	382.112
2076.41	382.395
2076.55	379.776
2076.69	381.44
2076.83	381.703
2076.98	377.715
2077.12	377.377
2077.26	372.271
2077.41	381.837
2077.55	376.443
2077.69	378.195
2077.83	375.635
2077.98	377.764
2078.12	384.122
2078.26	381.883
2078.4	386.423
2078.55	381.01
2078.69	380.766
2078.83	386.617
2078.97	382.684
2079.12	379.428
2079.26	379.606
2079.4	379.854
2079.54	377.018
2079.69	377.522
2079.83	384.475
2079.97	381.544
2080.11	381.774
2080.26	377.027
2080.4	380.465
2080.54	380.915
2080.68	383.44
2080.83	382.846
2080.97	387.479
2081.11	375.574
2081.25	379.471
2081.4	377.3
2081.54	380.352
2081.68	381.37
2081.82	380.481
2081.97	378.171
2082.11	385.651
2082.25	376.24
2082.4	378.609
2082.54	382.718
2082.68	383.063
2082.82	377.358
2082.96	384.414
2083.11	378.025
2083.25	383.621
2083.39	382.027
2083.53	381.049
2083.68	380.171
2083.82	378.986
2083.96	380.41
2084.1	381.749
2084.25	379.42
2084.39	381.898
2084.53	376.539
2084.67	378.55
2084.82	380.122
2084.96	381.943
2085.1	380.435
2085.24	383.203
2085.39	381.255
2085.53	375.414
2085.67	381.966
2085.81	378.301
2085.95	388.528
2086.1	383.62
2086.24	382.505
2086.38	381.584
2086.52	379.878
2086.67	383.989
2086.81	377.288
2086.95	383.315
2087.09	382.532
2087.23	386.686
2087.38	381.655
2087.52	387.388
2087.66	384.804
2087.8	377.092
2087.95	384.951
2088.09	381.799
2088.23	380.478
2088.37	383.078
2088.51	382.805
2088.66	381.228
2088.8	376.024
2088.94	381.378
2089.08	381.845
2089.23	379.667
2089.37	380.869
2089.51	385.434
2089.65	378.934
2089.79	383.279
2089.94	379.282
2090.08	379.627
2090.22	379.086
2090.36	387.755
2090.5	380.187
2090.65	383.641
2090.79	384.451
2090.93	381.2
2091.07	379.719
2091.22	378.814
2091.36	383.073
2091.5	375.307
2091.64	382.911
2091.78	382.754
2091.93	379.726
2092.07	382.597
2092.21	386.594
2092.35	382.879
2092.49	384.573
2092.64	382.502
2092.78	381.33
2092.92	380.9
2093.06	382.106
2093.2	380.557
2093.34	379.629
2093.49	386.662
2093.63	387.619
2093.77	385.581
2093.91	383.869
2094.05	382.443
2094.2	381.419
2094.34	384.509
2094.48	382.138
2094.62	378.839
2094.76	381.67
2094.91	383.518
2095.05	382.309
2095.19	382.832
2095.33	380.948
2095.47	385.983
2095.62	383.231
2095.76	382.105
2095.9	384.046
2096.04	387.035
2096.18	386.036
2096.33	383.367
2096.47	383.964
2096.61	380.167
2096.75	384.549
2096.89	380.499
2097.03	379.179
2097.18	383.066
2097.32	382.621
2097.46	385.06
2097.6	397.905
2097.74	381.676
2097.89	381.842
2098.03	380.805
2098.17	381.153
2098.31	384.229
2098.45	383.444
2098.59	382.823
2098.74	387.837
2098.88	385.667
2099.02	386.751
2099.16	385.378
2099.3	383.653
2099.45	384.137
2099.59	382.648
2099.73	382.262
2099.87	382.287
2100.01	384.366
2100.15	386.262
2100.3	383.614
2100.44	389.335
2100.58	383.355
2100.72	382.309
2100.86	381.527
2101	385.747
2101.15	382.5
2101.29	382.729
2101.43	382.596
2101.57	382.334
2101.71	393.715
2101.85	384.344
2102	384.387
2102.14	386.553
2102.28	389.035
2102.42	386.487
2102.56	383.89
2102.7	389.239
2102.84	389.502
2102.99	384.095
2103.13	382.098
2103.27	386.117
2103.41	381.559
2103.55	384.142
2103.69	385.428
2103.84	391.023
2103.98	385.863
2104.12	385.563
2104.26	381.457
2104.4	385.065
2104.54	381.154
2104.69	382.67
2104.83	387.377
2104.97	380.578
2105.11	383.119
2105.25	384.512
2105.39	388.687
2105.53	383.86
2105.67	384.714
2105.82	385.694
2105.96	382.842
2106.1	381.07
2106.24	386.153
2106.38	380.849
2106.52	384.912
2106.67	385.929
2106.81	382.602
2106.95	382.256
2107.09	382.521
2107.23	388.486
2107.37	383.74
2107.51	383.396
2107.66	385.852
2107.8	386.397
2107.94	384.575
2108.08	386.873
2108.22	382.489
2108.36	386.832
2108.5	384.125
2108.64	385.785
2108.79	386.559
2108.93	388.48
2109.07	388.675
2109.21	385.37
2109.35	385.929
2109.49	390.607
2109.63	385.076
2109.78	382.262
2109.92	386.477
2110.06	387.24
2110.2	386.113
2110.34	386.049
2110.48	389.577
2110.62	379.926
2110.76	385.095
2110.9	388.686
2111.05	385.332
2111.19	383.802
2111.33	390.738
2111.47	383.096
2111.61	388.218
2111.75	385.05
2111.89	386.17
2112.03	385.098
2112.18	386.483
2112.32	386.61
2112.46	388.948
2112.6	386.908
2112.74	391.493
2112.88	390.449
2113.02	386.799
2113.16	387.914
2113.31	388.739
2113.45	385.077
2113.59	389.631
2113.73	385.377
2113.87	388.476
2114.01	392.105
2114.15	384.644
2114.29	388.855
2114.43	388.884
2114.57	385.925
2114.72	397.221
2114.86	391.249
2115	392.477
2115.14	386.701
2115.28	388.067
2115.42	386.244
2115.56	388.855
2115.7	388.642
2115.84	385.397
2115.98	390.072
2116.13	386.053
2116.27	390.233
2116.41	384.522
2116.55	386.075
2116.69	387.64
2116.83	388.604
2116.97	384.43
2117.11	391.006
2117.25	390.552
2117.4	384.839
2117.54	386.816
2117.68	384.683
2117.82	392.614
2117.96	385.551
2118.1	391.626
2118.24	386.556
2118.38	388.714
2118.52	387.088
2118.66	387.909
2118.8	389.816
2118.95	388.977
2119.09	385.3
2119.23	388.457
2119.37	389.741
2119.51	390.336
2119.65	388.802
2119.79	392.388
2119.93	389.568
2120.07	388.849
2120.21	385.667
2120.35	391.088
2120.49	394.42
2120.64	388.773
2120.78	388.193
2120.92	387.637
2121.06	392.081
2121.2	385.883
2121.34	386.959
2121.48	386.02
2121.62	388.242
2121.76	401.639
2121.9	389.049
2122.04	388.048
2122.18	391.704
2122.32	388.344
2122.46	390.728
2122.61	389.315
2122.75	391.586
2122.89	385.955
2123.03	394.985
2123.17	392.302
2123.31	389.659
2123.45	386.836
2123.59	383.521
2123.73	392.646
2123.87	387.75
2124.01	392.996
2124.15	390.796
2124.29	399.587
2124.44	390.381
2124.58	390.967
2124.72	390.733
2124.86	389.789
2125	391.372
2125.14	389.444
2125.28	391.289
2125.42	390.496
2125.56	388.058
2125.7	387.925
2125.84	387.439
2125.98	391.229
2126.12	387.858
2126.26	394.783
2126.4	396.676
2126.54	389.705
2126.68	388.621
2126.83	391.001
2126.97	386.504
2127.11	390.574
2127.25	389.832
2127.39	390.112
2127.53	390.78
2127.67	397.253
2127.81	393.254
2127.95	387.268
2128.09	388.636
2128.23	389.958
2128.37	404.902
2128.51	393.05
2128.65	388.594
2128.79	393.36
2128.93	389.01
2129.07	392.102
2129.21	399.173
2129.35	391.847
2129.49	402.587
2129.64	393.207
2129.78	391.921
2129.92	391.351
2130.06	393.846
2130.2	387.442
2130.34	387.754
2130.48	387.288
2130.62	391.252
2130.76	389.275
2130.9	390.545
2131.04	392.089
2131.18	389.972
2131.32	393.207
2131.46	391.786
2131.6	391.262
2131.74	389.992
2131.88	391.529
2132.02	392.018
2132.16	395.109
2132.3	388.523
2132.44	387.99
2132.58	389.545
2132.72	390.487
2132.86	388.487
2133	389.367
2133.14	389.368
2133.28	393.852
2133.43	397.983
2133.57	395.634
2133.7	390.025
2133.84	391.925
2133.99	388.816
2134.13	390.227
2134.27	394.406
2134.41	392.148
2134.55	391.278
2134.69	389.916
2134.83	393.278
2134.97	390.763
2135.11	393.734
2135.25	390.609
2135.39	393.309
2135.53	393.907
2135.67	389.177
2135.81	389.734
2135.95	394.142
2136.09	392.137
2136.23	388.525
2136.37	393.273
2136.51	391.576
2136.65	395.261
2136.79	389.703
2136.93	393.15
2137.07	394.377
2137.21	390.733
2137.35	395.888
2137.49	391.146
2137.63	392.84
2137.77	393.895
2137.91	392.681
2138.05	394.683
2138.19	391.185
2138.33	392.121
2138.47	389.382
2138.61	391.729
2138.75	391.552
2138.89	395.29
2139.03	394.409
2139.17	393.134
2139.31	391.533
2139.45	394.037
2139.59	395.094
2139.73	390.374
2139.87	389.664
2140.01	392.253
2140.15	394.608
2140.29	391.638
2140.43	391.486
2140.57	393.236
2140.71	391.575
2140.85	393.542
2140.99	393.713
2141.13	393.987
2141.27	399.629
2141.41	396.829
2141.55	394.186
2141.69	393.497
2141.83	392.659
2141.97	392.725
2142.11	391.576
2142.25	390.581
2142.39	392.615
2142.53	391.134
2142.67	394.864
2142.81	394.823
2142.95	390.689
2143.09	390.761
2143.23	392.066
2143.37	391.553
2143.51	393.39
2143.65	394.318
2143.79	393.973
2143.93	395.826
2144.07	393.674
2144.21	394.823
2144.35	391.821
2144.49	390.236
2144.63	392.769
2144.77	395.148
2144.91	393.195
2145.05	394.987
2145.19	395.212
2145.33	393.403
2145.45	397.097
2145.59	392.109
2145.73	394.566
2145.87	393.623
2146.02	395.443
2146.16	388.784
2146.3	392.125
2146.44	400.991
2146.58	394.47
2146.73	393.502
2146.87	394.147
2147.01	396.868
2147.15	392.691
2147.29	396.592
2147.44	400.542
2147.58	392.677
2147.72	393.787
2147.86	394.373
2148.01	394.694
2148.15	393.58
2148.29	394.112
2148.43	394.222
2148.57	396.834
2148.72	391.479
2148.86	390.562
2149	389.58
2149.14	389.614
2149.29	393.204
2149.43	395.247
2149.57	393.536
2149.71	394.658
2149.85	397.646
2150	394.617
2150.14	393.487
2150.28	393.482
2150.42	390.545
2150.56	394.055
2150.71	395.775
2150.85	393.122
2150.99	392.977
2151.13	396.984
2151.27	388.431
2151.42	390.805
2151.56	392.5
2151.7	397.932
2151.84	395.168
2151.98	399.794
2152.12	395.889
2152.27	396.057
2152.41	392.712
2152.55	394.809
2152.69	394.4
2152.84	397.57
2152.98	393.513
2153.12	393.37
2153.26	394.727
2153.4	394.613
2153.55	397.673
2153.69	396.455
2153.83	395.494
2153.97	398.622
2154.11	395.387
2154.25	395.122
2154.4	396.607
2154.54	394.555
2154.68	417.221
2154.82	397.086
2154.96	400.095
2155.11	392.369
2155.25	392.796
2155.39	394.413
2155.53	394.89
2155.67	395.805
2155.81	394.432
2155.96	393.321
2156.1	396.382
2156.24	396.59
2156.38	395.719
2156.52	400.058
2156.67	395.809
2156.81	389.979
2156.95	390.887
2157.09	395.514
2157.23	397.032
2157.37	393.441
2157.52	395.594
2157.66	396.938
2157.8	395.094
2157.94	393.397
2158.08	394.771
2158.22	396.635
2158.37	395.501
2158.51	395.217
2158.65	397.594
2158.79	393.828
2158.93	396.292
2159.07	404.607
2159.22	395.463
2159.36	397.874
2159.5	397.351
2159.64	400.053
2159.78	397.379
2159.92	397.316
2160.07	399.746
2160.21	396.782
2160.35	399.374
2160.49	399.937
2160.63	395.141
2160.77	395.961
2160.92	392.625
2161.06	395.572
2161.2	393.881
2161.34	398.046
2161.48	397.104
2161.62	396.193
2161.77	395.377
2161.91	395.614
2162.05	392.378
2162.19	395.707
2162.33	393.948
2162.47	394.969
2162.61	397.85
2162.76	396.098
2162.9	393.221
2163.04	395.583
2163.18	397.434
2163.32	399.344
2163.46	395.07
2163.61	398.204
2163.75	398.341
2163.89	393.483
2164.03	395.853
2164.17	394.999
2164.31	395.565
2164.45	394.886
2164.6	394.792
2164.74	392.53
2164.88	395.102
2165.02	398.774
2165.16	401.458
2165.3	395.967
2165.44	390.91
2165.59	397.849
2165.73	396.415
2165.87	393.6
2166.01	393.46
2166.15	398.849
2166.29	390.617
2166.43	397.103
2166.58	393.044
2166.72	395.964
2166.86	397.227
2167	391.953
2167.14	397.169
2167.28	400.701
2167.42	394.284
2167.56	395.248
2167.71	395.176
2167.85	396.13
2167.99	400.375
2168.13	395.317
2168.27	393.783
2168.41	396.179
2168.55	392.827
2168.7	392.909
2168.84	396.872
2168.98	396.139
2169.12	393.9
2169.26	398.849
2169.4	397.232
2169.54	396.337
2169.68	396.946
2169.82	395.735
2169.97	397.897
2170.11	400.723
2170.25	392.477
2170.39	396.581
2170.53	393.718
2170.67	393.46
2170.81	396.06
2170.95	396.934
2171.1	392.973
2171.24	396.752
2171.38	397.908
2171.52	395.21
2171.66	391.576
2171.8	394.64
2171.94	392.779
2172.08	394.731
2172.23	392.246
2172.37	396.665
2172.51	394.456
2172.65	401.366
2172.79	399.006
2172.93	394.021
2173.07	394.383
2173.21	394.088
2173.35	394.163
2173.5	394.579
2173.64	397.741
2173.78	398.062
2173.92	401.889
2174.06	392.841
2174.2	394.504
2174.34	397.968
2174.48	395.163
2174.62	396.24
2174.76	395.695
2174.91	398.962
2175.05	391.796
2175.19	395.209
2175.33	393.286
2175.47	401.087
2175.61	396.94
2175.75	396.889
2175.89	400.389
2176.03	393.003
2176.18	391.024
2176.32	400.456
2176.46	397.35
2176.6	395.885
2176.74	395.812
2176.88	394.018
2177.02	400.741
2177.16	396.016
2177.3	393.073
2177.44	397.581
2177.58	396.194
2177.73	397.85
2177.87	396.871
2178.01	394.819
2178.15	397.368
2178.29	402.521
2178.43	393.476
2178.57	395.379
2178.71	415.553
2178.85	394.457
2178.99	395.507
2179.13	398.534
2179.27	397.532
2179.42	401.699
2179.56	396.045
2179.7	392.285
2179.84	396.234
2179.98	397.383
2180.12	396.719
2180.26	396.212
2180.4	398.225
2180.54	392.854
2180.68	395.322
2180.82	396.432
2180.96	395.505
2181.1	398.29
2181.25	398.403
2181.39	391.71
2181.53	398.396
2181.67	399.971
2181.81	395.513
2181.95	398.173
2182.09	397.971
2182.23	397.3
2182.37	401.079
2182.51	396.471
2182.65	397.328
2182.79	394.091
2182.93	392.505
2183.08	396.027
2183.22	396.056
2183.36	396.411
2183.5	396.259
2183.64	395.397
2183.78	396.117
2183.92	394.383
2184.06	395.63
2184.2	399.764
2184.34	399.009
2184.48	398.929
2184.62	391.966
2184.76	393.741
2184.9	391.171
2185.04	395.723
2185.18	395.281
2185.33	399.109
2185.47	395.757
2185.61	400.156
2185.75	400.6
2185.89	392.013
2186.03	400.679
2186.17	395.508
2186.31	395.049
2186.45	397.275
2186.59	397.383
2186.73	406.457
2186.87	400.466
2187.01	399.752
2187.15	397.544
2187.29	407.354
2187.43	398.576
2187.57	395.121
2187.71	399.412
2187.85	394.871
2188	395.933
2188.14	393.476
2188.28	396.354
2188.42	393.749
2188.56	400.764
2188.7	397.89
2188.84	397.08
2188.98	397.173
2189.12	396.575
2189.26	399.381
2189.4	393.761
2189.54	395.038
2189.68	396.273
2189.82	396.114
2189.96	391.09
2190.1	394.006
2190.24	395.755
2190.38	395.499
2190.52	399.428
2190.66	397.64
2190.8	395.74
2190.94	403.791
2191.08	400.749
2191.22	400.612
2191.36	394.23
2191.51	399.048
2191.65	396.282
2191.79	398.59
2191.93	395.134
2192.07	399.572
2192.21	396.013
2192.35	394.895
2192.49	397.74
2192.63	399.014
2192.77	395.123
2192.91	393.951
2193.05	402.564
2193.19	396.012
2193.33	399.598
2193.47	399.551
2193.61	398.272
2193.75	397.664
2193.89	392.494
2194.03	399.718
2194.17	395.489
2194.31	398.879
2194.45	392.669
2194.59	401.332
2194.73	395.561
2194.87	395.757
2195.01	397.201
2195.15	397.537
2195.29	394.463
2195.43	396.104
2195.57	392.545
2195.71	396.947
2195.85	398.036
2195.99	400.472
2196.13	392.844
2196.27	396.821
2196.41	394.628
2196.55	399.782
2196.69	399.358
2196.83	400.156
2196.97	396.995
2197.11	396.854
2197.25	397.264
2197.39	400.301
2197.53	398.818
2197.67	399.25
2197.81	395.866
2197.95	404.285
2198.09	397.774
2198.23	396.831
2198.37	403.024
2198.51	397.014
2198.65	397.054
2198.79	391.166
2198.93	395.711
2199.07	401.985
2199.21	399.756
2199.35	398.848
2199.49	397.868
2199.63	396.357
2199.77	402.564
2199.91	391.738
2200.05	396.026
2200.19	392.78
2200.33	399.389
2200.47	400.61
2200.61	400.113
2200.75	404.339
2200.89	395.219
2201.03	397.269
2201.17	395.995
2201.31	397.959
2201.45	400.722
2201.59	399.104
2201.73	397.417
2201.87	396.413
2202.01	393.899
2202.15	395.739
2202.29	398.256
2202.43	400.704
2202.57	396.84
2202.71	396.295
2202.85	397.009
2202.99	397.963
2203.13	395.453
2203.27	397.604
2203.41	399.154
2203.55	395.594
2203.69	395.644
2203.83	395.797
2203.97	401.391
2204.11	398.07
2204.25	395.877
2204.39	398.509
2204.53	393.135
2204.67	394.699
2204.81	393.624
2204.95	397.566
2205.09	399.514
2205.23	394.113
2205.37	397.205
2205.51	396.319
2205.65	397.464
2205.79	394.368
2205.93	396.567
2206.07	396.169
2206.21	394.422
2206.35	396.619
2206.49	391.785
2206.63	398.499
2206.77	391.847
2206.91	394.506
2207.04	401.32
2207.18	393.32
2207.32	398.757
2207.46	395.91
2207.6	396.466
2207.74	393.623
2207.88	392.862
2208.02	398.728
2208.16	396.22
2208.3	398.701
2208.44	396.993
2208.58	397.915
2208.72	401.543
2208.86	396.4
2209	402.169
2209.14	393.087
2209.28	397.479
2209.42	396.453
2209.56	399.262
2209.7	397.458
2209.84	397.423
2209.98	395.308
2210.12	401.366
2210.26	394.168
2210.4	403.422
2210.53	396.351
2210.67	396.998
2210.81	399.346
2210.95	395.082
2211.09	396.409
2211.23	397.351
2211.37	396.126
2211.51	397.801
2211.65	398.366
2211.79	400.696
2211.93	396.767
2212.07	398.457
2212.21	390.19
2212.35	396.949
2212.49	399.601
2212.63	398.685
2212.77	399.762
2212.91	396.133
2213.05	398.058
2213.19	401.532
2213.32	398.856
2213.46	401.64
2213.6	393.272
2213.74	405.662
2213.88	394.488
2214.02	399.703
2214.16	399.629
2214.3	392.848
2214.44	411.675
2214.58	401.874
2214.72	399.275
2214.86	401.663
2215	395.131
2215.14	396.794
2215.28	394.363
2215.41	400.222
2215.55	401.158
2215.69	395.82
2215.83	397.336
2215.97	397.192
2216.11	399.965
2216.25	397.07
2216.39	398.9
2216.53	400.524
2216.67	398.079
2216.81	400.249
2216.95	399.456
2217.09	398.093
2217.23	404.651
2217.37	403.552
2217.5	402.33
2217.64	397.047
2217.78	397.245
2217.92	397.806
2218.06	401.816
2218.2	398.4
2218.34	397.617
2218.48	396.701
2218.62	400.696
2218.76	407.739
2218.9	396.979
2219.04	403.031
2219.17	400.741
2219.31	400.898
2219.45	396.089
2219.59	398.635
2219.73	401.277
2219.87	404.293
2220.01	393.746
2220.15	403.607
2220.29	399.578
2220.43	402.08
2220.57	397.063
2220.7	400.278
2220.84	401.123
2220.98	401.61
2221.12	400.117
2221.26	397.703
2221.4	399.566
2221.54	398.865
2221.68	399.065
2221.82	404.378
2221.96	403.622
2222.1	407.313
2222.23	396.595
2222.37	401.771
2222.51	405.848
2222.65	397.911
2222.79	402.658
2222.93	401
2223.07	398.291
2223.21	401.958
2223.35	400.757
2223.49	411.078
2223.63	397.5
2223.76	399.643
2223.9	399.408
2224.04	396.68
2224.18	399.414
2224.32	405.921
2224.46	400.533
2224.6	397.276
2224.74	397.879
2224.88	402.557
2225.01	403.479
2225.15	401.478
2225.29	401.017
2225.43	399.613
2225.57	407.482
2225.71	399.767
2225.85	398.396
2225.99	403.413
2226.13	400.219
2226.26	404.474
2226.4	398.077
2226.54	399.856
2226.68	401.216
2226.82	405.329
2226.96	402.768
2227.1	399.449
2227.24	402.109
2227.38	397.862
2227.51	404.125
2227.65	405.497
2227.79	405.978
2227.93	403.647
2228.07	402.497
2228.21	405.462
2228.35	398.552
2228.49	399.352
2228.62	400.181
2228.76	397.604
2228.9	405.389
2229.04	400.391
2229.18	403.03
2229.32	403.238
2229.46	398.77
2229.6	395.704
2229.73	399.685
2229.87	398.099
2230.01	400.01
2230.15	400.069
2230.29	398.966
2230.43	405.068
2230.57	403.809
2230.71	403.545
2230.84	402.75
2230.98	407.766
2231.12	400.247
2231.26	401.796
2231.4	402.219
2231.54	405.221
2231.68	397.99
2231.81	401.865
2231.95	402.167
2232.09	402.32
2232.23	401.911
2232.37	403.486
2232.51	406.199
2232.65	403.918
2232.79	406.837
2232.92	404.381
2233.06	404.678
2233.2	401.478
2233.34	403.408
2233.48	402.53
2233.62	404.785
2233.76	406.617
2233.89	403.056
2234.03	401.479
2234.17	406.159
2234.31	400.391
2234.45	404.209
2234.59	401.632
2234.72	403.34
2234.86	397.386
2235	401.351
2235.14	402.744
2235.28	406.646
2235.42	400.961
2235.56	402.002
2235.69	413.063
2235.83	403.933
2235.97	404.098
2236.11	398.842
2236.25	403.286
2236.39	403.028
2236.52	405.638
2236.66	405.577
2236.8	401.943
2236.94	402.14
2237.08	403.45
2237.22	410.066
2237.35	405.66
2237.49	402.486
2237.63	401.487
2237.77	407.015
2237.91	402.92
2238.05	407.304
2238.19	404.31
2238.32	403.577
2238.46	407.01
2238.6	405.697
2238.74	403.913
2238.88	402.124
2239.01	402.292
2239.15	400.134
2239.29	404.091
2239.43	406.993
2239.57	403.514
2239.71	400.463
2239.84	405.151
2239.98	400.979
2240.12	405.207
2240.26	407.277
2240.4	408.979
2240.54	399.218
2240.67	405.766
2240.81	401.97
2240.95	406.223
2241.09	403.17
2241.23	404.567
2241.37	404.007
2241.5	402.26
2241.64	407.735
2241.78	402.156
2241.92	409.107
2242.06	408.909
2242.2	407.379
2242.33	404.983
2242.47	404.352
2242.61	402.526
2242.75	404.431
2242.89	403.662
2243.02	407.976
2243.16	406.8
2243.3	404.273
2243.44	406.684
2243.58	406.66
2243.72	405.596
2243.85	410.964
2243.99	404.349
2244.13	404.752
2244.27	409.064
2244.41	404.582
2244.54	403.669
2244.68	403.514
2244.82	411.253
2244.96	407.079
2245.1	409.698
2245.23	407.239
2245.37	407.528
2245.51	404.994
2245.65	407.475
2245.79	407.512
2245.92	406.745
2246.06	408.955
2246.2	406.942
2246.34	407.258
2246.48	403.468
2246.61	405.084
2246.75	407.781
2246.89	410.305
2247.03	413.636
2247.17	402.994
2247.3	402.792
2247.44	408.415
2247.58	412.206
2247.72	406.464
2247.86	404.617
2247.99	404.023
2248.13	404.438
2248.27	402.455
2248.41	406.65
2248.55	405.499
2248.68	403.905
2248.82	410.678
2248.96	411.811
2249.1	401.946
2249.24	406.602
2249.37	402.44
2249.51	409.063
2249.65	405.136
2249.79	409.737
2249.92	405.308
2250.06	408.478
2250.2	407.698
2250.34	405.619
2250.48	405.656
2250.61	405.472
2250.75	412.031
2250.89	408.21
2251.03	406.175
2251.17	407.719
2251.3	409.628
2251.44	409.916
2251.58	409.893
2251.72	399.277
2251.85	404.907
2251.99	407.202
2252.13	404.548
2252.27	400.955
2252.41	408.093
2252.54	409.995
2252.68	409.207
2252.82	409.412
2252.96	432.863
2253.09	411.107
2253.23	408.161
2253.37	404.095
2253.51	409.517
2253.65	406.155
2253.78	409.075
2253.92	406.061
2254.06	404.197
2254.2	410.431
2254.33	405.193
2254.47	404.298
2254.61	403.089
2254.75	409.521
2254.88	417.835
2255.02	409.742
2255.16	408.321
2255.3	407.651
2255.44	407.824
2255.57	408.088
2255.71	407.033
2255.85	406.336
2255.99	413.998
2256.12	413.035
2256.26	415.987
2256.4	409.256
2256.54	412.245
2256.67	409.931
2256.81	410.507
2256.95	410.429
2257.09	410.493
2257.22	406.978
2257.36	404.053
2257.5	408.532
2257.64	416.541
2257.77	411.35
2257.91	409.25
2258.05	407.193
2258.19	408.414
2258.32	403.371
2258.46	407.414
2258.6	417.513
2258.74	404.965
2258.87	411.324
2259.01	410.341
2259.15	408.375
2259.29	414.294
2259.42	411.699
2259.56	411.364
2259.7	413.551
2259.84	416.354
2259.97	413.672
2260.11	414.18
2260.25	414.725
2260.39	408.908
2260.52	411.225
2260.66	405.912
2260.8	412.491
2260.94	412.502
2261.07	413.649
2261.21	409.846
2261.35	409.686
2261.49	408.92
2261.62	405.29
2261.76	412.744
2261.9	414.078
2262.04	408.254
2262.17	407.72
2262.31	420.74
2262.45	414.412
2262.58	408.588
2262.72	408.043
2262.86	410.201
2263	409.504
2263.13	411.622
2263.27	409.161
2263.41	406.334
2263.54	411.508
2263.68	410.237
2263.82	410.709
2263.96	410.413
2264.09	406.305
2264.23	409.808
2264.37	409.476
2264.51	414.345
2264.64	409.053
2264.78	407.445
2264.92	409.046
2265.06	410.054
2265.19	411.026
2265.33	412.371
2265.47	407.51
2265.6	413.332
2265.74	408.225
2265.88	411.712
2266.02	409.249
2266.15	413.165
2266.29	408.706
2266.43	412.046
2266.56	405.014
2266.7	406.179
2266.84	413.34
2266.98	407.93
2267.11	411.014
2267.25	409.709
2267.39	412.285
2267.52	416.187
2267.66	407.815
2267.8	413.931
2267.94	414.811
2268.07	408.771
2268.21	415.701
2268.35	413.595
2268.48	412.378
2268.62	409.573
2268.76	410.247
2268.9	413.68
2269.03	407.608
2269.17	407.272
2269.31	409.853
2269.44	411.963
2269.58	409.355
2269.72	413.12
2269.85	413.113
2269.99	410.192
2270.13	416.356
2270.26	414.718
2270.4	408.427
2270.54	417.491
2270.68	420.499
2270.81	418.945
2270.95	409.109
2271.09	419.263
2271.22	412.22
2271.36	406.601
2271.5	408.096
2271.64	413.725
2271.77	413.777
2271.91	410.484
2272.05	412.614
2272.18	414.065
2272.32	413.506
2272.46	410.298
2272.59	412.95
2272.73	413.611
2272.87	411.539
2273	415.336
2273.14	413.55
2273.28	416.613
2273.42	407.138
2273.55	410.498
2273.69	413.46
2273.83	407.955
2273.96	412.634
2274.1	409.886
2274.24	415.608
2274.37	413.421
2274.51	407.984
2274.65	422.615
2274.78	412.074
2274.92	411.877
2275.06	410.135
2275.19	412.252
2275.33	412.316
2275.47	412.643
2275.6	413.35
2275.74	413.113
2275.88	411.658
2276.01	415.665
2276.15	410.163
2276.29	413.936
2276.42	414.638
2276.56	413.942
2276.7	410.831
2276.83	410.777
2276.97	410.599
2277.11	411.367
2277.25	409.585
2277.38	413.822
2277.52	413.043
2277.66	423.07
2277.79	417.375
2277.93	412.378
2278.06	408.323
2278.2	417.336
2278.34	415.291
2278.47	416.272
2278.61	412.625
2278.75	410.631
2278.89	412.569
2279.02	409.449
2279.16	414.474
2279.3	409.597
2279.43	413.717
2279.57	427.572
2279.71	408.309
2279.84	414.438
2279.98	419.316
2280.11	414.268
2280.25	416.677
2280.39	417.723
2280.52	413.261
2280.66	414.584
2280.8	416.172
2280.93	411.805
2281.07	410.954
2281.21	410.711
2281.34	409.451
2281.48	413.042
2281.62	414.551
2281.75	414.999
2281.89	411.176
2282.03	414.07
2282.16	417.084
2282.3	414.762
2282.44	423.062
2282.57	415.456
2282.71	410.966
2282.85	410.89
2282.98	412.636
2283.12	416.593
2283.25	416.719
2283.39	411.554
2283.53	410.371
2283.66	415.622
2283.8	409.472
2283.94	416.851
2284.07	411.601
2284.21	414.78
2284.35	417.169
2284.48	417.988
2284.62	414.429
2284.76	411.626
2284.89	416.333
2285.03	414.821
2285.16	413.089
2285.3	411.714
2285.44	414.387
2285.57	413.051
2285.71	421.068
2285.85	409.388
2285.98	419.008
2286.12	417.838
2286.26	413.161
2286.39	415.098
2286.53	411.686
2286.66	413.448
2286.8	414.01
2286.94	409.992
2287.07	411.656
2287.21	412.297
2287.35	413.007
2287.48	414.342
2287.62	411.646
2287.75	416.785
2287.89	419.1
2288.03	414.434
2288.16	412.536
2288.3	412.75
2288.44	419.524
2288.57	410.607
2288.71	416.73
2288.84	414.3
2288.98	415.672
2289.12	417.051
2289.25	413.523
2289.39	412.956
2289.53	411.225
2289.66	413.912
2289.8	410.131
2289.93	411.341
2290.07	407.17
2290.21	415.974
2290.34	412.812
2290.48	416.205
2290.61	421.019
2290.75	413.46
2290.89	414.705
2291.02	413.157
2291.16	412.76
2291.3	411.638
2291.43	415.24
2291.57	410.673
2291.7	418.37
2291.84	412.426
2291.98	414.468
2292.11	412.726
2292.25	412.176
2292.38	420.241
2292.52	409.943
2292.66	413.929
2292.79	409.558
2292.93	410.256
2293.06	415.85
2293.2	414.566
2293.34	415.356
2293.47	410.045
2293.61	415.225
2293.74	416.807
2293.88	412.861
2294.02	417.421
2294.15	411.561
2294.29	413.868
2294.42	412.842
2294.56	416.619
2294.7	413.153
2294.83	411.363
2294.97	411.567
2295.1	414.374
2295.24	415.625
2295.38	417.32
2295.51	413.855
2295.65	417.501
2295.78	415.424
2295.92	418.226
2296.06	410.659
2296.19	413.883
2296.33	416.751
2296.46	414.263
2296.6	416.209
2296.74	420.764
2296.87	412.68
2297.01	414.305
2297.14	412.998
2297.28	410.752
2297.41	422.442
2297.55	412.792
2297.69	413.734
2297.82	411.526
2297.96	415.443
2298.09	422.786
2298.23	414.396
2298.37	415.195
2298.5	409.978
2298.64	413.421
2298.77	418.474
2298.91	414.736
2299.04	417.154
2299.18	413.915
2299.32	418.898
2299.45	416.51
2299.59	412.918
2299.72	411.669
2299.86	415.18
2299.99	415.031
2300.13	410.868
2300.27	413.145
2300.4	414.46
2300.54	413.766
2300.67	417.022
2300.81	415.866
2300.94	417.341
2301.08	416.374
2301.22	414.913
2301.35	423.077
2301.49	409.875
2301.62	413.405
2301.76	419.173
2301.89	417.064
2302.03	415.064
2302.17	415.348
2302.3	413.405
2302.44	418.074
2302.57	415.155
2302.71	413.769
2302.84	417.524
2302.98	415.426
2303.11	416.118
2303.25	411.896
2303.39	417.485
2303.52	413.19
2303.66	414.008
2303.79	412.277
2303.93	417.656
2304.06	415.545
2304.2	412.606
2304.33	427.271
2304.47	415.65
2304.61	426.164
2304.74	414.336
2304.88	419.635
2305.01	410.671
2305.15	413.803
2305.28	414.524
2305.42	412.394
2305.55	415.776
2305.69	414.664
2305.83	411.922
2305.96	412.666
2306.1	418.34
2306.23	417.121
2306.37	421.784
2306.5	427.663
2306.64	416.033
2306.77	411.561
2306.91	409.137
2307.04	414.312
2307.18	412.104
2307.32	418.183
2307.45	410.382
2307.59	411.635
2307.72	412.491
2307.86	417.813
2307.99	418.265
2308.13	416.169
2308.26	418.233
2308.4	414.942
2308.53	410.275
2308.67	412.714
2308.81	414.639
2308.94	418.356
2309.08	415.811
2309.21	415.515
2309.35	416.373
2309.48	412.587
2309.62	415.095
2309.75	419.624
2309.89	414.425
2310.02	413.09
2310.16	420.782
2310.29	423.355
2310.43	416.408
2310.56	418.691
2310.7	417.944
2310.83	422.632
2310.97	414.025
2311.11	418.12
2311.24	416.281
2311.38	419.714
2311.51	421.294
2311.65	412.674
2311.78	414.743
2311.92	413.087
2312.05	413.605
2312.19	418.351
2312.32	422.1
2312.46	415.64
2312.59	417.356
2312.73	414.205
2312.86	415.36
2313	409.471
2313.13	414.836
2313.27	421.486
2313.4	412.382
2313.54	414.203
2313.67	416.27
2313.81	414.733
2313.95	413.353
2314.08	420.496
2314.22	410.61
2314.35	421.241
2314.48	420.903
2314.62	415.026
2314.76	420.003
2314.89	416.645
2315.03	417.739
2315.16	416.67
2315.3	413.526
2315.43	415.989
2315.57	415.193
2315.7	417.384
2315.84	419.18
2315.97	415.269
2316.11	417.816
2316.24	414.477
2316.38	420.124
2316.51	419.129
2316.65	419.876
2316.78	418.056
2316.92	414.933
2317.05	418.636
2317.19	416.068
2317.32	414.893
2317.46	417.425
2317.59	425.564
2317.73	412.812
2317.86	415.951
2318	417.209
2318.13	415.681
2318.27	417.018
2318.4	417.027
2318.54	415.58
2318.67	422.167
2318.81	417.005
2318.94	420.179
2319.08	410.749
2319.21	413.513
2319.35	418.741
2319.48	421.515
2319.62	415.74
2319.75	416.741
2319.89	423.647
2320.02	418.115
2320.16	418.244
2320.29	416.935
2320.42	421.171
2320.56	420.465
2320.69	415.794
2320.83	418.307
2320.96	414.406
2321.1	415.596
2321.23	417.296
2321.37	415.449
2321.5	417.361
2321.64	416.571
2321.77	422.546
2321.91	415.359
2322.04	419.386
2322.18	420.757
2322.31	418.914
2322.45	411.382
2322.58	413.275
2322.72	421.797
2322.85	419.366
2322.99	417.114
2323.12	419.927
2323.26	422.441
2323.39	414.851
2323.53	417.196
2323.66	422.937
2323.79	421.872
2323.93	417.594
2324.06	420.875
2324.2	417.008
2324.33	419.542
2324.47	417.654
2324.6	419.282
2324.74	424.239
2324.87	417.903
2325.01	415.081
2325.14	416.692
2325.28	421.818
2325.41	414.762
2325.55	418.657
2325.68	419.255
2325.81	417.368
2325.95	418.286
2326.08	422.312
2326.22	422.254
2326.35	421.159
2326.49	421.52
2326.62	419.449
2326.76	419.275
2326.89	419.437
2327.03	419.42
2327.16	421.594
2327.3	419.87
2327.43	417.187
2327.56	420.617
2327.7	422.254
2327.83	425.36
2327.97	426.75
2328.1	424.383
2328.24	428.617
2328.37	437.722
2328.51	430.115
2328.64	432.595
2328.78	424.758
2328.91	419.849
2329.04	420.4
2329.18	416.437
2329.31	426.481
2329.45	419.666
2329.58	417.311
2329.72	425.933
2329.85	415.349
2329.99	416.705
2330.12	417.974
2330.25	415.105
2330.39	416.498
2330.52	422.587
2330.66	421.434
2330.79	422.085
2330.93	417.672
2331.06	421.456
2331.2	417.355
2331.33	418.974
2331.46	414.737
2331.6	420.556
2331.73	422.536
2331.87	422.261
2332	427.293
2332.14	422.769
2332.27	414.18
2332.4	418.694
2332.54	417.357
2332.67	421.867
2332.81	417.777
2332.94	419.102
2333.08	420.076
2333.21	417.66
2333.34	417.531
2333.48	416.33
2333.61	422.192
2333.75	420.201
2333.88	424.281
2334.02	421.24
2334.15	422.872
2334.29	417.154
2334.42	417.875
2334.55	420.349
2334.69	424.097
2334.82	420.82
2334.96	418.599
2335.09	424.47
2335.23	420.263
2335.36	423.565
2335.49	420.732
2335.63	423.072
2335.76	420.516
2335.9	426.388
2336.03	420.181
2336.17	420.871
2336.3	420.671
2336.43	422.265
2336.57	419.64
2336.7	421.596
2336.84	420.559
2336.97	433.346
2337.1	419.025
2337.24	422.901
2337.37	416.612
2337.51	421.92
2337.64	420.37
2337.77	424.755
2337.91	420.164
2338.04	419.482
2338.18	420.15
2338.31	420.567
2338.45	422.872
2338.58	420.332
2338.71	417.058
2338.85	417.678
2338.98	419.168
2339.12	419.894
2339.25	420.213
2339.38	420.685
2339.52	422.799
2339.65	418.216
2339.79	423.858
2339.92	423.999
2340.05	422.565
2340.19	419.991
2340.32	424.091
2340.46	424.006
2340.59	419.994
2340.72	420.085
2340.86	421.813
2340.99	422.985
2341.13	423.561
2341.26	420.194
2341.39	424.242
2341.53	429.656
2341.66	422.941
2341.8	420.275
2341.93	420.018
2342.06	422.018
2342.2	419.954
2342.33	421.308
2342.47	420.18
2342.6	423.761
2342.73	420.637
2342.87	423.513
2343	422.335
2343.13	419.979
2343.27	420.561
2343.4	422.61
2343.54	423.953
2343.67	423.93
2343.8	423.493
2343.94	423.28
2344.07	423.08
2344.21	419.852
2344.34	423.347
2344.47	420.888
2344.61	421.956
2344.74	425.717
2344.87	420.459
2345.01	425.416
2345.14	424.252
2345.28	424.654
2345.41	419.817
2345.54	421.919
2345.68	424.107
2345.81	423.448
2345.94	421.831
2346.08	426.744
2346.21	425.092
2346.35	421.002
2346.48	420.691
2346.61	424.195
2346.75	422.738
2346.88	422.022
2347.02	423.788
2347.15	422.929
2347.28	423.731
2347.42	424.291
2347.55	425.932
2347.68	422.938
2347.82	421.073
2347.95	422.711
2348.08	426.809
2348.22	425.151
2348.35	424.177
2348.49	422.118
2348.62	423.925
2348.75	423.445
2348.89	426.322
2349.02	430.786
2349.15	426.917
2349.29	422.874
2349.42	425.642
2349.55	425.16
2349.69	423.179
2349.82	424.139
2349.96	424.444
2350.09	423.491
2350.22	422.088
2350.36	423.295
2350.49	424.594
2350.62	422.176
2350.76	421.957
2350.89	421.943
2351.02	424.347
2351.16	423.754
2351.29	423.003
2351.42	425.981
2351.56	427.88
2351.69	430.734
2351.83	423.443
2351.96	425.977
2352.09	427.84
2352.21	423.666
2352.35	420.168
2352.48	426.099
2352.62	423.327
2352.75	425.991
2352.89	420.081
2353.03	419.066
2353.16	426.867
2353.3	419.19
2353.43	425.478
2353.57	422.28
2353.71	427.922
2353.84	430.027
2353.98	421.795
2354.11	421.887
2354.25	440.489
2354.38	425.79
2354.52	422.067
2354.66	423.206
2354.79	425.104
2354.93	425.262
2355.06	422.647
2355.2	429.918
2355.34	428.797
2355.47	423.193
2355.61	430.157
2355.74	425.355
2355.88	417.713
2356.01	423.856
2356.15	424.673
2356.29	424.908
2356.42	423.55
2356.56	424.652
2356.69	424.475
2356.83	428.43
2356.96	422.107
2357.1	423.91
2357.24	421.344
2357.37	423.209
2357.51	428.426
2357.64	428.641
2357.78	428.301
2357.91	426.894
2358.05	421.983
2358.19	424.609
2358.32	426.676
2358.46	420.198
2358.59	429.539
2358.73	425.458
2358.86	428.644
2359	426.766
2359.14	424.671
2359.27	425.925
2359.41	425.519
2359.54	438.813
2359.68	427.482
2359.81	425.781
2359.95	428.742
2360.09	429.63
2360.22	428.345
2360.36	421.841
2360.49	424.073
2360.63	432.02
2360.76	428.869
2360.9	422.3
2361.03	423.817
2361.17	424.176
2361.31	424.497
2361.44	425.655
2361.58	425.911
2361.71	428.141
2361.85	426.209
2361.98	433.639
2362.12	426.513
2362.25	421.793
2362.39	431.073
2362.53	429.227
2362.66	425.68
2362.8	426.554
2362.93	426.429
2363.07	422.829
2363.2	425.213
2363.34	425.647
2363.47	432.532
2363.61	429.132
2363.74	432.43
2363.88	424.459
2364.02	428.096
2364.15	424.686
2364.29	429.287
2364.42	426.413
2364.56	427.251
2364.69	429.842
2364.83	432.373
2364.96	424.221
2365.1	431.44
2365.24	425.405
2365.37	424.438
2365.51	425.806
2365.64	427.959
2365.78	429.065
2365.91	429.001
2366.05	429.405
2366.18	423.502
2366.32	422.316
2366.45	427.772
2366.59	427.879
2366.72	428.066
2366.86	425.006
2366.99	429.306
2367.13	425.769
2367.26	430.781
2367.4	429.665
2367.54	422.717
2367.67	429.213
2367.81	426.748
2367.94	429.392
2368.08	431.487
2368.21	426.619
2368.35	428.797
2368.48	423.332
2368.62	429.67
2368.75	432.873
2368.89	424.913
2369.02	426.571
2369.16	430.465
2369.29	427.312
2369.43	428.619
2369.56	429.728
2369.7	429.704
2369.83	429.019
2369.97	429.243
2370.1	424.321
2370.24	431.761
2370.38	429.553
2370.51	427.666
2370.65	431.77
2370.78	428.228
2370.92	425.996
2371.05	428.103
2371.19	426.783
2371.32	433.338
2371.46	427.889
2371.59	433.878
2371.73	433.389
2371.86	431.07
2372	428.13
2372.13	432.846
2372.27	433.271
2372.4	426.975
2372.54	431.676
2372.67	429.181
2372.81	426.176
2372.94	435.654
2373.08	432.236
2373.21	430.867
2373.35	431.415
2373.48	427.136
2373.62	431.99
2373.75	431.951
2373.89	430.39
2374.02	426.859
2374.16	430.403
2374.29	428.736
2374.43	426.284
2374.56	430.411
2374.7	427.851
2374.83	433.239
2374.97	430.383
2375.1	429.278
2375.24	429.768
2375.37	430.955
2375.51	432.125
2375.64	429.452
2375.78	436.7
2375.91	427.815
2376.05	432.82
2376.18	427.574
2376.32	425.227
2376.45	429.75
2376.59	435.33
2376.72	429.079
2376.86	431.47
2376.99	431.412
2377.13	426.383
2377.26	430.708
2377.4	429.432
2377.53	433.254
2377.67	431.654
2377.8	426.56
2377.94	426.137
2378.07	425.924
2378.21	421.595
2378.34	429.001
2378.48	428.591
2378.61	432.109
2378.75	434.968
2378.88	427.853
2379.02	428.835
2379.15	430.72
2379.29	429.327
2379.42	431.865
2379.56	427.858
2379.69	435.475
2379.83	427.919
2379.96	428.366
2380.09	427.755
2380.23	433.57
2380.36	429.22
2380.5	428.128
2380.63	431.544
2380.77	436.922
2380.9	433.995
2381.04	436.564
2381.17	429.635
2381.31	431.606
2381.44	430.401
2381.58	434.347
2381.71	433.056
2381.85	434.157
2381.98	431.539
2382.12	432.327
2382.25	441.1
2382.39	432.641
2382.52	443.58
2382.65	428.06
2382.79	434.401
2382.92	426.04
2383.06	427.177
2383.19	432.067
2383.33	428.363
2383.46	433.019
2383.6	433.862
2383.73	434.332
2383.87	430.351
2384	432.414
2384.14	440.373
2384.27	433.727
2384.4	434.174
2384.54	433.197
2384.67	429.315
2384.81	428.46
2384.94	430.132
2385.08	431.945
2385.21	436.375
2385.35	433.666
2385.48	437.551
2385.62	429.528
2385.75	432.953
2385.88	440.048
2386.02	431.513
2386.15	430.667
2386.29	432.076
2386.42	435.952
2386.56	431.635
2386.69	433.317
2386.83	432.06
2386.96	430.774
2387.1	429.724
2387.23	436.553
2387.36	430.543
2387.5	433.625
2387.63	432.79
2387.77	435.218
2387.9	434.411
2388.04	431.115
2388.17	434.252
2388.31	432.759
2388.44	430.19
2388.57	432.718
2388.71	434.662
2388.84	435.8
2388.98	434.546
2389.11	430.862
2389.25	439.444
2389.38	432.346
2389.52	431.407
2389.65	433.471
2389.78	438.985
2389.92	435.053
2390.05	435.523
2390.19	435.51
2390.32	433.877
2390.46	433.081
2390.59	427.296
2390.73	450.993
2390.86	434.882
2390.99	434.066
2391.13	437.138
2391.26	430.9
2391.4	432.844
2391.53	432.271
2391.67	437.306
2391.8	428.572
2391.93	433.843
2392.07	431.675
2392.2	433.556
2392.34	437.45
2392.47	434.094
2392.6	432.899
2392.74	429.896
2392.87	433.962
2393.01	426.503
2393.14	431.198
2393.28	435.569
2393.41	430.533
2393.54	432.041
2393.68	432.62
2393.81	431.334
2393.95	432.248
2394.08	429.125
2394.22	435.356
2394.35	433.854
2394.48	440.265
2394.62	431.716
2394.75	434.571
2394.89	432.026
2395.02	439.017
2395.16	432.042
2395.29	432.388
2395.42	432.872
2395.56	432.296
2395.69	433.288
2395.83	431.364
2395.96	431.894
2396.09	433.304
2396.23	432.486
2396.36	430.147
2396.5	434.062
2396.63	433.571
2396.76	434.499
2396.9	429.055
2397.03	432.504
2397.17	429.637
2397.3	434.312
2397.44	436.046
2397.57	437.454
2397.7	432.773
2397.84	433.115
2397.97	431.979
2398.11	436.832
2398.24	433.905
2398.37	437.456
2398.51	435.488
2398.64	437.874
2398.78	433.203
2398.91	434.517
2399.04	430.811
2399.18	436.73
2399.31	439.409
2399.44	434.673
2399.58	434.204
2399.71	431.532
2399.85	429.632
2399.98	434.333
