#Acq. time (s)=	45
#Accumulations=	2
#Range (cm-¹)=	1200...2355
#Windows=	5
#Auto scanning=	Off
#Autofocus=	Off
#Macrospot=	Off
#AutoExposure=	Off
#Spike filter=	Multiple accum.
#Delay time (s)=	2
#Binning=	1
#Readout mode=	Signal
#DeNoise=	Off
#ICS correction=	On
#Dark correction=	Off
#Inst. Process=	Off
#Detector Gain=	Best Dynamic
#Detector ADC=	50 kHz HS
#Detector temperature (°C)=	-60.28
#Instrument=	LabRAM HR Evol
#Detector=	SIN-EM FIVIS
#Objective=	x100_VIS_LWD
#Grating=	1800 (450-850nm)
#ND Filter=	100%
#Laser=	633nm_Edge
#Hole=	49.98
#Temperature=	0
#Range=	Visible
#StageXY=	75x50mm Scan+
#StageZ=	Z motor
#X (µm)=	0
#Y (µm)=	0
#Z (µm)=	5.3
#Full time(mm:ss)=	7:56
#Project=	21_11_22
#Sample=	BU04w
#Site=	
#Title=	BU04w-A-FF3-FI02-L_1800 (450-850nm)_633nm_Edge_100%_x100_VIS_LWD_H50um_45sX2
#Remark=	
#Date=	22.11.2021 10:49
#Acquired=	22.11.2021 10:49:33
1200.31	11.2819
1200.48	14.2117
1200.65	11.2683
1200.82	11.2805
1200.99	10.3049
1201.17	12.2653
1201.34	13.225
1201.51	13.228
1201.68	13.2499
1201.85	13.2533
1202.03	11.2935
1202.2	13.2594
1202.37	12.2753
1202.54	12.2656
1202.72	11.2908
1202.89	15.2275
1203.06	12.2765
1203.23	14.2164
1203.4	11.2707
1203.58	12.2692
1203.75	12.2691
1203.92	14.2272
1204.09	14.2055
1204.26	9.31185
1204.44	13.2514
1204.61	13.2491
1204.78	13.2636
1204.95	13.2786
1205.12	13.2667
1205.3	13.2474
1205.47	14.2288
1205.64	11.2782
1205.81	12.254
1205.98	13.2384
1206.16	13.2388
1206.33	12.2684
1206.5	13.2942
1206.67	10.3173
1206.84	12.2791
1207.02	11.3132
1207.19	12.2945
1207.36	14.2345
1207.53	11.2766
1207.7	13.2767
1207.87	13.2771
1208.05	13.2986
1208.22	11.295
1208.39	14.2545
1208.56	14.2646
1208.73	14.2627
1208.9	11.2965
1209.08	13.2699
1209.25	13.2721
1209.42	12.278
1209.59	12.3027
1209.76	11.3459
1209.94	12.3077
1210.11	11.3113
1210.28	12.2983
1210.45	11.2987
1210.62	11.3255
1210.79	12.2763
1210.97	12.3179
1211.14	11.3461
1211.31	13.2613
1211.48	11.2917
1211.65	11.3342
1211.83	14.2911
1212	10.3493
1212.17	12.2841
1212.34	13.293
1212.51	11.3282
1212.68	12.3069
1212.85	13.2978
1213.03	11.3462
1213.2	12.331
1213.37	12.3156
1213.54	8.39125
1213.71	11.3555
1213.88	11.3107
1214.06	12.3062
1214.23	13.3077
1214.4	12.3315
1214.57	13.3199
1214.74	12.3303
1214.91	14.2776
1215.08	11.3436
1215.26	11.3496
1215.43	11.3424
1215.6	11.3586
1215.77	11.3466
1215.94	12.3359
1216.11	11.3538
1216.29	11.3443
1216.46	13.3213
1216.63	13.3181
1216.8	14.3114
1216.97	12.3249
1217.14	14.3187
1217.31	11.3748
1217.49	11.385
1217.66	13.376
1217.83	10.3884
1218	13.3435
1218.17	12.3599
1218.34	12.352
1218.51	13.3535
1218.69	13.3639
1218.86	11.3869
1219.03	13.3859
1219.2	12.3848
1219.37	11.3905
1219.54	10.3947
1219.71	10.4039
1219.89	13.395
1220.06	11.4067
1220.23	13.3897
1220.4	15.3839
1220.57	13.3982
1220.74	13.4031
1220.91	10.4358
1221.08	11.4303
1221.26	15.3694
1221.43	12.3929
1221.6	13.3779
1221.77	11.4064
1221.94	9.43898
1222.11	12.431
1222.28	13.409
1222.46	11.4271
1222.63	12.4379
1222.8	13.4394
1222.97	11.4317
1223.14	11.4242
1223.31	10.4269
1223.48	12.4295
1223.65	11.441
1223.82	14.415
1224	12.4335
1224.17	13.3866
1224.34	11.4232
1224.51	12.4437
1224.68	12.4707
1224.85	12.4527
1225.02	14.4152
1225.19	11.4231
1225.36	11.4436
1225.54	12.4299
1225.71	11.4408
1225.88	12.4456
1226.05	12.4247
1226.22	13.4513
1226.39	13.4665
1226.56	13.4551
1226.73	11.4564
1226.9	11.4769
1227.08	13.4823
1227.25	10.4819
1227.42	11.4728
1227.59	11.4582
1227.76	13.4628
1227.93	13.4603
1228.1	10.492
1228.27	13.5135
1228.44	11.5005
1228.61	17.471
1228.79	12.4738
1228.96	13.4703
1229.13	12.4842
1229.3	12.501
1229.47	11.4913
1229.64	11.4847
1229.81	10.4959
1229.98	12.4936
1230.15	14.497
1230.32	13.4994
1230.49	11.4984
1230.67	13.5107
1230.84	13.5197
1231.01	13.5069
1231.18	13.502
1231.35	13.5066
1231.52	12.5417
1231.69	11.5371
1231.86	11.524
1232.03	11.5133
1232.2	12.5199
1232.37	12.5074
1232.54	11.5034
1232.72	10.5185
1232.89	9.51453
1233.06	12.5003
1233.23	11.5031
1233.4	14.498
1233.57	12.5017
1233.74	11.5523
1233.91	13.552
1234.08	13.5249
1234.25	14.5697
1234.42	12.5488
1234.59	12.5368
1234.77	12.5418
1234.94	11.5545
1235.11	14.585
1235.28	13.58
1235.45	12.5393
1235.62	12.5168
1235.79	12.5738
1235.96	12.5554
1236.13	14.5888
1236.3	12.5832
1236.47	10.568
1236.64	14.5846
1236.81	13.5717
1236.98	12.5741
1237.15	11.5893
1237.32	15.611
1237.5	12.5658
1237.67	11.5655
1237.84	11.5575
1238.01	14.567
1238.18	15.5804
1238.35	10.5738
1238.52	12.6167
1238.69	12.6032
1238.86	13.6049
1239.03	12.5894
1239.2	11.5868
1239.37	12.5851
1239.54	13.5982
1239.71	13.6171
1239.88	12.5969
1240.05	11.5744
1240.22	14.6258
1240.39	12.619
1240.57	11.6313
1240.73	13.6667
1240.91	10.5998
1241.08	13.6154
1241.25	14.6335
1241.42	12.6184
1241.59	12.6251
1241.76	12.6368
1241.93	14.6865
1242.1	13.6295
1242.27	12.622
1242.44	12.6127
1242.61	13.6503
1242.78	11.6372
1242.95	14.6887
1243.12	12.6639
1243.29	11.6497
1243.46	14.6786
1243.63	13.652
1243.8	8.59802
1243.97	13.6618
1244.14	14.7037
1244.31	14.728
1244.48	11.6811
1244.65	14.7012
1244.82	12.6484
1244.99	11.6341
1245.17	15.7196
1245.33	10.659
1245.51	14.6917
1245.68	13.6766
1245.85	13.6695
1246.02	14.6855
1246.19	11.6546
1246.36	12.7071
1246.53	12.7296
1246.7	15.7891
1246.87	12.6809
1247.04	14.7067
1247.21	13.687
1247.38	13.7043
1247.55	14.7371
1247.72	10.6733
1247.89	11.6729
1248.06	13.7037
1248.23	12.6947
1248.4	14.7318
1248.57	12.698
1248.74	12.7129
1248.91	13.7394
1249.08	12.7243
1249.25	12.6975
1249.42	12.7055
1249.59	14.7362
1249.76	17.7766
1249.93	12.7098
1250.1	13.729
1250.27	12.7156
1250.44	11.7108
1250.61	11.6986
1250.78	14.7103
1250.95	11.6799
1251.12	12.7284
1251.29	12.7342
1251.46	11.7127
1251.63	12.7218
1251.8	12.7139
1251.97	11.7004
1252.14	13.7312
1252.31	12.7133
1252.48	12.7283
1252.65	12.7265
1252.82	12.7165
1252.99	11.6967
1253.16	12.7238
1253.33	9.67825
1253.5	9.67296
1253.67	11.7193
1253.84	13.7542
1254.01	11.6977
1254.18	13.7252
1254.35	11.6965
1254.52	15.7959
1254.69	12.7527
1254.86	13.7903
1255.03	11.7363
1255.2	13.766
1255.37	10.7032
1255.54	12.7472
1255.71	12.7459
1255.88	13.7775
1256.05	11.7558
1256.22	13.7903
1256.39	11.7301
1256.56	11.7106
1256.73	12.7464
1256.9	10.7048
1257.07	12.772
1257.24	10.702
1257.41	13.7554
1257.58	17.8192
1257.75	15.7819
1257.92	14.8166
1258.09	12.7733
1258.25	13.7904
1258.42	12.747
1258.59	14.8107
1258.76	12.7449
1258.93	12.7443
1259.1	13.7694
1259.27	10.7263
1259.44	12.7541
1259.61	13.7483
1259.78	10.6875
1259.95	12.7238
1260.12	12.7231
1260.29	14.7977
1260.46	16.821
1260.63	12.761
1260.8	10.7047
1260.97	12.7475
1261.14	13.7572
1261.31	11.735
1261.48	12.7223
1261.65	12.7443
1261.82	15.807
1261.99	13.7429
1262.16	14.765
1262.33	12.7428
1262.5	15.8139
1262.67	13.7594
1262.83	11.7566
1263	13.818
1263.17	14.8068
1263.34	14.7585
1263.51	16.844
1263.68	16.866
1263.85	16.8606
1264.02	17.8734
1264.19	20.8775
1264.36	20.8551
1264.53	20.9107
1264.7	15.8183
1264.87	16.8476
1265.04	14.8268
1265.21	16.8455
1265.38	15.8267
1265.55	13.7892
1265.72	12.7634
1265.88	14.8088
1266.06	13.7952
1266.22	15.8465
1266.39	11.7601
1266.56	14.7797
1266.73	13.7731
1266.9	14.7827
1267.07	12.7631
1267.24	14.8188
1267.41	13.762
1267.58	13.7568
1267.75	12.7652
1267.92	16.8291
1268.09	12.75
1268.26	11.7286
1268.43	12.7473
1268.59	13.7657
1268.76	11.7212
1268.93	12.7404
1269.1	12.744
1269.27	13.7418
1269.44	12.7304
1269.61	13.741
1269.78	11.7119
1269.95	12.7372
1270.12	12.7233
1270.29	12.7197
1270.46	14.7583
1270.63	12.7306
1270.8	13.762
1270.96	12.7347
1271.13	11.7163
1271.3	13.755
1271.47	10.6862
1271.64	15.779
1271.81	10.6852
1271.98	11.6987
1272.15	12.7262
1272.32	14.7515
1272.49	13.7323
1272.66	14.7368
1272.82	14.728
1272.99	15.7713
1273.16	11.7236
1273.33	9.68495
1273.5	15.7735
1273.67	12.7155
1273.84	13.7484
1274.01	12.7218
1274.18	11.7039
1274.35	11.7126
1274.52	14.7884
1274.68	12.7439
1274.85	13.7304
1275.02	13.7258
1275.19	11.7106
1275.36	12.7351
1275.53	12.7534
1275.7	11.738
1275.87	11.7003
1276.04	15.7657
1276.21	12.7081
1276.37	12.7139
1276.54	14.7373
1276.71	13.7469
1276.88	13.7219
1277.05	14.7366
1277.22	14.7387
1277.39	11.6847
1277.56	14.7453
1277.73	13.746
1277.89	12.7235
1278.06	13.7268
1278.23	12.7006
1278.4	12.7101
1278.57	13.7344
1278.74	14.7379
1278.91	13.7347
1279.08	11.6808
1279.25	12.691
1279.41	12.6756
1279.58	14.7145
1279.75	12.6618
1279.92	15.7572
1280.09	13.755
1280.26	12.7076
1280.43	13.7126
1280.6	13.7018
1280.77	13.7035
1280.93	15.6907
1281.1	15.7137
1281.27	15.7337
1281.44	17.7771
1281.61	16.7371
1281.78	15.6948
1281.95	17.7132
1282.12	18.7657
1282.28	17.7654
1282.45	20.841
1282.62	21.84
1282.79	28.8762
1282.96	26.8123
1283.13	29.8413
1283.3	35.9556
1283.46	44.0969
1283.63	51.1983
1283.8	66.3357
1283.97	83.4896
1284.14	95.5677
1284.31	119.035
1284.48	127.376
1284.65	115.095
1284.81	96.8602
1284.98	70.5316
1285.15	56.2653
1285.32	41.0047
1285.49	32.8854
1285.66	28.8459
1285.82	21.7632
1285.99	21.7751
1286.16	22.791
1286.33	18.7188
1286.5	17.7045
1286.67	16.7114
1286.84	16.7279
1287	15.7151
1287.17	13.6782
1287.34	14.7038
1287.51	14.6903
1287.68	15.6612
1287.85	15.6631
1288.02	15.6718
1288.18	13.6427
1288.35	13.6532
1288.52	12.6468
1288.69	15.681
1288.86	13.6457
1289.03	14.6667
1289.19	14.6541
1289.36	16.6729
1289.53	13.6674
1289.7	9.62086
1289.87	12.6559
1290.04	14.6866
1290.2	13.6488
1290.37	14.6424
1290.54	10.6036
1290.71	13.6479
1290.88	13.6265
1291.05	13.6082
1291.22	12.5863
1291.38	12.6177
1291.55	14.6574
1291.72	12.6214
1291.89	13.6497
1292.06	13.6219
1292.22	15.6306
1292.39	10.5939
1292.56	12.6268
1292.73	13.6292
1292.9	12.6131
1293.07	11.621
1293.23	13.645
1293.4	13.6155
1293.57	12.5972
1293.74	13.6141
1293.91	14.6353
1294.08	13.6507
1294.24	10.6054
1294.41	13.6092
1294.58	12.5945
1294.75	12.592
1294.92	14.6197
1295.08	14.6246
1295.25	12.6141
1295.42	12.6102
1295.59	12.6038
1295.76	12.5955
1295.92	13.6144
1296.09	11.6042
1296.26	16.6369
1296.43	11.5994
1296.6	12.6003
1296.77	14.592
1296.93	10.57
1297.1	11.5772
1297.27	12.6004
1297.44	13.6037
1297.61	10.5718
1297.77	14.5638
1297.94	13.5537
1298.11	13.5748
1298.28	8.55375
1298.45	12.5864
1298.61	13.612
1298.78	12.6049
1298.95	12.6004
1299.12	13.5818
1299.29	13.5802
1299.45	16.6104
1299.62	14.5818
1299.79	10.5695
1299.96	12.6039
1300.13	13.6119
1300.29	13.5888
1300.46	10.5901
1300.63	14.6273
1300.8	14.594
1300.97	11.5845
1301.13	11.5967
1301.3	14.5926
1301.47	11.584
1301.64	11.5882
1301.81	14.5983
1301.97	13.5934
1302.14	11.6105
1302.31	11.626
1302.48	12.6023
1302.65	13.5968
1302.81	12.5455
1302.98	11.5652
1303.15	14.6402
1303.32	11.63
1303.48	11.6055
1303.65	15.6046
1303.82	13.585
1303.99	12.6065
1304.16	13.6284
1304.32	12.6115
1304.49	13.6061
1304.66	12.5951
1304.83	12.5766
1304.99	11.5613
1305.16	11.5829
1305.33	13.6184
1305.5	12.595
1305.66	10.5754
1305.83	11.5648
1306	12.5871
1306.17	14.6056
1306.34	10.5743
1306.5	12.573
1306.67	13.5939
1306.84	12.5906
1307.01	9.5605
1307.17	14.5958
1307.34	11.5831
1307.51	14.5931
1307.68	11.5723
1307.84	10.5788
1308.01	13.6368
1308.18	14.6527
1308.35	11.6012
1308.52	12.6044
1308.68	12.5862
1308.85	10.5544
1309.02	12.5763
1309.18	14.6017
1309.35	14.6043
1309.52	12.5968
1309.69	11.6036
1309.86	14.6266
1310.02	12.5869
1310.19	12.5878
1310.36	18.6268
1310.53	13.5988
1310.69	12.6071
1310.86	11.6029
1311.03	13.629
1311.2	14.6275
1311.36	11.5919
1311.53	12.5868
1311.7	11.5908
1311.87	12.6231
1312.03	12.6121
1312.2	13.6427
1312.37	12.6245
1312.54	11.5865
1312.7	11.5878
1312.87	13.6151
1313.04	12.6061
1313.2	12.5962
1313.37	13.6091
1313.54	11.6157
1313.71	15.597
1313.87	11.5821
1314.04	14.641
1314.21	10.5798
1314.38	10.5604
1314.54	12.5728
1314.71	13.6091
1314.88	11.6064
1315.05	12.5991
1315.21	13.6108
1315.38	13.6092
1315.55	14.6088
1315.71	12.6049
1315.88	12.6318
1316.05	11.6094
1316.22	12.642
1316.38	11.6043
1316.55	13.6308
1316.72	13.6347
1316.89	10.6153
1317.05	13.6825
1317.22	10.6411
1317.39	10.6338
1317.55	11.6369
1317.72	13.6676
1317.89	12.6562
1318.06	13.655
1318.22	10.6329
1318.39	10.5927
1318.56	13.6421
1318.72	11.6247
1318.89	12.6442
1319.06	13.6544
1319.23	10.63
1319.39	12.6513
1319.56	11.6024
1319.73	13.6411
1319.89	13.6382
1320.06	10.5998
1320.23	12.6333
1320.4	12.6485
1320.56	15.7093
1320.73	12.6722
1320.9	11.6595
1321.07	13.6649
1321.23	13.6657
1321.4	11.6308
1321.57	10.6217
1321.73	11.6491
1321.9	11.6647
1322.07	11.6274
1322.23	13.6496
1322.4	9.61294
1322.57	11.6346
1322.74	14.6796
1322.9	10.6322
1323.07	6.58334
1323.24	14.6759
1323.4	13.6583
1323.57	12.6452
1323.74	13.6667
1323.9	12.6807
1324.07	14.706
1324.24	14.6913
1324.4	12.6793
1324.57	12.6758
1324.74	12.6769
1324.91	15.7515
1325.07	11.6923
1325.24	10.6619
1325.41	11.6745
1325.57	13.7023
1325.74	13.7126
1325.91	12.6913
1326.07	13.6961
1326.24	12.7051
1326.41	12.7047
1326.57	13.7204
1326.74	12.7093
1326.91	11.6925
1327.07	13.7237
1327.24	11.7052
1327.41	11.7198
1327.57	12.7494
1327.74	13.7571
1327.91	12.7334
1328.08	11.7325
1328.24	10.7161
1328.41	13.7723
1328.58	12.739
1328.74	11.7094
1328.91	12.7258
1329.08	12.7064
1329.24	13.7528
1329.41	14.8201
1329.58	10.7255
1329.74	13.7994
1329.91	13.7969
1330.08	11.7297
1330.24	11.7357
1330.41	11.7505
1330.58	13.8038
1330.74	11.7503
1330.91	15.8135
1331.08	12.7498
1331.24	12.7368
1331.41	10.7001
1331.57	13.7624
1331.74	10.6958
1331.91	13.7804
1332.07	9.69792
1332.24	15.8155
1332.41	15.7912
1332.57	13.789
1332.74	11.7753
1332.91	13.812
1333.07	12.7737
1333.24	11.742
1333.41	13.7811
1333.57	14.8541
1333.74	12.799
1333.91	10.7519
1334.07	14.8356
1334.24	11.7718
1334.41	10.7296
1334.57	12.7757
1334.74	9.7183
1334.91	12.7857
1335.07	13.8192
1335.24	13.8152
1335.41	13.8332
1335.57	12.79
1335.74	13.8274
1335.9	13.8354
1336.07	12.8042
1336.24	12.8043
1336.4	12.7953
1336.57	11.7664
1336.74	10.7668
1336.9	12.8067
1337.07	13.8377
1337.24	14.8733
1337.4	12.8191
1337.57	13.8299
1337.73	13.8276
1337.9	13.8634
1338.07	10.7849
1338.23	11.775
1338.4	11.792
1338.57	13.8577
1338.73	12.8334
1338.9	12.8311
1339.07	13.8707
1339.23	12.8161
1339.4	12.802
1339.56	12.8389
1339.73	12.8419
1339.9	14.8981
1340.06	13.8974
1340.23	11.8153
1340.4	13.8733
1340.56	13.8481
1340.73	11.7954
1340.9	12.8065
1341.06	12.8294
1341.23	12.8467
1341.39	14.904
1341.56	11.7933
1341.73	13.8566
1341.89	10.7822
1342.06	12.8541
1342.22	11.8334
1342.39	12.866
1342.56	11.8264
1342.72	12.8462
1342.89	11.8307
1343.05	12.8576
1343.22	11.8336
1343.39	11.8397
1343.55	10.8087
1343.72	11.8324
1343.89	11.8333
1344.05	11.8396
1344.22	12.8778
1344.38	12.8786
1344.55	12.8759
1344.72	10.8232
1344.88	10.8261
1345.05	11.8501
1345.21	11.862
1345.38	13.9359
1345.55	13.9334
1345.71	10.8472
1345.88	12.9081
1346.04	13.9207
1346.21	9.78572
1346.38	12.8495
1346.54	12.8587
1346.71	11.8476
1346.87	10.8194
1347.04	21.1193
1347.21	12.8751
1347.37	10.8249
1347.54	11.8605
1347.7	9.79024
1347.87	11.8606
1348.04	12.9088
1348.2	12.918
1348.37	13.9403
1348.53	10.8476
1348.7	12.9036
1348.86	13.9191
1349.03	13.9369
1349.2	13.9579
1349.36	12.9108
1349.53	13.931
1349.69	13.9516
1349.86	12.9191
1350.03	12.903
1350.19	12.9075
1350.36	12.931
1350.52	13.9858
1350.69	13.9792
1350.85	11.8719
1351.02	18.0521
1351.19	9.8185
1351.35	16.0221
1351.52	15.0088
1351.68	11.9168
1351.85	13.978
1352.01	12.9294
1352.18	13.9651
1352.35	15.0194
1352.51	12.9524
1352.68	13.9957
1352.84	15.0281
1353.01	10.8653
1353.18	14.9885
1353.34	15.0048
1353.51	12.9643
1353.67	11.9489
1353.84	12.9817
1354	12.9694
1354.17	15.0183
1354.34	11.9116
1354.5	13.9914
1354.67	12.9553
1354.83	14.0076
1355	10.9062
1355.16	12.9541
1355.33	12.9229
1355.49	9.81892
1355.66	13.9993
1355.82	15.0646
1355.99	14.0266
1356.16	11.9392
1356.32	11.938
1356.49	9.85382
1356.65	13.9857
1356.82	13.9858
1356.98	11.9318
1357.15	14.0361
1357.32	14.0348
1357.48	16.075
1357.65	9.84643
1357.81	12.9714
1357.98	14.0048
1358.14	14.0041
1358.31	11.9422
1358.47	12.9696
1358.64	13.9965
1358.8	12.9745
1358.97	11.9401
1359.14	14.0048
1359.3	16.0915
1359.47	14.0225
1359.63	14.0258
1359.8	12.9937
1359.96	12.9649
1360.13	12.9486
1360.29	12.9421
1360.46	13.9852
1360.62	12.9675
1360.79	14.0414
1360.95	11.9466
1361.12	12.9503
1361.29	11.9137
1361.45	14.013
1361.62	12.9825
1361.78	10.8827
1361.95	10.8978
1362.11	9.8723
1362.28	13.0009
1362.44	15.0492
1362.61	11.9241
1362.77	10.8975
1362.94	14.0234
1363.1	14.022
1363.27	13.0112
1363.43	11.959
1363.6	10.8875
1363.77	15.0769
1363.93	14.0317
1364.1	12.979
1364.26	12.9992
1364.43	13.0206
1364.59	12.987
1364.76	14.0281
1364.92	13.0066
1365.09	12.9746
1365.25	15.034
1365.42	14.0306
1365.58	15.0966
1365.75	14.0847
1365.91	14.0145
1366.08	16.0788
1366.24	10.9166
1366.41	10.9375
1366.57	15.0913
1366.74	12.9862
1366.9	10.9286
1367.07	14.0109
1367.23	9.86504
1367.4	11.9656
1367.56	10.9279
1367.73	14.0668
1367.89	13.0336
1368.06	10.9357
1368.22	12.9821
1368.39	11.9579
1368.55	14.0524
1368.72	13.0077
1368.88	14.0632
1369.05	15.1211
1369.21	14.0852
1369.38	14.0548
1369.54	20.2626
1369.71	16.0977
1369.87	14.007
1370.04	16.1005
1370.2	16.147
1370.37	14.0335
1370.53	14.0395
1370.7	15.0927
1370.86	10.905
1371.03	14.0304
1371.19	14.0954
1371.36	14.0853
1371.52	15.0936
1371.69	12.9909
1371.85	12.9943
1372.02	15.0755
1372.18	14.0614
1372.35	14.0808
1372.51	15.0966
1372.68	11.9458
1372.84	13.0048
1373.01	12.9867
1373.17	14.0135
1373.34	12.9959
1373.5	15.082
1373.67	14.0404
1373.83	13.0042
1374	11.9527
1374.16	12.9796
1374.33	14.0391
1374.49	13.0118
1374.66	16.1282
1374.82	12.9989
1374.99	10.8969
1375.15	14.0085
1375.31	10.9045
1375.48	14.0257
1375.64	15.1107
1375.81	14.0811
1375.97	10.9495
1376.14	15.065
1376.3	12.9929
1376.47	15.0578
1376.63	15.0303
1376.8	19.2639
1376.96	11.9727
1377.13	11.9882
1377.29	14.0314
1377.46	15.1115
1377.62	14.0811
1377.79	16.1662
1377.95	11.9703
1378.11	15.0832
1378.28	13.0101
1378.44	12.9798
1378.61	12.9773
1378.77	14.0014
1378.94	11.9517
1379.1	17.1485
1379.27	11.9667
1379.43	14.0598
1379.6	13.0043
1379.76	9.87128
1379.92	14.0297
1380.09	14.0605
1380.25	14.0425
1380.42	11.9718
1380.58	11.9973
1380.75	14.0629
1380.91	14.0367
1381.08	10.9095
1381.24	13.0009
1381.41	14.0462
1381.57	12.9861
1381.73	15.0519
1381.9	14.0032
1382.06	15.0653
1382.23	16.1092
1382.39	12.9969
1382.56	17.1496
1382.72	13.0156
1382.89	15.0837
1383.05	14.026
1383.21	18.161
1383.38	10.9155
1383.54	14.0439
1383.71	17.1481
1383.87	12.9924
1384.04	14.0355
1384.2	17.1409
1384.37	17.1439
1384.53	15.0468
1384.69	18.1815
1384.86	15.082
1385.02	16.1238
1385.19	18.1768
1385.35	18.1704
1385.52	23.3656
1385.68	20.2538
1385.84	22.3808
1386.01	24.4819
1386.17	27.6141
1386.34	31.7634
1386.5	38.9552
1386.67	39.9441
1386.83	60.6803
1386.99	77.2411
1387.16	104.337
1387.32	158.575
1387.49	210.501
1387.65	264.422
1387.81	237.369
1387.98	181.142
1388.14	112.504
1388.31	66.9382
1388.47	46.2462
1388.64	39.0115
1388.8	31.7282
1388.96	24.4316
1389.13	22.3039
1389.29	20.2113
1389.46	18.1571
1389.62	16.0879
1389.78	16.101
1389.95	19.236
1390.11	15.0767
1390.28	15.0595
1390.44	15.058
1390.61	14.0274
1390.77	17.1445
1390.93	15.0732
1391.1	14.049
1391.26	14.0299
1391.43	15.0597
1391.59	14.0262
1391.75	16.0951
1391.92	11.9436
1392.08	16.1066
1392.25	15.0693
1392.41	15.0585
1392.57	15.0509
1392.74	12.982
1392.9	15.097
1393.07	15.1039
1393.23	13.0076
1393.39	14.027
1393.56	12.9848
1393.72	14.011
1393.89	13.9978
1394.05	11.9516
1394.21	11.9509
1394.38	15.0727
1394.54	11.9377
1394.71	15.0198
1394.87	13.9845
1395.03	13.995
1395.2	14.0136
1395.36	12.98
1395.52	14.0451
1395.69	14.0326
1395.85	15.0574
1396.02	8.8137
1396.18	11.9244
1396.34	11.9453
1396.51	10.9228
1396.67	11.9451
1396.84	12.9762
1397	15.0261
1397.16	12.9237
1397.33	12.9472
1397.49	12.959
1397.65	14.0166
1397.82	12.9789
1397.98	14.0088
1398.15	11.9156
1398.31	12.9389
1398.47	13.9698
1398.64	11.9367
1398.8	11.9466
1398.97	15.057
1399.13	14.0205
1399.29	14.0192
1399.46	13.9926
1399.62	17.1082
1399.78	12.96
1399.95	15.0248
1400.11	12.9864
1400.27	12.9667
1400.44	15.0337
1400.6	14.0121
1400.77	10.9099
1400.93	14.017
1401.09	14.0146
1401.26	11.9326
1401.42	14.0099
1401.58	12.9679
1401.75	14.0232
1401.91	12.9893
1402.07	11.9524
1402.24	11.9507
1402.4	15.0608
1402.56	14.0396
1402.73	12.9702
1402.89	15.0235
1403.06	12.9761
1403.22	12.9983
1403.38	14.0483
1403.55	12.9846
1403.71	11.9438
1403.87	11.9443
1404.04	10.894
1404.2	11.9386
1404.36	16.0829
1404.53	10.8964
1404.69	15.0564
1404.85	14.0081
1405.02	13.992
1405.18	14.0008
1405.34	12.9705
1405.51	11.9311
1405.67	14.0119
1405.84	11.9493
1406	14.0119
1406.16	15.0425
1406.33	14.019
1406.49	17.1601
1406.65	12.9845
1406.82	15.0508
1406.98	14.0186
1407.14	15.0446
1407.31	16.0789
1407.47	12.9534
1407.63	15.0576
1407.8	12.9898
1407.96	18.1705
1408.12	14.023
1408.29	19.213
1408.45	19.1967
1408.61	23.3517
1408.78	20.257
1408.94	24.4545
1409.1	25.5094
1409.27	23.3901
1409.43	21.302
1409.59	19.2455
1409.76	18.2312
1409.92	18.2294
1410.08	17.1501
1410.25	15.0484
1410.41	17.1402
1410.57	14.026
1410.74	16.1187
1410.9	13.0038
1411.06	12.9958
1411.22	15.0788
1411.39	14.0312
1411.55	20.2783
1411.71	13.0202
1411.88	14.0451
1412.04	14.0207
1412.2	11.9551
1412.37	14.0185
1412.53	14.0327
1412.69	12.9965
1412.86	14.0523
1413.02	11.9696
1413.18	14.0144
1413.35	10.91
1413.51	11.9606
1413.67	15.091
1413.83	10.9345
1414	15.1043
1414.16	13.0241
1414.32	11.9612
1414.49	15.0736
1414.65	14.0422
1414.81	13.0016
1414.98	14.0556
1415.14	7.81177
1415.3	15.0795
1415.47	11.9774
1415.63	15.1005
1415.79	11.9673
1415.96	14.0404
1416.12	11.9772
1416.28	14.0867
1416.44	11.9915
1416.61	14.0592
1416.77	15.1091
1416.93	15.0796
1417.1	14.0588
1417.26	11.9967
1417.42	16.1595
1417.58	15.1122
1417.75	11.9866
1417.91	10.9201
1418.07	13.0157
1418.24	14.094
1418.4	14.1122
1418.56	13.0536
1418.73	15.1401
1418.89	16.1443
1419.05	13.0265
1419.21	14.0793
1419.38	11.9978
1419.54	13.0445
1419.7	10.9522
1419.86	13.0452
1420.03	13.0368
1420.19	13.0392
1420.35	13.0291
1420.52	11.9802
1420.68	14.0776
1420.84	13.06
1421	14.1084
1421.17	13.0532
1421.33	14.0969
1421.49	10.9599
1421.66	13.0697
1421.82	15.1815
1421.98	14.1253
1422.14	14.122
1422.31	12.0377
1422.47	14.1173
1422.63	11.9979
1422.79	11.997
1422.96	13.0594
1423.12	14.1285
1423.28	13.0877
1423.45	12.0143
1423.61	14.0936
1423.77	16.1876
1423.93	13.0688
1424.1	13.0965
1424.26	14.1409
1424.42	12.0337
1424.58	10.9907
1424.75	12.026
1424.91	10.9585
1425.07	14.091
1425.24	14.1193
1425.4	15.1817
1425.56	10.9819
1425.72	14.1223
1425.89	13.0852
1426.05	14.1402
1426.21	12.0498
1426.37	12.0426
1426.53	12.042
1426.7	15.1857
1426.86	10.9993
1427.02	13.1007
1427.19	14.1546
1427.35	13.1161
1427.51	11.0201
1427.67	11.0148
1427.84	13.1159
1428	13.1093
1428.16	12.0473
1428.32	13.1022
1428.48	14.1665
1428.65	14.1619
1428.81	11.0249
1428.97	14.1553
1429.14	13.0685
1429.3	13.0788
1429.46	13.0978
1429.62	13.1117
1429.79	11.0385
1429.95	11.0433
1430.11	13.1229
1430.27	14.1508
1430.43	13.099
1430.6	14.1418
1430.76	12.0576
1430.92	12.0629
1431.08	9.97484
1431.25	15.2278
1431.41	8.92312
1431.57	13.1195
1431.73	12.0646
1431.9	14.1747
1432.06	12.0817
1432.22	12.0739
1432.38	13.1209
1432.54	11.0018
1432.71	12.0352
1432.87	13.0933
1433.03	13.114
1433.19	12.074
1433.36	11.0242
1433.52	13.1311
1433.68	14.1836
1433.84	12.0793
1434.01	15.209
1434.17	13.1143
1434.33	9.98005
1434.49	13.1363
1434.65	14.1799
1434.82	13.1253
1434.98	11.0164
1435.14	13.1239
1435.3	12.083
1435.46	14.1991
1435.63	10.0097
1435.79	12.1089
1435.95	13.1445
1436.11	13.14
1436.27	13.128
1436.44	12.0963
1436.6	11.0612
1436.76	13.1646
1436.92	12.1049
1437.09	12.0977
1437.25	10.0023
1437.41	14.2331
1437.57	12.1299
1437.73	15.2747
1437.9	14.2211
1438.06	10.0079
1438.22	11.0435
1438.38	9.99414
1438.54	14.1932
1438.71	13.1339
1438.87	11.0379
1439.03	11.0508
1439.19	12.1107
1439.35	12.109
1439.52	13.1648
1439.68	13.1607
1439.84	16.3163
1440	12.0945
1440.16	9.99194
1440.33	14.2137
1440.49	13.1866
1440.65	10.0216
1440.81	13.1542
1440.97	12.0915
1441.14	12.1001
1441.3	11.053
1441.46	10.0078
1441.62	15.2977
1441.78	11.0751
1441.95	14.2184
1442.11	13.1465
1442.27	12.0853
1442.43	9.99179
1442.59	14.2305
1442.76	12.142
1442.92	12.1102
1443.08	11.0418
1443.24	13.1538
1443.4	13.1395
1443.56	14.2098
1443.73	14.2485
1443.89	13.1961
1444.05	13.1909
1444.21	13.1973
1444.37	14.2345
1444.53	12.114
1444.7	11.077
1444.86	14.2592
1445.02	11.0956
1445.18	13.2069
1445.34	11.085
1445.5	11.0668
1445.67	12.1168
1445.83	11.0711
1445.99	12.1335
1446.15	14.2565
1446.31	12.1334
1446.47	11.0638
1446.64	14.2274
1446.8	14.2334
1446.96	13.1805
1447.12	11.0803
1447.28	13.2118
1447.45	13.2009
1447.61	14.2462
1447.77	11.0841
1447.93	14.2366
1448.09	12.1406
1448.25	15.3317
1448.42	13.2178
1448.58	12.1469
1448.74	11.0839
1448.9	11.0865
1449.06	12.1401
1449.22	13.2042
1449.38	12.1597
1449.55	14.2702
1449.71	12.1547
1449.87	12.1582
1450.03	12.1683
1450.19	14.2799
1450.35	14.256
1450.52	11.0867
1450.68	13.2227
1450.84	12.1835
1451	12.1751
1451.16	14.2829
1451.32	14.288
1451.48	12.1865
1451.65	13.2446
1451.81	11.1336
1451.97	11.1673
1452.13	14.1979
1452.29	12.0661
1452.45	13.19
1452.61	13.2451
1452.78	12.2323
1452.94	10.2301
1453.1	13.1046
1453.26	11.2481
1453.42	13.0636
1453.58	13.0481
1453.74	12.2939
1453.91	12.2582
1454.07	13.1287
1454.23	13.7426
1454.39	12.976
1454.55	12.408
1454.71	11.6241
1454.87	12.4857
1455.03	11.9905
1455.2	14.4979
1455.36	12.4596
1455.52	10.9557
1455.68	13.0019
1455.84	12.4143
1456	12.7195
1456.16	12.6756
1456.32	10.3848
1456.49	11.1697
1456.65	12.5544
1456.81	12.8677
1456.97	12.0746
1457.13	12.4718
1457.29	10.0865
1457.45	13.2113
1457.61	12.1917
1457.78	14.4475
1457.94	12.2297
1458.1	13.0279
1458.26	12.0939
1458.42	12.2053
1458.58	11.3061
1458.74	11.6141
1458.9	11.2333
1459.07	11.4701
1459.23	13.1399
1459.39	11.3364
1459.55	12.5587
1459.71	13.07
1459.87	12.4936
1460.03	12.2051
1460.19	11.7535
1460.35	10.9059
1460.52	10.4993
1460.68	13.0066
1460.84	13.2074
1461	13.5336
1461.16	12.8131
1461.32	10.7378
1461.48	11.9599
1461.64	11.7348
1461.8	9.9886
1461.96	11.5373
1462.13	12.5611
1462.29	12.6433
1462.45	13.0643
1462.61	12.409
1462.77	12.9644
1462.93	12.728
1463.09	11.0602
1463.25	10.4571
1463.41	12.3117
1463.58	12.9579
1463.74	13.02
1463.9	12.7626
1464.06	11.1774
1464.22	12.0926
1464.38	11.7037
1464.54	12.2068
1464.7	12.315
1464.86	12.2383
1465.02	9.98534
1465.18	13.2435
1465.34	12.999
1465.51	12.292
1465.67	12.4422
1465.83	12.8198
1465.99	11.1941
1466.15	11.1748
1466.31	11.1593
1466.47	11.2936
1466.62	13.2448
1466.78	12.1695
1466.95	12.2055
1467.11	11.1447
1467.28	12.1786
1467.44	12.1439
1467.6	12.1771
1467.76	12.1703
1467.93	13.2329
1468.09	11.1452
1468.25	10.1013
1468.42	14.3043
1468.58	13.2432
1468.75	13.2381
1468.91	12.2061
1469.07	14.3429
1469.24	13.2665
1469.4	12.2117
1469.56	13.259
1469.73	11.118
1469.89	12.1891
1470.05	13.2399
1470.21	13.2379
1470.38	12.1843
1470.54	11.139
1470.71	12.1935
1470.87	12.1801
1471.03	10.063
1471.2	11.1307
1471.36	13.2448
1471.52	11.1313
1471.68	13.2469
1471.85	10.0675
1472.01	12.1707
1472.17	11.1099
1472.34	11.0984
1472.5	14.2876
1472.66	13.2503
1472.83	13.2492
1472.99	12.1786
1473.15	13.2382
1473.32	11.1228
1473.48	14.298
1473.64	10.0725
1473.81	12.1901
1473.97	11.1214
1474.13	12.1947
1474.3	14.3444
1474.46	13.2619
1474.62	10.0675
1474.79	13.2476
1474.95	11.1391
1475.11	12.2219
1475.28	12.2115
1475.44	11.1372
1475.6	12.1846
1475.76	11.1165
1475.93	11.1248
1476.09	10.0688
1476.25	11.1487
1476.42	12.2184
1476.58	12.2074
1476.74	13.2479
1476.91	10.0706
1477.07	10.0733
1477.23	10.0929
1477.39	12.2085
1477.56	13.2326
1477.72	11.1258
1477.88	13.2492
1478.05	13.2425
1478.21	12.1899
1478.37	10.0633
1478.53	10.0627
1478.7	19.6088
1478.86	14.3192
1479.02	12.2037
1479.19	14.3066
1479.35	11.1206
1479.51	11.1323
1479.68	12.2073
1479.84	11.1599
1480	13.2358
1480.16	11.1198
1480.33	12.1884
1480.49	9.00195
1480.65	13.2737
1480.82	13.2689
1480.98	12.1973
1481.14	13.2658
1481.3	11.1417
1481.47	11.1268
1481.63	13.2422
1481.79	12.1915
1481.96	12.1942
1482.12	11.1596
1482.28	11.1489
1482.44	14.3199
1482.61	13.1903
1482.77	11.0917
1482.93	12.178
1483.1	11.144
1483.26	13.2561
1483.42	13.2407
1483.58	11.1309
1483.75	14.3059
1483.91	12.2037
1484.07	12.2061
1484.23	13.2776
1484.4	12.1977
1484.56	13.2659
1484.72	11.1393
1484.89	12.2032
1485.05	12.1889
1485.21	12.2011
1485.37	10.0628
1485.54	11.1161
1485.7	11.1331
1485.86	11.1419
1486.02	12.1948
1486.19	11.1252
1486.35	11.1236
1486.51	14.3069
1486.67	13.272
1486.84	14.3055
1487	10.0398
1487.16	12.1587
1487.33	10.0453
1487.49	13.2397
1487.65	13.25
1487.81	12.193
1487.98	12.1885
1488.14	10.0616
1488.3	9.00271
1488.46	12.1745
1488.63	13.2391
1488.79	12.2002
1488.95	11.1548
1489.11	11.1362
1489.27	12.1832
1489.44	12.1634
1489.6	13.2391
1489.76	15.3675
1489.93	11.1406
1490.09	13.2776
1490.25	12.2249
1490.41	14.335
1490.58	14.3296
1490.74	10.0923
1490.9	11.1721
1491.06	12.2148
1491.23	12.2064
1491.39	12.2136
1491.55	12.2194
1491.71	13.2929
1491.87	11.1634
1492.04	13.2785
1492.2	10.1082
1492.36	11.1778
1492.52	13.2929
1492.69	12.2155
1492.85	14.3074
1493.01	10.089
1493.17	11.1508
1493.34	13.2839
1493.5	11.167
1493.66	13.2938
1493.82	13.2798
1493.99	12.1907
1494.15	10.0891
1494.31	13.2836
1494.47	11.1423
1494.63	10.0993
1494.8	11.1503
1494.96	10.0873
1495.12	11.1495
1495.28	13.2635
1495.45	11.1308
1495.61	13.275
1495.77	13.2998
1495.93	12.2329
1496.09	9.04169
1496.26	11.1651
1496.42	12.2498
1496.58	11.1625
1496.74	14.3598
1496.91	13.3008
1497.07	9.03081
1497.23	10.1023
1497.39	12.2398
1497.56	13.2885
1497.72	13.2705
1497.88	14.3386
1498.04	13.2836
1498.2	13.2832
1498.37	12.2224
1498.53	12.222
1498.69	12.2238
1498.85	13.2934
1499.01	11.1777
1499.18	13.296
1499.34	6.92142
1499.5	12.2557
1499.66	11.1834
1499.82	11.1697
1499.99	9.04038
1500.15	14.3573
1500.31	11.1765
1500.47	12.2405
1500.63	10.112
1500.8	12.2397
1500.96	13.2858
1501.12	15.4179
1501.28	12.2501
1501.44	11.1795
1501.61	10.1043
1501.77	15.4392
1501.93	10.1178
1502.09	12.24
1502.25	13.3193
1502.42	13.3168
1502.58	13.2981
1502.74	11.1765
1502.9	11.1968
1503.06	13.3097
1503.23	14.3728
1503.39	11.1815
1503.55	11.1827
1503.71	10.1387
1503.87	12.2589
1504.04	12.27
1504.2	12.276
1504.36	12.2521
1504.52	13.3149
1504.68	12.2777
1504.84	12.2931
1505.01	13.344
1505.17	12.2708
1505.33	12.2703
1505.49	11.2071
1505.65	12.2562
1505.82	12.2743
1505.98	11.2349
1506.14	13.3788
1506.3	18.7221
1506.46	13.3876
1506.63	10.1589
1506.79	14.4139
1506.95	11.2178
1507.11	11.1828
1507.27	14.3829
1507.43	13.3761
1507.6	12.2888
1507.76	11.2023
1507.92	10.1245
1508.08	11.2038
1508.24	12.2534
1508.4	13.3208
1508.57	12.2948
1508.73	11.2153
1508.89	13.3721
1509.05	11.2228
1509.21	11.1852
1509.37	10.1387
1509.54	11.2324
1509.7	12.3039
1509.86	13.3503
1510.02	12.2922
1510.18	12.2602
1510.34	11.1942
1510.51	13.3338
1510.67	12.2776
1510.83	14.4466
1510.99	10.1355
1511.15	14.4151
1511.31	12.2751
1511.48	14.3991
1511.64	12.2875
1511.8	14.4625
1511.96	12.2921
1512.12	13.3513
1512.28	11.2319
1512.44	13.375
1512.61	11.2231
1512.77	11.2271
1512.93	13.392
1513.09	11.2344
1513.25	12.2991
1513.41	13.3761
1513.58	13.3577
1513.74	12.2875
1513.9	11.2302
1514.06	13.4114
1514.22	11.2559
1514.38	11.2371
1514.54	12.3135
1514.7	11.2457
1514.87	11.2457
1515.03	11.2472
1515.19	11.2544
1515.35	12.3353
1515.51	13.4178
1515.67	12.3304
1515.83	10.1702
1516	11.2432
1516.16	16.608
1516.32	13.4176
1516.48	10.1887
1516.64	11.2476
1516.8	11.2271
1516.96	12.3076
1517.13	12.3048
1517.29	11.2563
1517.45	11.2774
1517.61	14.5035
1517.77	9.11664
1517.93	11.2465
1518.09	12.3256
1518.26	13.4028
1518.42	12.3294
1518.58	11.298
1518.74	12.3704
1518.9	12.3313
1519.06	10.1741
1519.22	12.3315
1519.38	12.3307
1519.55	13.4051
1519.71	10.1945
1519.87	12.3516
1520.03	12.35
1520.19	12.3531
1520.35	11.2493
1520.51	13.4575
1520.67	10.2242
1520.84	12.3844
1521	11.2868
1521.16	11.3197
1521.32	11.2909
1521.48	10.2318
1521.64	13.3936
1521.8	12.3089
1521.96	13.4324
1522.12	13.4507
1522.29	11.2739
1522.45	11.2931
1522.61	12.3579
1522.77	12.3636
1522.93	10.2089
1523.09	14.5221
1523.25	14.5118
1523.41	12.3753
1523.57	12.3798
1523.74	12.3701
1523.9	12.3847
1524.06	12.387
1524.22	11.3034
1524.38	12.3862
1524.54	11.3074
1524.7	11.3117
1524.86	12.3943
1525.02	14.5354
1525.18	12.3931
1525.35	12.4014
1525.51	12.3894
1525.67	9.16055
1525.83	14.5612
1525.99	10.2348
1526.15	10.226
1526.31	12.3894
1526.47	11.3242
1526.63	13.4703
1526.79	12.365
1526.95	10.2295
1527.12	12.4075
1527.28	13.4729
1527.44	13.4616
1527.6	13.458
1527.76	12.3964
1527.92	13.4886
1528.08	13.4966
1528.24	12.4167
1528.4	11.3386
1528.56	11.3423
1528.72	14.5947
1528.89	12.4442
1529.05	12.4355
1529.21	14.6133
1529.37	11.3723
1529.53	13.5201
1529.69	11.3532
1529.85	11.3574
1530.01	9.17605
1530.17	13.4699
1530.33	12.4071
1530.49	10.2649
1530.65	12.4133
1530.81	11.3273
1530.98	12.4092
1531.14	13.5308
1531.3	12.4347
1531.46	10.2665
1531.62	11.341
1531.78	11.3398
1531.94	12.4165
1532.1	12.4142
1532.26	12.4144
1532.42	14.5753
1532.58	11.3628
1532.74	12.4635
1532.9	11.3576
1533.07	13.5363
1533.23	12.4319
1533.39	11.38
1533.55	12.4557
1533.71	12.4568
1533.87	11.3808
1534.03	13.5705
1534.19	14.631
1534.35	11.3798
1534.51	13.5239
1534.67	10.315
1534.83	13.5613
1534.99	12.4759
1535.15	12.482
1535.31	12.4576
1535.47	10.2926
1535.63	12.4492
1535.8	12.4619
1535.96	13.5688
1536.12	12.4837
1536.28	13.5603
1536.44	9.20617
1536.6	13.5131
1536.76	11.3572
1536.92	12.46
1537.08	13.5553
1537.24	12.487
1537.4	12.48
1537.56	13.575
1537.72	10.2979
1537.88	12.4603
1538.04	13.5694
1538.2	11.4108
1538.36	9.23873
1538.52	14.6826
1538.68	12.5086
1538.84	11.4043
1539	12.494
1539.17	12.5013
1539.33	14.6756
1539.49	10.3211
1539.65	12.4822
1539.81	14.6519
1539.97	10.3161
1540.13	11.4173
1540.29	12.5006
1540.45	10.334
1540.61	12.5029
1540.77	11.4183
1540.93	10.3477
1541.09	12.4977
1541.25	10.3215
1541.41	11.4152
1541.57	14.6828
1541.73	11.4377
1541.89	12.5229
1542.05	10.3401
1542.21	12.5087
1542.37	11.4021
1542.53	10.3304
1542.69	12.5242
1542.85	10.3617
1543.01	13.6521
1543.17	13.6427
1543.33	11.443
1543.49	12.5229
1543.65	13.625
1543.81	13.6374
1543.97	11.4509
1544.13	12.5431
1544.3	10.3484
1544.46	12.5183
1544.62	12.5015
1544.78	13.5979
1544.94	13.6203
1545.1	11.4426
1545.26	13.6205
1545.42	11.45
1545.58	10.35
1545.74	12.5213
1545.9	11.4204
1546.06	12.5221
1546.22	11.4646
1546.38	12.5554
1546.54	10.36
1546.7	12.5302
1546.86	13.6052
1547.02	11.4291
1547.18	13.588
1547.34	14.7083
1547.5	12.5527
1547.66	13.6634
1547.82	12.5454
1547.98	12.5375
1548.14	12.5407
1548.3	12.5258
1548.46	12.5451
1548.62	11.471
1548.78	13.6641
1548.94	12.5732
1549.1	10.3825
1549.26	12.5746
1549.42	13.6415
1549.58	11.4679
1549.74	13.6184
1549.9	11.4538
1550.06	14.7259
1550.22	11.4555
1550.38	12.5541
1550.54	11.4733
1550.7	13.6577
1550.86	12.5727
1551.02	12.5819
1551.18	13.6633
1551.34	11.4543
1551.5	11.4465
1551.66	12.5522
1551.82	12.5589
1551.98	11.463
1552.14	13.6595
1552.3	12.5593
1552.46	10.3872
1552.62	12.5589
1552.78	10.3513
1552.94	12.5276
1553.09	12.5298
1553.25	12.5404
1553.41	11.4713
1553.57	11.4904
1553.73	11.4955
1553.89	12.5734
1554.05	12.5747
1554.21	13.6738
1554.37	9.30074
1554.53	13.6956
1554.69	12.5986
1554.85	13.7106
1555.01	11.502
1555.17	10.3836
1555.33	11.4723
1555.49	12.575
1555.65	12.5864
1555.81	11.5049
1555.97	12.5906
1556.13	15.864
1556.29	11.4663
1556.45	12.5557
1556.61	13.6659
1556.77	12.5906
1556.93	12.6113
1557.09	11.5124
1557.25	12.6078
1557.41	11.4839
1557.57	11.467
1557.73	10.3853
1557.89	11.4799
1558.05	10.3966
1558.21	11.4969
1558.37	12.5818
1558.53	11.4859
1558.69	10.4016
1558.84	13.6741
1559	13.6864
1559.16	12.5926
1559.32	13.7097
1559.48	11.5348
1559.64	12.6057
1559.8	11.4811
1559.96	13.6745
1560.12	12.5927
1560.28	11.4872
1560.44	11.502
1560.6	13.6946
1560.76	11.487
1560.92	13.6644
1561.08	12.5554
1561.24	11.4947
1561.4	13.6771
1561.56	12.5893
1561.72	13.6793
1561.88	11.4645
1562.03	11.4655
1562.19	14.7049
1562.35	13.6709
1562.51	12.5968
1562.67	11.4915
1562.83	11.4917
1562.99	11.4885
1563.15	12.578
1563.31	12.5785
1563.47	11.5032
1563.63	10.3889
1563.79	12.6052
1563.95	14.8201
1564.11	12.5994
1564.27	10.3853
1564.43	13.6625
1564.59	13.6781
1564.74	10.392
1564.9	13.6867
1565.06	12.5974
1565.22	10.4305
1565.38	13.6959
1565.54	11.4924
1565.7	12.5706
1565.86	12.5842
1566.02	10.4064
1566.18	11.5062
1566.34	18.0805
1566.5	14.7896
1566.66	8.20392
1566.81	14.7431
1566.97	13.657
1567.13	12.5921
1567.29	11.4941
1567.45	12.5844
1567.61	11.4817
1567.77	10.397
1567.93	10.4097
1568.09	12.5737
1568.25	11.4834
1568.41	13.6864
1568.57	10.3958
1568.73	12.5796
1568.88	14.7745
1569.04	12.5845
1569.2	12.5805
1569.36	11.5039
1569.52	12.5997
1569.68	12.5895
1569.84	12.5896
1570	12.5774
1570.16	10.3856
1570.32	11.4634
1570.48	11.4589
1570.63	14.7446
1570.79	12.5753
1570.95	12.5755
1571.11	14.7624
1571.27	13.6793
1571.43	11.4585
1571.59	8.19237
1571.75	13.6971
1571.91	12.5915
1572.07	11.4813
1572.22	13.6964
1572.38	13.6933
1572.54	13.6703
1572.7	13.6735
1572.86	11.5002
1573.02	13.7033
1573.18	13.6856
1573.34	12.5831
1573.5	11.495
1573.66	12.5818
1573.82	10.3963
1573.97	11.4796
1574.13	12.5812
1574.29	12.6147
1574.45	11.5275
1574.61	11.505
1574.77	12.5808
1574.93	13.6599
1575.09	12.5625
1575.24	12.5992
1575.4	13.6967
1575.56	11.5006
1575.72	12.5909
1575.88	12.583
1576.04	13.6554
1576.2	10.3887
1576.36	12.5691
1576.52	12.5651
1576.67	10.3871
1576.83	12.596
1576.99	12.5808
1577.15	11.481
1577.31	11.4956
1577.47	12.5925
1577.63	13.6826
1577.79	11.4883
1577.95	12.5684
1578.1	13.6683
1578.26	12.5767
1578.42	11.4625
1578.58	12.5656
1578.74	12.5963
1578.9	12.6055
1579.06	12.6057
1579.22	13.7149
1579.37	15.9075
1579.53	11.4865
1579.69	10.3862
1579.85	11.4941
1580.01	11.5151
1580.17	12.6105
1580.33	13.7067
1580.48	12.597
1580.64	12.5708
1580.8	12.5697
1580.96	14.7554
1581.12	13.6637
1581.28	11.5047
1581.44	11.5069
1581.6	9.29654
1581.75	12.5774
1581.91	12.57
1582.07	13.6705
1582.23	13.6844
1582.39	13.7032
1582.55	12.5912
1582.71	10.4035
1582.86	11.5062
1583.02	12.5815
1583.18	10.4091
1583.34	12.6123
1583.5	12.5827
1583.66	14.7697
1583.81	13.6975
1583.97	11.4867
1584.13	14.7869
1584.29	13.6868
1584.45	13.7008
1584.61	12.6031
1584.77	14.8055
1584.92	12.5891
1585.08	12.5753
1585.24	11.4832
1585.4	13.6815
1585.56	12.5909
1585.72	11.4883
1585.88	12.5923
1586.03	10.4093
1586.19	12.5768
1586.35	10.3982
1586.51	11.4922
1586.67	11.5001
1586.83	12.5912
1586.98	10.4058
1587.14	12.5806
1587.3	14.8073
1587.46	11.5052
1587.62	13.6873
1587.78	13.6836
1587.93	12.6135
1588.09	10.4177
1588.25	14.7787
1588.41	9.31594
1588.57	11.4971
1588.73	11.4891
1588.88	13.6985
1589.04	12.6318
1589.2	11.5246
1589.36	9.30052
1589.52	13.724
1589.68	12.5994
1589.83	11.5172
1589.99	9.31481
1590.15	11.5196
1590.31	13.7146
1590.47	12.5938
1590.63	12.5671
1590.78	11.5085
1590.94	13.6836
1591.1	12.5981
1591.26	10.4077
1591.42	11.4892
1591.57	21.3897
1591.73	12.6046
1591.89	12.6015
1592.05	12.6058
1592.21	10.403
1592.36	12.5911
1592.52	13.6803
1592.68	12.5802
1592.84	13.6933
1593	13.7082
1593.16	10.4007
1593.31	13.6933
1593.47	12.6113
1593.63	14.7696
1593.79	12.5775
1593.95	13.6802
1594.1	12.594
1594.26	13.6909
1594.42	14.7871
1594.58	11.5154
1594.74	11.5163
1594.89	13.6962
1595.05	10.3909
1595.21	12.6006
1595.37	15.9052
1595.53	12.6029
1595.68	12.5819
1595.84	12.5821
1596	11.4794
1596.16	9.29651
1596.32	11.5027
1596.48	11.5084
1596.63	11.509
1596.79	14.7877
1596.95	11.4978
1597.11	13.6867
1597.26	14.7737
1597.42	12.6074
1597.58	13.701
1597.74	12.5883
1597.9	12.5915
1598.05	11.4992
1598.21	14.7725
1598.37	12.5918
1598.53	13.7178
1598.69	11.5348
1598.84	10.4246
1599	10.4197
1599.16	12.6063
1599.32	14.7856
1599.48	12.6132
1599.63	12.6177
1599.79	10.4181
1599.95	10.4293
1600.11	13.7072
1600.26	14.7719
1600.42	12.6042
1600.58	11.5283
1600.74	11.5195
1600.9	12.604
1601.05	12.6031
1601.21	11.4966
1601.37	12.6027
1601.53	13.7073
1601.68	12.6011
1601.84	11.5245
1602	13.7273
1602.16	10.4353
1602.32	13.7164
1602.47	13.7063
1602.63	12.5979
1602.79	12.5938
1602.95	12.6206
1603.1	13.7317
1603.26	11.5399
1603.42	11.5333
1603.58	14.8149
1603.73	11.5162
1603.89	12.6028
1604.05	12.6063
1604.21	11.5303
1604.36	11.5497
1604.52	14.8123
1604.68	11.5156
1604.84	11.5208
1605	13.7034
1605.15	10.4162
1605.31	11.5126
1605.47	10.4251
1605.63	12.6196
1605.78	9.32465
1605.94	11.5294
1606.1	12.6367
1606.26	12.632
1606.41	13.7253
1606.57	11.5112
1606.73	11.505
1606.89	11.5084
1607.04	13.7122
1607.2	12.6076
1607.36	10.4094
1607.52	11.5061
1607.67	13.7212
1607.83	10.4444
1607.99	12.6352
1608.15	12.6265
1608.3	10.4227
1608.46	12.6104
1608.62	11.5232
1608.78	12.6163
1608.93	13.7149
1609.09	12.6355
1609.25	9.35464
1609.41	10.4534
1609.56	10.4461
1609.72	11.5726
1609.88	12.6615
1610.04	11.5687
1610.19	11.5547
1610.35	10.4341
1610.51	10.4427
1610.67	13.7503
1610.82	10.4524
1610.98	13.7516
1611.14	9.35908
1611.3	12.6447
1611.45	12.6535
1611.61	13.7377
1611.77	12.638
1611.92	10.4504
1612.08	13.766
1612.24	12.6894
1612.4	9.36246
1612.55	15.9661
1612.71	12.6693
1612.87	11.5956
1613.02	11.5776
1613.18	12.6752
1613.34	13.7876
1613.5	12.6548
1613.65	14.8604
1613.81	13.7542
1613.97	10.4588
1614.13	11.5759
1614.28	14.8873
1614.44	12.6793
1614.6	12.6888
1614.76	9.36087
1614.91	12.6784
1615.07	12.6894
1615.23	12.7017
1615.38	14.9194
1615.54	10.5018
1615.7	11.6019
1615.85	11.5802
1616.01	12.6841
1616.17	12.6802
1616.33	11.6127
1616.48	12.6913
1616.64	12.7138
1616.8	11.6263
1616.96	12.7289
1617.11	12.6993
1617.27	12.7062
1617.43	12.6947
1617.58	13.806
1617.74	12.7005
1617.9	11.5987
1618.05	16.0336
1618.21	9.4037
1618.37	12.6973
1618.53	13.8199
1618.68	12.7074
1618.84	11.596
1619	11.6018
1619.15	12.7264
1619.31	10.5125
1619.47	13.8478
1619.63	10.5273
1619.78	13.8312
1619.94	17.1559
1620.1	12.7194
1620.25	13.8264
1620.41	14.9655
1620.57	10.5145
1620.72	13.8396
1620.88	14.9689
1621.04	11.6473
1621.19	10.5172
1621.35	12.7543
1621.51	12.7415
1621.67	11.621
1621.82	14.9715
1621.98	12.754
1622.14	14.9644
1622.29	10.5243
1622.45	11.6519
1622.61	14.9798
1622.76	13.8967
1622.92	13.8873
1623.08	11.6593
1623.23	13.8515
1623.39	13.8452
1623.55	10.5268
1623.7	10.5275
1623.86	11.6466
1624.02	15.0091
1624.17	10.5542
1624.33	15.0069
1624.49	13.8719
1624.65	12.7499
1624.8	14.9664
1624.96	9.43027
1625.12	14.9884
1625.27	12.7451
1625.43	11.6677
1625.59	11.6667
1625.74	13.8866
1625.9	12.786
1626.06	12.8057
1626.21	12.7997
1626.37	12.7979
1626.53	10.5581
1626.68	13.8645
1626.84	11.6287
1627	10.5287
1627.15	12.7719
1627.31	15.0403
1627.47	9.48322
1627.62	13.9164
1627.78	13.9119
1627.94	15.0149
1628.09	13.8833
1628.25	15.0135
1628.41	11.6893
1628.56	16.1665
1628.72	11.7082
1628.88	10.5924
1629.03	12.8016
1629.19	13.9027
1629.35	9.46928
1629.5	13.9668
1629.66	12.8426
1629.82	12.8156
1629.97	11.6912
1630.13	10.5684
1630.29	12.7993
1630.44	11.6948
1630.6	12.8328
1630.75	8.3841
1630.91	12.8457
1631.07	10.597
1631.22	11.6972
1631.38	9.46889
1631.54	13.9442
1631.69	17.3175
1631.85	13.9785
1632.01	12.8769
1632.16	11.7512
1632.32	12.8524
1632.48	12.8335
1632.63	12.8343
1632.79	12.8518
1632.95	11.7249
1633.1	13.9564
1633.26	12.8522
1633.41	11.744
1633.57	11.7365
1633.73	10.6189
1633.88	11.7557
1634.04	12.8857
1634.2	11.7709
1634.35	11.7723
1634.51	14.005
1634.67	13.9877
1634.82	12.8714
1634.98	14.0126
1635.13	12.9013
1635.29	10.6578
1635.45	11.7702
1635.6	12.8882
1635.76	11.7645
1635.92	14.0102
1636.07	10.6595
1636.23	12.901
1636.38	9.53865
1636.54	11.8073
1636.7	14.0479
1636.85	11.7844
1637.01	10.6427
1637.17	15.1181
1637.32	11.7804
1637.48	11.793
1637.64	14.0511
1637.79	14.0728
1637.95	11.8068
1638.1	12.8846
1638.26	10.6317
1638.42	12.9001
1638.57	9.57012
1638.73	11.8028
1638.88	11.791
1639.04	14.0275
1639.2	14.026
1639.35	10.6647
1639.51	12.9196
1639.67	11.8141
1639.82	10.6856
1639.98	14.0307
1640.13	10.6634
1640.29	9.5483
1640.45	11.7974
1640.6	10.6637
1640.76	12.9102
1640.91	11.7857
1641.07	12.9251
1641.23	10.6811
1641.38	10.6725
1641.54	12.9412
1641.69	16.3129
1641.85	11.8177
1642.01	12.9483
1642.16	12.9663
1642.32	11.8354
1642.47	11.8236
1642.63	12.962
1642.79	12.9203
1642.94	12.9341
1643.1	10.6815
1643.25	12.9614
1643.41	10.7059
1643.57	12.9415
1643.72	9.56032
1643.88	12.9173
1644.03	11.8087
1644.19	12.9317
1644.35	12.9454
1644.5	14.0745
1644.66	14.0699
1644.81	14.0754
1644.97	12.9436
1645.13	12.9402
1645.28	12.9549
1645.44	12.9598
1645.59	12.9812
1645.75	12.9738
1645.9	12.9785
1646.06	12.9769
1646.22	12.9668
1646.37	11.8433
1646.53	12.9631
1646.68	10.7095
1646.84	9.58783
1647	12.9817
1647.15	15.2212
1647.31	12.961
1647.46	11.8359
1647.62	15.2096
1647.77	14.0869
1647.93	14.108
1648.09	12.9761
1648.24	14.0959
1648.4	11.8384
1648.55	14.1043
1648.71	15.2027
1648.87	14.0701
1649.02	11.8362
1649.18	12.9732
1649.33	9.58408
1649.49	12.9893
1649.64	12.9845
1649.8	10.7099
1649.96	11.8447
1650.11	9.58636
1650.27	14.0995
1650.42	12.9935
1650.58	11.8807
1650.73	13.0027
1650.89	12.9884
1651.04	11.8374
1651.2	11.8223
1651.36	12.9842
1651.51	15.2432
1651.67	11.8804
1651.82	14.1495
1651.98	11.8716
1652.13	10.705
1652.29	11.816
1652.45	12.9573
1652.6	12.9668
1652.76	11.862
1652.91	9.60833
1653.07	18.6231
1653.22	10.7172
1653.38	11.865
1653.53	14.1104
1653.69	14.0997
1653.85	14.1238
1654	14.1443
1654.16	13.0077
1654.31	12.9873
1654.47	10.7218
1654.62	9.59842
1654.78	14.138
1654.93	11.8717
1655.09	13.0106
1655.24	14.1536
1655.4	13.0011
1655.56	9.60173
1655.71	11.8502
1655.87	14.1045
1656.02	11.8553
1656.18	12.974
1656.33	10.7145
1656.49	12.9778
1656.64	11.8427
1656.8	11.8424
1656.96	14.0982
1657.11	11.8444
1657.27	15.2355
1657.42	13.004
1657.58	13.0116
1657.73	13.0013
1657.89	11.8787
1658.04	15.2772
1658.2	9.61617
1658.35	13.0206
1658.51	13.0329
1658.66	14.1376
1658.82	14.136
1658.97	10.7386
1659.13	11.8508
1659.29	10.7448
1659.44	13.0355
1659.6	11.9004
1659.75	14.1581
1659.91	13.0253
1660.06	14.1393
1660.22	11.849
1660.37	12.9824
1660.53	12.9986
1660.68	15.2923
1660.84	14.1558
1660.99	13.0233
1661.15	11.9076
1661.3	14.1612
1661.46	11.8858
1661.61	13.0355
1661.77	11.9073
1661.92	14.1768
1662.08	16.439
1662.23	13.0126
1662.39	11.8836
1662.54	13.0281
1662.7	11.901
1662.85	11.8926
1663.01	11.8886
1663.17	14.162
1663.32	14.177
1663.48	11.9026
1663.63	14.1528
1663.79	13.0167
1663.94	14.183
1664.1	11.9183
1664.25	13.0343
1664.41	13.0115
1664.56	15.2834
1664.72	11.8846
1664.87	14.1391
1665.03	14.166
1665.18	13.0286
1665.34	11.8927
1665.49	11.9009
1665.65	10.7757
1665.8	10.7727
1665.96	14.1821
1666.11	13.0298
1666.27	11.8762
1666.42	13.002
1666.58	14.1232
1666.73	16.4091
1666.89	14.1755
1667.04	13.0439
1667.2	14.1562
1667.35	9.60516
1667.51	13.0186
1667.66	13.031
1667.82	13.0367
1667.97	10.7568
1668.13	14.1566
1668.28	10.7667
1668.44	14.1502
1668.59	12.9926
1668.75	13.0264
1668.9	14.2049
1669.06	11.9283
1669.21	14.1803
1669.36	14.1797
1669.52	11.9227
1669.67	13.063
1669.83	13.0732
1669.98	13.0684
1670.14	14.1754
1670.29	13.0355
1670.45	11.8848
1670.6	10.7592
1670.76	14.1538
1670.91	13.0146
1671.07	15.314
1671.22	13.0612
1671.38	11.9191
1671.53	13.0732
1671.69	14.1966
1671.84	15.2723
1672	14.1583
1672.15	14.1565
1672.31	14.1875
1672.46	13.0513
1672.62	13.041
1672.77	13.0487
1672.93	11.8981
1673.08	10.7624
1673.23	11.8743
1673.39	11.9132
1673.54	14.204
1673.7	11.9228
1673.85	11.9223
1674.01	14.1706
1674.16	11.9065
1674.32	11.8934
1674.47	11.9085
1674.63	14.2089
1674.78	13.075
1674.94	13.0563
1675.09	10.7959
1675.24	11.9005
1675.4	11.9075
1675.55	13.0242
1675.71	14.1883
1675.86	14.2092
1676.02	13.1052
1676.17	11.9425
1676.33	10.7858
1676.48	13.0522
1676.64	14.1692
1676.79	11.9011
1676.94	9.63996
1677.1	14.1859
1677.25	13.043
1677.41	13.0011
1677.56	13.0048
1677.72	13.0063
1677.87	11.8926
1678.03	14.2001
1678.18	14.2148
1678.34	14.1973
1678.49	11.9123
1678.64	14.1388
1678.8	13.0087
1678.95	11.8854
1679.11	14.1541
1679.26	10.7666
1679.42	11.9113
1679.57	15.2884
1679.73	14.1352
1679.88	14.1491
1680.03	13.031
1680.19	11.9007
1680.34	10.7699
1680.5	11.9093
1680.65	11.9094
1680.81	13.044
1680.96	10.7606
1681.12	13.0122
1681.27	13.0175
1681.42	14.1325
1681.58	14.1324
1681.73	11.8946
1681.89	14.1551
1682.04	15.283
1682.2	13.0064
1682.35	18.6279
1682.5	11.8603
1682.66	11.8735
1682.81	14.1497
1682.97	11.8984
1683.12	13.0343
1683.28	13.0245
1683.43	9.61677
1683.58	11.8836
1683.74	11.8928
1683.89	11.8929
1684.05	11.8926
1684.2	11.8924
1684.35	11.8799
1684.51	11.8789
1684.66	13.0106
1684.82	14.1438
1684.97	13.022
1685.13	13.0239
1685.28	15.2755
1685.43	11.8868
1685.59	10.7644
1685.74	13.0372
1685.9	13.0391
1686.05	13.0365
1686.21	14.1725
1686.36	13.0291
1686.51	11.888
1686.67	13.0156
1686.82	16.4294
1686.98	13.0316
1687.13	11.8906
1687.28	14.1725
1687.44	14.1814
1687.59	14.1707
1687.75	15.3061
1687.9	9.62577
1688.05	14.132
1688.21	14.1262
1688.36	11.8717
1688.52	13.0121
1688.67	13.0087
1688.82	13.0147
1688.98	11.8902
1689.13	13.019
1689.29	14.1467
1689.44	11.8797
1689.59	10.7584
1689.75	14.1849
1689.9	11.9096
1690.06	14.1629
1690.21	11.8904
1690.36	14.1361
1690.52	11.8777
1690.67	14.1583
1690.83	11.8962
1690.98	15.2293
1691.13	11.8742
1691.29	11.8886
1691.44	10.8399
1691.6	11.9455
1691.75	12.9481
1691.9	11.9285
1692.06	13.0735
1692.21	13.1383
1692.37	14.0883
1692.52	13.1138
1692.67	14.0547
1692.83	12.2962
1692.98	13.2143
1693.14	13.9789
1693.29	13.15
1693.44	12.8099
1693.6	11.5676
1693.75	14.4713
1693.9	12.6471
1694.06	11.1046
1694.21	14.171
1694.36	13.0901
1694.52	12.749
1694.67	11.6461
1694.83	10.9001
1694.98	11.5922
1695.13	13.2293
1695.29	15.0651
1695.44	12.8026
1695.6	10.9799
1695.75	11.431
1695.9	11.8898
1696.06	11.149
1696.21	12.0567
1696.36	14.7229
1696.52	13.0917
1696.67	12.6394
1696.82	12.5522
1696.98	12.5416
1697.13	13.2043
1697.29	13.0345
1697.44	13.4448
1697.59	12.3818
1697.75	12.3718
1697.9	11.9282
1698.05	13.5434
1698.21	12.4416
1698.36	13.5695
1698.52	13.0818
1698.67	12.4556
1698.82	13.9269
1698.98	11.3112
1699.13	12.3553
1699.28	11.4145
1699.44	11.7403
1699.59	12.8103
1699.74	14.7725
1699.9	12.5062
1700.05	11.8532
1700.2	11.7449
1700.36	13.8264
1700.51	12.2129
1700.67	13.1792
1700.82	13.3796
1700.97	13.2409
1701.13	13.4743
1701.28	14.0417
1701.43	14.1933
1701.59	13.5692
1701.74	13.3257
1701.89	12.7145
1702.05	12.9974
1702.2	11.3705
1702.35	10.5015
1702.51	11.58
1702.66	12.5896
1702.81	11.8567
1702.97	11.6927
1703.12	13.3102
1703.27	14.8802
1703.43	13.8738
1703.58	11.8721
1703.73	12.1497
1703.89	12.1328
1704.04	12.39
1704.19	12.7444
1704.35	12.4336
1704.5	13.2304
1704.65	13.6417
1704.81	13.4338
1704.96	13.864
1705.11	12.4721
1705.27	11.3939
1705.42	12.7429
1705.54	11.8796
1705.7	13.0255
1705.85	11.9144
1706.01	11.9106
1706.16	13.0567
1706.32	13.0587
1706.47	13.0468
1706.63	11.907
1706.79	11.9127
1706.94	14.1863
1707.1	10.773
1707.25	13.0382
1707.41	10.7646
1707.57	13.0412
1707.72	11.9284
1707.88	14.1642
1708.03	13.0412
1708.19	11.8894
1708.34	11.9075
1708.5	11.9196
1708.66	15.3124
1708.81	14.2211
1708.97	11.8888
1709.12	13.0468
1709.28	14.1477
1709.43	13.0243
1709.59	14.1801
1709.75	10.7793
1709.9	13.0031
1710.06	13.0472
1710.21	14.1688
1710.37	9.63733
1710.52	9.66376
1710.68	11.9049
1710.84	13.0335
1710.99	13.0439
1711.15	11.9106
1711.3	11.9278
1711.46	11.9144
1711.61	13.0444
1711.77	9.64395
1711.93	14.1831
1712.08	14.1812
1712.24	14.1714
1712.39	11.904
1712.55	14.1478
1712.7	11.8883
1712.86	11.9008
1713.02	13.0516
1713.17	13.0535
1713.33	6.24416
1713.48	13.0401
1713.64	10.7785
1713.79	13.085
1713.95	9.68884
1714.1	13.0999
1714.26	13.084
1714.41	13.0826
1714.57	11.9336
1714.73	11.9256
1714.88	10.7858
1715.04	13.0584
1715.19	11.9426
1715.35	13.0865
1715.5	11.9555
1715.66	10.8082
1715.82	9.65478
1715.97	13.0772
1716.13	10.8047
1716.28	14.2162
1716.44	13.0967
1716.59	17.6116
1716.75	13.0452
1716.9	13.0613
1717.06	13.0472
1717.21	13.0621
1717.37	14.22
1717.52	13.0585
1717.68	13.075
1717.84	14.2233
1717.99	11.9109
1718.15	13.0246
1718.3	13.0761
1718.46	11.9411
1718.61	13.0932
1718.77	11.9764
1718.92	13.1092
1719.08	14.2154
1719.23	14.2161
1719.39	13.0876
1719.54	11.979
1719.7	13.1321
1719.85	16.53
1720.01	11.9487
1720.16	11.9425
1720.32	15.3159
1720.48	11.9283
1720.63	13.1072
1720.79	11.9706
1720.94	13.112
1721.1	13.1075
1721.25	13.0965
1721.41	14.1988
1721.56	14.2002
1721.72	13.0819
1721.87	11.9719
1722.03	11.9752
1722.18	13.1089
1722.34	13.1011
1722.49	14.2281
1722.65	10.8122
1722.8	11.9541
1722.96	11.9653
1723.11	14.2638
1723.27	13.1355
1723.43	13.1126
1723.58	11.964
1723.73	14.2516
1723.89	14.2664
1724.04	13.0941
1724.2	13.0915
1724.36	11.9676
1724.51	14.2328
1724.67	10.8154
1724.82	13.0937
1724.98	10.8308
1725.13	11.9942
1725.29	15.4338
1725.44	14.2911
1725.6	15.423
1725.75	13.1177
1725.91	14.261
1726.06	11.9698
1726.22	9.68027
1726.37	11.9685
1726.53	13.1282
1726.68	13.1108
1726.84	17.6518
1726.99	13.1029
1727.15	13.1087
1727.3	14.2378
1727.46	11.9759
1727.61	11.997
1727.77	11.9855
1727.92	11.966
1728.08	11.9499
1728.23	14.2242
1728.39	11.9683
1728.54	15.3993
1728.7	14.261
1728.85	14.2784
1729.01	12.006
1729.16	11.9996
1729.32	12.0004
1729.47	14.2806
1729.62	9.70237
1729.78	14.282
1729.94	12.0145
1730.09	12.0013
1730.24	13.1366
1730.4	11.9963
1730.55	11.9899
1730.71	14.2899
1730.86	14.2956
1731.02	12.0107
1731.17	14.3026
1731.33	10.8662
1731.48	12.0024
1731.64	11.9999
1731.79	10.8653
1731.95	14.2845
1732.1	12.0024
1732.26	12.0121
1732.41	14.2984
1732.57	12.0134
1732.72	14.3008
1732.88	15.4234
1733.03	11.9964
1733.19	12.0038
1733.34	12.0104
1733.5	9.73295
1733.65	12.0374
1733.81	10.8838
1733.96	11.9971
1734.11	13.1264
1734.27	10.8553
1734.42	12.0006
1734.58	12.027
1734.73	14.3165
1734.89	13.1435
1735.04	11.9946
1735.2	10.8621
1735.35	13.1627
1735.51	13.1634
1735.66	12.0115
1735.82	12.0269
1735.97	14.3233
1736.12	14.3141
1736.28	12.0191
1736.43	10.8852
1736.59	15.445
1736.74	12.0518
1736.9	13.2278
1737.05	12.0524
1737.21	14.3753
1737.36	12.05
1737.52	10.9085
1737.67	13.2016
1737.82	9.76499
1737.98	14.327
1738.13	12.0267
1738.29	12.0234
1738.44	13.2013
1738.6	14.3441
1738.75	10.8929
1738.91	13.1909
1739.06	12.0489
1739.22	14.3734
1739.37	12.0971
1739.52	14.3725
1739.68	14.3815
1739.83	13.2156
1739.99	12.0334
1740.14	12.0547
1740.3	10.882
1740.45	13.1817
1740.61	12.0604
1740.76	12.0796
1740.92	14.3635
1741.07	10.895
1741.22	12.0571
1741.38	14.3604
1741.53	13.2144
1741.69	14.3836
1741.84	13.2162
1742	14.3473
1742.15	14.3235
1742.3	10.9052
1742.46	13.2039
1742.61	13.1968
1742.77	15.5122
1742.92	16.6623
1743.08	10.8912
1743.23	14.326
1743.38	10.8917
1743.54	13.1647
1743.69	10.8773
1743.85	10.9024
1744	12.0598
1744.16	14.3678
1744.31	13.2291
1744.46	13.2292
1744.62	14.3661
1744.77	13.1988
1744.93	14.35
1745.08	17.8402
1745.24	10.9449
1745.39	14.3822
1745.55	12.0549
1745.7	14.3359
1745.85	12.0621
1746.01	13.25
1746.16	14.4125
1746.32	12.0679
1746.47	13.1996
1746.62	14.3767
1746.78	13.2307
1746.93	14.3572
1747.09	13.1974
1747.24	13.227
1747.4	12.1073
1747.55	12.1039
1747.7	12.0853
1747.86	10.9271
1748.01	15.51
1748.17	12.0643
1748.32	14.3953
1748.47	13.2732
1748.63	12.0945
1748.78	15.5272
1748.94	13.2172
1749.09	12.069
1749.24	13.212
1749.4	13.234
1749.55	13.2671
1749.71	12.1373
1749.86	15.6089
1750.01	12.1284
1750.17	14.4276
1750.32	13.2548
1750.48	14.4049
1750.63	13.242
1750.78	14.4125
1750.94	13.2836
1751.09	13.2713
1751.25	13.2601
1751.4	10.9451
1751.55	13.2433
1751.71	12.1103
1751.86	13.2599
1752.02	13.263
1752.17	13.2627
1752.32	17.8778
1752.48	13.2263
1752.63	12.0957
1752.79	14.4097
1752.94	10.9654
1753.09	14.4431
1753.25	13.276
1753.4	12.1397
1753.56	15.5741
1753.71	9.79273
1753.86	13.2938
1754.02	13.2775
1754.17	13.2976
1754.32	15.6208
1754.48	10.9788
1754.63	12.1248
1754.79	13.2602
1754.94	13.2749
1755.09	13.2786
1755.25	13.2643
1755.4	13.2839
1755.56	13.2883
1755.71	12.1211
1755.86	14.4322
1756.02	14.4177
1756.17	12.1008
1756.32	14.4154
1756.48	13.2788
1756.63	13.2778
1756.78	13.2629
1756.94	12.1209
1757.09	12.0992
1757.25	12.1001
1757.4	12.1301
1757.55	10.9638
1757.71	14.4232
1757.86	14.4411
1758.02	13.269
1758.17	12.121
1758.32	10.9689
1758.48	13.2748
1758.63	13.2642
1758.78	12.1122
1758.94	13.2697
1759.09	13.2656
1759.24	14.4253
1759.4	12.1181
1759.55	12.1274
1759.71	15.5718
1759.86	10.9321
1760.01	13.2604
1760.17	12.1301
1760.32	12.1325
1760.47	9.80841
1760.63	12.1174
1760.78	13.2681
1760.93	13.2667
1761.09	15.5989
1761.24	14.4395
1761.39	12.1413
1761.55	10.9882
1761.7	10.987
1761.86	14.453
1762.01	14.4422
1762.16	12.1488
1762.32	14.4624
1762.47	14.4497
1762.62	14.4578
1762.78	12.1352
1762.93	13.2921
1763.08	12.1438
1763.24	10.9974
1763.39	11.0049
1763.54	13.329
1763.7	14.472
1763.85	13.3099
1764	13.2945
1764.16	13.2732
1764.31	12.1437
1764.46	13.3211
1764.62	13.3262
1764.77	12.1659
1764.92	14.4927
1765.08	11.0011
1765.23	10.9953
1765.39	12.1623
1765.54	12.1489
1765.69	13.3249
1765.85	14.535
1766	13.3294
1766.15	12.1394
1766.31	14.4697
1766.46	13.3177
1766.61	10.9801
1766.77	10.9927
1766.92	15.6131
1767.07	13.309
1767.23	13.3363
1767.38	12.1944
1767.53	12.1465
1767.69	12.1583
1767.84	14.4963
1767.99	13.355
1768.14	13.3472
1768.3	13.3264
1768.45	13.3522
1768.61	12.1833
1768.76	12.1624
1768.91	14.4598
1769.06	12.1434
1769.22	11.0102
1769.37	12.1793
1769.52	14.4965
1769.68	12.1628
1769.83	14.4565
1769.98	10.9863
1770.14	14.4696
1770.29	12.175
1770.44	13.3518
1770.6	13.3404
1770.75	12.167
1770.9	12.1515
1771.06	9.83705
1771.21	12.1469
1771.36	12.1519
1771.52	13.3152
1771.67	12.1571
1771.82	15.6371
1771.97	13.3061
1772.13	14.48
1772.28	11.015
1772.43	13.3324
1772.59	13.338
1772.74	11.0206
1772.89	12.1555
1773.05	12.1455
1773.2	12.1573
1773.35	13.3055
1773.51	12.1417
1773.66	12.1676
1773.81	12.1888
1773.97	12.1847
1774.12	13.3208
1774.27	12.1647
1774.42	12.1625
1774.58	14.4746
1774.73	15.6315
1774.88	14.48
1775.04	11.0271
1775.19	14.4943
1775.34	12.1548
1775.49	13.3177
1775.65	13.3374
1775.8	14.4893
1775.95	13.3361
1776.11	14.5001
1776.26	12.1709
1776.41	13.34
1776.57	13.3382
1776.72	15.6683
1776.87	12.1825
1777.02	10.9921
1777.18	10.9932
1777.33	15.6604
1777.48	13.3447
1777.64	13.3373
1777.79	13.3329
1777.94	12.1728
1778.09	14.5073
1778.25	13.378
1778.4	13.3675
1778.55	14.4961
1778.71	14.4925
1778.86	13.3253
1779.01	14.4876
1779.16	11.0208
1779.32	12.1761
1779.47	14.4918
1779.62	13.3384
1779.77	11.0392
1779.93	13.3829
1780.08	14.5394
1780.23	11.04
1780.39	12.1966
1780.54	13.3564
1780.69	11.0369
1780.84	11.0411
1781	15.6749
1781.15	13.3758
1781.3	14.5416
1781.45	12.1833
1781.61	14.4979
1781.76	14.5021
1781.91	12.1978
1782.07	14.5328
1782.22	13.3839
1782.37	12.2026
1782.52	13.3519
1782.68	12.2022
1782.83	14.5406
1782.98	13.3593
1783.13	13.3526
1783.29	9.877
1783.44	13.3399
1783.59	11.0281
1783.75	11.0386
1783.9	12.1777
1784.05	11.0047
1784.2	12.1935
1784.36	11.0415
1784.51	12.1761
1784.66	12.2032
1784.81	13.3722
1784.97	9.87475
1785.12	12.1825
1785.27	13.3739
1785.42	14.5322
1785.58	11.0268
1785.73	12.2179
1785.88	14.5805
1786.03	12.2055
1786.19	14.5377
1786.34	13.3895
1786.49	12.2318
1786.64	12.243
1786.8	13.3829
1786.95	14.5838
1787.1	13.3719
1787.25	12.211
1787.41	14.5339
1787.56	13.3488
1787.71	11.0488
1787.86	12.2306
1788.02	12.1942
1788.17	14.5383
1788.32	13.3777
1788.47	12.2027
1788.63	13.3472
1788.78	12.2121
1788.93	13.3787
1789.08	13.3809
1789.24	12.2654
1789.39	11.0743
1789.54	13.3812
1789.69	13.3662
1789.84	13.3515
1790	11.039
1790.15	14.5655
1790.3	12.246
1790.45	14.5589
1790.61	14.557
1790.76	12.2301
1790.91	13.3749
1791.06	13.3925
1791.22	11.064
1791.37	13.3991
1791.52	11.069
1791.67	12.2516
1791.83	14.5484
1791.98	13.362
1792.13	12.2311
1792.28	11.0839
1792.43	15.7364
1792.59	12.2249
1792.74	9.89933
1792.89	13.3961
1793.04	13.3971
1793.19	8.73379
1793.35	12.2317
1793.5	14.5592
1793.65	13.3767
1793.8	14.5462
1793.96	13.4065
1794.11	13.3974
1794.26	12.2065
1794.41	11.0257
1794.56	13.3646
1794.72	12.2166
1794.87	14.5579
1795.02	13.4074
1795.17	12.2412
1795.33	15.7389
1795.48	12.2445
1795.63	15.7401
1795.78	13.4111
1795.93	9.90668
1796.09	13.4035
1796.24	13.3969
1796.39	12.2203
1796.54	13.3886
1796.69	12.2394
1796.85	12.2511
1797	14.5679
1797.15	13.3933
1797.3	13.3882
1797.45	12.2348
1797.61	15.7145
1797.76	13.3903
1797.91	14.548
1798.06	13.4033
1798.21	11.0698
1798.37	13.3985
1798.52	12.2203
1798.67	13.3767
1798.82	13.3864
1798.97	12.2368
1799.13	13.4107
1799.28	11.0373
1799.43	9.88376
1799.58	12.2301
1799.73	13.4166
1799.89	13.3821
1800.04	11.0547
1800.19	16.9151
1800.34	12.2373
1800.49	13.4034
1800.65	12.2272
1800.8	13.3914
1800.95	12.2161
1801.1	14.5435
1801.25	13.4413
1801.41	11.0957
1801.56	12.253
1801.71	12.2659
1801.86	12.2551
1802.01	14.5982
1802.16	12.2762
1802.32	15.7634
1802.47	9.93997
1802.62	15.7414
1802.77	12.2668
1802.92	12.2759
1803.08	14.6353
1803.23	9.94132
1803.38	12.2777
1803.53	12.2651
1803.68	7.60395
1803.83	14.603
1803.99	12.2761
1804.14	12.2765
1804.29	14.5888
1804.44	13.4163
1804.59	12.2781
1804.74	14.5851
1804.9	9.93734
1805.05	9.93986
1805.2	13.4726
1805.35	14.6539
1805.5	12.2902
1805.65	14.6365
1805.81	13.4681
1805.96	12.2853
1806.11	13.4305
1806.26	12.2763
1806.41	11.1106
1806.56	13.4458
1806.72	12.2607
1806.87	13.4506
1807.02	14.653
1807.17	13.4679
1807.32	13.4565
1807.47	13.4533
1807.63	12.2646
1807.78	12.2669
1807.93	13.4369
1808.08	13.4558
1808.23	14.6536
1808.38	13.4729
1808.54	12.3028
1808.69	11.1318
1808.84	14.6414
1808.99	12.2798
1809.14	13.4514
1809.29	13.467
1809.44	13.4729
1809.6	11.14
1809.75	14.6926
1809.9	14.7018
1810.05	13.4967
1810.2	12.3176
1810.35	11.1513
1810.51	12.3237
1810.66	13.4999
1810.81	13.5263
1810.96	12.3482
1811.11	11.1509
1811.26	13.4971
1811.41	13.4925
1811.57	13.4787
1811.72	12.289
1811.87	8.79048
1812.02	15.8645
1812.17	10.0011
1812.32	13.5061
1812.47	14.6594
1812.63	13.4984
1812.78	12.3308
1812.93	14.6762
1813.08	10.0008
1813.23	14.7148
1813.38	9.99995
1813.53	11.1636
1813.69	13.5021
1813.84	13.5038
1813.99	14.6845
1814.14	12.351
1814.29	11.1619
1814.44	13.5273
1814.59	11.1849
1814.74	13.5126
1814.9	13.509
1815.05	14.6819
1815.2	14.6902
1815.35	9.99821
1815.5	13.5202
1815.65	12.3636
1815.8	15.8857
1815.95	14.713
1816.11	11.1755
1816.26	12.3341
1816.41	13.5112
1816.56	13.5478
1816.71	13.5507
1816.86	13.5511
1817.01	12.3693
1817.17	13.5379
1817.32	13.4959
1817.47	15.8734
1817.62	13.5439
1817.77	13.5383
1817.92	13.529
1818.07	14.7476
1818.22	12.3455
1818.37	10.0032
1818.53	13.53
1818.68	14.6921
1818.83	12.3951
1818.98	17.0955
1819.13	12.3557
1819.28	12.3709
1819.43	13.5788
1819.58	14.7043
1819.73	15.8967
1819.89	13.5328
1820.04	12.372
1820.19	14.7488
1820.34	12.3818
1820.49	14.7557
1820.64	14.7408
1820.79	14.7116
1820.94	10.0263
1821.09	14.7382
1821.24	11.2027
1821.4	12.3858
1821.55	11.1993
1821.7	14.7346
1821.85	13.5617
1822	13.5527
1822.15	14.7528
1822.3	11.2306
1822.45	12.3956
1822.6	14.7362
1822.76	10.0338
1822.91	12.3926
1823.06	11.2141
1823.21	12.3851
1823.36	11.2127
1823.51	11.2244
1823.66	13.5854
1823.81	13.567
1823.96	12.3858
1824.11	15.9093
1824.26	20.6349
1824.42	12.3787
1824.57	14.7657
1824.72	13.5905
1824.87	13.586
1825.02	13.6006
1825.17	13.5908
1825.32	12.4024
1825.47	12.3969
1825.62	12.4233
1825.77	12.4362
1825.92	13.6231
1826.07	12.4514
1826.23	13.591
1826.38	12.4117
1826.53	12.3781
1826.68	13.6034
1826.83	13.6384
1826.98	13.6065
1827.13	12.4596
1827.28	14.8227
1827.43	12.4223
1827.58	12.4407
1827.73	12.4271
1827.88	15.9624
1828.03	14.7762
1828.19	11.2731
1828.34	12.4696
1828.49	13.6468
1828.64	14.8249
1828.79	13.611
1828.94	13.609
1829.09	12.4185
1829.24	13.6415
1829.39	14.8103
1829.54	12.4534
1829.69	12.4692
1829.84	11.2697
1829.99	15.9969
1830.14	12.4443
1830.3	13.6415
1830.45	13.6481
1830.6	12.4806
1830.75	14.8931
1830.9	14.8441
1831.05	12.4755
1831.2	14.8246
1831.35	13.6391
1831.5	14.8529
1831.65	12.4917
1831.8	14.8664
1831.95	11.2959
1832.1	11.2798
1832.25	13.658
1832.4	11.2703
1832.55	13.6686
1832.7	13.6834
1832.85	13.7055
1833.01	13.6776
1833.16	13.6765
1833.31	10.0944
1833.46	14.8245
1833.61	11.2875
1833.76	14.8727
1833.91	13.6781
1834.06	14.8837
1834.21	13.6927
1834.36	12.5018
1834.51	14.8839
1834.66	12.4877
1834.81	11.3
1834.96	14.8652
1835.11	12.5064
1835.26	14.9083
1835.41	13.6777
1835.56	11.2812
1835.71	12.457
1835.86	16.0291
1836.01	14.8823
1836.17	14.9101
1836.32	8.96441
1836.47	12.5371
1836.62	7.73845
1836.77	14.8635
1836.92	11.2915
1837.07	13.6723
1837.22	16.0687
1837.37	16.0968
1837.52	11.3422
1837.67	12.5289
1837.82	13.708
1837.97	12.5072
1838.12	13.6846
1838.27	10.1081
1838.42	14.8945
1838.57	13.7335
1838.72	12.5417
1838.87	13.712
1839.02	11.3217
1839.17	13.7018
1839.32	11.3202
1839.47	13.7288
1839.62	11.3526
1839.77	13.7396
1839.92	13.7284
1840.07	12.5257
1840.22	12.5205
1840.37	14.9076
1840.52	16.1104
1840.67	13.7397
1840.82	13.7666
1840.97	13.7493
1841.13	13.7229
1841.28	12.5286
1841.43	13.7117
1841.58	13.7151
1841.73	13.6962
1841.88	11.3373
1842.03	10.1669
1842.18	13.7541
1842.33	12.5588
1842.48	8.96893
1842.63	13.7255
1842.78	14.9067
1842.93	13.7373
1843.08	13.7206
1843.23	12.5502
1843.38	12.5712
1843.53	11.3661
1843.68	12.561
1843.83	13.7478
1843.98	13.7483
1844.13	12.5474
1844.28	11.374
1844.43	11.397
1844.58	13.7851
1844.73	12.5718
1844.88	14.9473
1845.03	13.7329
1845.18	12.579
1845.33	16.1641
1845.48	16.1478
1845.63	13.7634
1845.78	12.583
1845.93	12.579
1846.08	13.7663
1846.23	14.9312
1846.38	12.5335
1846.53	12.5531
1846.68	11.3819
1846.83	10.1834
1846.98	12.5668
1847.13	8.96908
1847.28	12.5629
1847.43	12.5674
1847.58	11.4011
1847.73	12.6112
1847.88	14.9897
1848.03	14.9759
1848.18	14.9728
1848.33	12.5661
1848.48	13.7703
1848.63	11.3954
1848.78	15.0171
1848.93	11.412
1849.08	12.5984
1849.23	15.0211
1849.38	12.6164
1849.53	14.9962
1849.68	14.9841
1849.82	12.5798
1849.97	14.9981
1850.12	13.8245
1850.27	11.4289
1850.42	12.5971
1850.57	13.8094
1850.72	15.0495
1850.87	12.6388
1851.02	13.8388
1851.17	12.6181
1851.32	21.0344
1851.47	10.2323
1851.62	12.6353
1851.77	13.8437
1851.92	13.854
1852.07	13.8546
1852.22	13.832
1852.37	11.43
1852.52	13.8373
1852.67	11.4296
1852.82	15.0469
1852.97	15.0332
1853.12	13.8322
1853.27	11.4311
1853.42	18.6255
1853.57	13.8267
1853.72	11.4394
1853.87	15.0635
1854.02	11.4386
1854.17	13.8371
1854.32	11.4206
1854.47	12.6343
1854.62	16.2599
1854.77	12.6522
1854.92	12.6744
1855.06	15.0757
1855.21	13.8426
1855.36	11.4367
1855.51	11.4333
1855.66	13.8663
1855.81	12.6743
1855.96	13.896
1856.11	13.8742
1856.26	13.8636
1856.41	12.6608
1856.56	13.8819
1856.71	10.2684
1856.86	12.669
1857.01	12.6757
1857.16	12.6833
1857.31	15.0644
1857.46	12.6543
1857.61	12.6539
1857.76	13.8442
1857.91	12.6244
1858.06	12.6246
1858.2	12.6638
1858.35	13.8907
1858.5	12.6754
1858.65	13.855
1858.8	12.6516
1858.95	13.8558
1859.1	10.2402
1859.25	13.873
1859.4	13.8952
1859.55	10.2777
1859.7	13.8922
1859.85	15.0608
1860	12.6543
1860.15	17.5006
1860.3	11.4598
1860.45	15.0963
1860.59	11.4933
1860.74	13.9076
1860.89	13.9004
1861.04	15.1133
1861.19	13.8882
1861.34	13.8987
1861.49	12.6969
1861.64	13.9229
1861.79	13.9431
1861.94	13.9368
1862.09	13.9042
1862.24	13.8856
1862.39	11.4523
1862.54	16.3054
1862.69	13.9119
1862.83	11.5096
1862.98	11.5109
1863.13	15.1315
1863.28	12.711
1863.43	15.1404
1863.58	15.0939
1863.73	11.471
1863.88	13.9198
1864.03	11.5326
1864.18	12.7355
1864.33	15.1292
1864.48	12.6974
1864.63	15.0866
1864.77	13.8377
1864.92	15.086
1865.07	11.5019
1865.22	11.4893
1865.37	11.4964
1865.52	13.9281
1865.67	12.716
1865.82	12.681
1865.97	13.8805
1866.12	12.7062
1866.27	13.9032
1866.41	13.8995
1866.56	15.1506
1866.71	12.6712
1866.86	13.8965
1867.01	12.6722
1867.16	11.4765
1867.31	16.3426
1867.46	13.9227
1867.61	15.1511
1867.76	13.9335
1867.91	15.1281
1868.06	15.1048
1868.2	15.0923
1868.35	12.7155
1868.5	15.096
1868.65	11.4621
1868.8	12.7141
1868.95	15.1023
1869.1	15.0653
1869.25	12.6564
1869.4	13.8761
1869.54	11.5056
1869.69	13.9556
1869.84	12.7475
1869.99	11.5131
1870.14	15.1844
1870.29	13.9874
1870.44	11.521
1870.59	11.4966
1870.74	13.9143
1870.89	10.2894
1871.03	13.9248
1871.18	13.9276
1871.33	15.1594
1871.48	13.9291
1871.63	12.7032
1871.78	15.1468
1871.93	11.4985
1872.08	13.926
1872.22	10.2928
1872.37	16.3698
1872.52	11.5134
1872.67	13.9105
1872.82	12.6885
1872.97	15.1222
1873.12	13.9181
1873.27	16.3406
1873.42	13.9299
1873.56	15.131
1873.71	12.7265
1873.86	12.7155
1874.01	13.9055
1874.16	11.4771
1874.31	12.7188
1874.46	11.5219
1874.61	11.5214
1874.75	13.9314
1874.9	13.9593
1875.05	13.9394
1875.2	12.6999
1875.35	16.3597
1875.5	11.5003
1875.65	13.9249
1875.8	13.9515
1875.94	12.7286
1876.09	12.6895
1876.24	13.9028
1876.39	13.894
1876.54	12.6906
1876.69	12.6931
1876.84	13.9314
1876.99	15.1429
1877.13	12.7026
1877.28	13.8952
1877.43	11.4806
1877.58	13.917
1877.73	11.5135
1877.88	12.7375
1878.03	13.9825
1878.17	14.013
1878.32	12.7838
1878.47	12.7764
1878.62	15.1996
1878.77	12.7435
1878.92	13.9469
1879.07	10.2993
1879.21	13.9498
1879.36	13.9505
1879.51	12.7292
1879.66	12.7097
1879.81	15.1265
1879.96	12.7383
1880.11	13.9486
1880.25	13.9675
1880.4	13.968
1880.55	11.5211
1880.7	12.7249
1880.85	15.1309
1881	15.1276
1881.15	13.9315
1881.29	15.1708
1881.44	15.1923
1881.59	13.967
1881.74	12.7315
1881.89	12.7255
1882.04	13.919
1882.18	12.7222
1882.33	11.5197
1882.48	13.9305
1882.63	15.1887
1882.78	12.7797
1882.93	16.4405
1883.08	12.7588
1883.22	12.7601
1883.37	13.9444
1883.52	12.7645
1883.67	14.0326
1883.82	15.2874
1883.97	12.8675
1884.11	14.0669
1884.26	10.3785
1884.41	12.7674
1884.56	13.9679
1884.71	12.7735
1884.85	16.4434
1885	12.7948
1885.15	12.76
1885.3	13.9405
1885.45	11.5415
1885.6	13.9519
1885.74	13.9563
1885.89	11.5664
1886.04	14.0449
1886.19	15.1606
1886.34	12.6576
1886.49	13.8425
1886.64	11.4839
1886.78	16.3738
1886.93	15.229
1887.08	14.0312
1887.23	14.0528
1887.38	12.8551
1887.52	12.8238
1887.67	15.2314
1887.82	11.5814
1887.97	15.2459
1888.12	12.7892
1888.27	18.852
1888.41	13.9938
1888.56	13.996
1888.71	14.0026
1888.86	11.5572
1889.01	13.9966
1889.15	16.4799
1889.3	15.2998
1889.45	14.1121
1889.6	11.674
1889.75	12.88
1889.89	12.8107
1890.04	10.3602
1890.19	12.7892
1890.34	11.58
1890.49	14.0257
1890.64	12.8376
1890.78	14.0343
1890.93	12.8036
1891.08	14.0081
1891.23	11.5721
1891.38	15.2133
1891.52	16.4279
1891.67	12.7989
1891.82	12.7944
1891.97	11.5775
1892.12	15.2513
1892.26	13.9803
1892.41	13.9583
1892.56	13.996
1892.71	11.5667
1892.85	15.212
1893	14.0104
1893.15	15.2255
1893.3	13.9936
1893.45	11.5397
1893.6	13.9882
1893.74	14.0023
1893.89	12.7861
1894.04	14.0036
1894.19	12.7995
1894.33	14.0244
1894.48	15.2427
1894.63	12.7774
1894.78	12.7765
1894.93	15.2273
1895.07	12.8043
1895.22	11.568
1895.37	12.8096
1895.52	15.2573
1895.67	15.2403
1895.81	12.8103
1895.96	15.2528
1896.11	14.0174
1896.26	13.9865
1896.41	13.9973
1896.55	14.0242
1896.7	14.034
1896.85	11.5791
1897	14.0171
1897.14	11.5879
1897.29	12.8424
1897.44	16.5402
1897.59	10.4193
1897.73	12.849
1897.88	12.862
1898.03	12.8378
1898.18	11.6089
1898.33	12.8045
1898.47	14.0113
1898.62	14.0423
1898.77	10.3801
1898.92	14.0635
1899.06	15.2653
1899.21	14.0125
1899.36	12.7993
1899.51	14.0301
1899.66	15.2495
1899.8	14.0322
1899.95	14.0391
1900.1	14.0516
1900.25	15.2599
1900.39	11.5878
1900.54	14.0223
1900.69	12.7868
1900.84	14.0092
1900.98	12.8168
1901.13	14.0551
1901.28	14.0793
1901.43	16.5035
1901.57	11.6084
1901.72	10.3946
1901.87	14.0537
1902.02	12.8452
1902.16	10.4237
1902.31	14.0991
1902.46	12.8473
1902.61	11.5964
1902.76	12.7942
1902.9	11.5603
1903.05	12.788
1903.2	15.2656
1903.35	14.0362
1903.49	11.6088
1903.64	12.8423
1903.79	12.834
1903.94	12.8184
1904.08	15.2396
1904.23	12.8222
1904.38	15.3185
1904.53	12.8809
1904.67	15.31
1904.82	12.8146
1904.97	12.8251
1905.11	12.838
1905.26	12.8056
1905.41	12.8219
1905.56	12.8419
1905.71	12.8554
1905.85	11.6245
1906	11.6087
1906.15	14.023
1906.3	12.7518
1906.44	12.8017
1906.59	12.8505
1906.74	12.8303
1906.88	15.2982
1907.03	15.286
1907.18	12.8378
1907.33	14.0495
1907.47	17.7055
1907.62	12.8508
1907.77	14.0648
1907.92	9.19377
1908.06	15.3181
1908.21	14.0757
1908.36	14.1187
1908.5	14.088
1908.65	15.3103
1908.8	12.8286
1908.95	14.0889
1909.09	11.6593
1909.24	15.3611
1909.39	12.8972
1909.54	12.8489
1909.68	16.5025
1909.83	12.8462
1909.98	15.3192
1910.12	14.1142
1910.27	11.6646
1910.42	15.3291
1910.57	9.21755
1910.71	15.3183
1910.86	16.5309
1911.01	14.0817
1911.16	15.3217
1911.3	11.6604
1911.45	15.3401
1911.6	14.1149
1911.74	15.3239
1911.89	12.8559
1912.04	12.8662
1912.19	10.4059
1912.33	15.3152
1912.48	10.4445
1912.63	15.3771
1912.77	14.1315
1912.92	14.0912
1913.07	11.6604
1913.22	14.1067
1913.36	14.1165
1913.51	14.1373
1913.66	14.132
1913.8	15.3776
1913.95	14.1538
1914.1	17.7856
1914.24	12.8699
1914.39	12.8861
1914.54	12.8759
1914.69	14.1295
1914.83	15.3921
1914.98	15.4101
1915.13	16.6076
1915.27	14.1136
1915.42	12.8718
1915.57	15.386
1915.72	12.905
1915.86	16.6146
1916.01	14.2096
1916.16	15.4373
1916.3	16.6977
1916.45	12.9835
1916.6	12.9788
1916.74	14.1798
1916.89	14.1448
1917.04	12.8956
1917.19	11.6746
1917.33	12.8948
1917.48	14.1297
1917.63	12.9123
1917.77	15.3281
1917.92	11.6364
1918.07	14.1226
1918.21	15.3781
1918.36	14.1482
1918.51	11.7007
1918.65	11.7048
1918.8	12.9288
1918.95	14.1333
1919.09	12.9204
1919.24	11.724
1919.39	14.1201
1919.54	14.1774
1919.68	13.0677
1919.83	13.0239
1919.98	12.9525
1920.12	15.334
1920.27	11.9848
1920.42	11.8427
1920.56	13.9126
1920.71	16.0891
1920.86	12.9588
1921	14.1978
1921.15	12.0312
1921.3	16.9224
1921.44	13.9308
1921.59	12.9364
1921.74	15.1317
1921.88	15.2657
1922.03	12.9831
1922.18	13.0058
1922.32	13.1695
1922.47	15.2432
1922.62	12.9461
1922.76	13.0294
1922.91	15.8004
1923.06	11.6538
1923.2	14.2003
1923.35	14.2824
1923.5	15.1335
1923.64	11.2806
1923.79	12.2122
1923.94	13.7965
1924.08	13.3597
1924.23	14.5633
1924.38	13.3902
1924.52	13.2435
1924.67	12.4794
1924.82	12.9606
1924.96	13.2651
1925.11	16.6018
1925.26	13.1426
1925.4	13.074
1925.55	14.6935
1925.7	15.4754
1925.84	14.2884
1925.99	10.1752
1926.14	13.847
1926.28	13.8344
1926.43	12.3539
1926.58	12.9238
1926.72	13.4384
1926.87	11.9138
1927.01	13.6541
1927.16	13.7555
1927.31	13.3152
1927.45	13.3622
1927.6	13.2315
1927.75	13.4611
1927.89	13.0856
1928.04	12.7609
1928.19	14.0129
1928.33	13.7076
1928.48	13.3771
1928.63	12.5858
1928.77	13.8273
1928.92	13.9708
1929.07	14.6246
1929.21	12.4852
1929.36	12.0271
1929.5	12.5093
1929.65	13.4642
1929.8	12.6731
1929.94	13.2505
1930.09	12.582
1930.24	12.144
1930.38	13.766
1930.53	14.5105
1930.68	12.7453
1930.82	12.7694
1930.97	12.2123
1931.12	11.0613
1931.26	13.1586
1931.41	14.3588
1931.55	15.0455
1931.7	13.4948
1931.85	12.1343
1931.99	12.399
1932.14	12.9711
1932.28	12.4366
1932.43	14.8899
1932.58	12.2097
1932.72	15.0993
1932.87	11.9169
1933.01	14.2241
1933.16	12.994
1933.3	15.4753
1933.45	11.7843
1933.6	14.271
1933.75	11.7674
1933.9	12.9985
1934.05	14.2487
1934.2	15.4676
1934.35	12.9908
1934.49	14.2742
1934.64	14.2824
1934.79	13.0245
1934.94	15.4993
1935.09	14.2605
1935.24	15.5095
1935.39	15.5182
1935.54	15.5116
1935.68	13.0304
1935.83	14.2852
1935.98	13.0472
1936.13	16.763
1936.28	14.277
1936.43	14.2754
1936.58	15.4829
1936.72	11.7945
1936.87	13.0491
1937.02	14.2992
1937.17	11.7676
1937.32	15.4622
1937.47	14.2134
1937.62	13.0346
1937.77	14.2719
1937.91	12.9938
1938.06	13.0173
1938.21	14.2697
1938.36	11.7694
1938.51	14.2334
1938.66	10.5248
1938.81	13.0007
1938.95	14.2666
1939.1	13.0478
1939.25	13.0666
1939.4	14.2796
1939.55	14.297
1939.7	13.0311
1939.84	13.0668
1939.99	15.5272
1940.14	13.0664
1940.29	13.0481
1940.44	11.8047
1940.59	9.32845
1940.74	14.2748
1940.89	11.7788
1941.03	13.0184
1941.18	13.0202
1941.33	13.046
1941.48	13.0698
1941.63	13.0842
1941.78	9.34039
1941.92	13.0599
1942.07	11.8062
1942.22	13.0348
1942.37	14.2819
1942.52	10.5642
1942.67	14.3115
1942.81	11.8323
1942.96	11.8408
1943.11	15.5795
1943.26	10.5857
1943.41	14.295
1943.56	11.8126
1943.7	21.818
1943.85	14.3484
1944	13.0874
1944.15	14.3232
1944.3	14.3079
1944.45	13.0527
1944.59	11.8266
1944.74	14.2928
1944.89	13.0844
1945.04	14.3467
1945.19	14.3515
1945.34	11.8259
1945.48	13.0638
1945.63	14.3309
1945.78	14.3457
1945.93	15.6022
1946.08	13.1148
1946.23	13.0963
1946.37	15.5819
1946.52	13.101
1946.67	14.3206
1946.82	14.286
1946.97	13.0549
1947.12	13.0757
1947.26	13.0973
1947.41	13.1099
1947.56	13.1058
1947.71	14.332
1947.86	14.3174
1948	14.3077
1948.15	15.5714
1948.3	13.1119
1948.45	13.1127
1948.6	14.3642
1948.74	13.1079
1948.89	11.8305
1949.04	15.5597
1949.19	10.5894
1949.34	13.0956
1949.49	14.3647
1949.63	14.3691
1949.78	13.105
1949.93	16.8195
1950.08	15.5666
1950.23	13.0713
1950.37	13.0609
1950.52	13.0714
1950.67	15.586
1950.82	14.3476
1950.97	11.8587
1951.11	13.063
1951.26	13.0456
1951.41	14.3059
1951.56	10.5863
1951.71	13.0855
1951.85	14.3597
1952	11.8599
1952.15	14.3426
1952.3	15.5905
1952.45	9.34972
1952.59	13.0641
1952.74	13.0727
1952.89	10.5725
1953.04	13.0844
1953.19	11.8465
1953.33	13.0935
1953.48	14.3279
1953.63	14.3129
1953.78	11.8057
1953.93	14.3219
1954.07	14.3767
1954.22	15.6235
1954.37	11.8643
1954.52	15.6053
1954.67	15.5946
1954.81	11.828
1954.96	10.6037
1955.11	15.5709
1955.26	15.6025
1955.41	14.3566
1955.55	14.3586
1955.7	11.8579
1955.85	10.5951
1956	13.0884
1956.14	11.834
1956.29	14.353
1956.44	14.3721
1956.59	11.8821
1956.74	13.1159
1956.88	11.8682
1957.03	15.6193
1957.18	13.0991
1957.33	14.3253
1957.47	15.5805
1957.62	14.372
1957.77	15.6391
1957.92	16.873
1958.07	13.1217
1958.21	10.612
1958.36	11.8405
1958.51	13.096
1958.66	13.124
1958.8	13.1231
1958.95	11.8907
1959.1	15.6651
1959.25	14.3882
1959.4	15.6235
1959.54	14.371
1959.69	14.3546
1959.84	14.3564
1959.99	14.3673
1960.13	10.6163
1960.28	16.8698
1960.43	14.3741
1960.58	14.3488
1960.72	13.0736
1960.87	15.5845
1961.02	13.1173
1961.17	14.3587
1961.31	15.5979
1961.46	11.8597
1961.61	11.8609
1961.76	11.8454
1961.91	14.3669
1962.05	11.8792
1962.2	11.8731
1962.35	11.9012
1962.5	13.1364
1962.64	10.634
1962.79	10.6194
1962.94	13.0961
1963.09	11.8555
1963.23	16.8485
1963.38	13.1231
1963.53	14.3627
1963.68	13.1169
1963.82	15.6419
1963.97	13.1355
1964.12	15.6383
1964.27	15.6332
1964.41	13.0977
1964.56	15.5876
1964.71	14.3756
1964.86	13.1617
1965	15.6728
1965.15	13.1129
1965.3	13.1187
1965.45	13.1204
1965.59	16.8653
1965.74	14.3786
1965.89	14.3926
1966.04	13.144
1966.18	15.6424
1966.33	14.3772
1966.48	14.3768
1966.63	13.1261
1966.77	14.3922
1966.92	11.9
1967.07	11.9097
1967.21	11.8903
1967.36	14.3872
1967.51	10.6527
1967.66	13.146
1967.8	14.3479
1967.95	13.1236
1968.1	14.3969
1968.25	13.1608
1968.39	13.1497
1968.54	14.4083
1968.69	11.8965
1968.83	18.1266
1968.98	13.1483
1969.13	13.1331
1969.28	13.1387
1969.42	14.3811
1969.57	13.1418
1969.72	15.64
1969.87	10.6101
1970.01	14.3607
1970.16	13.117
1970.31	11.8971
1970.45	13.1704
1970.6	15.6745
1970.75	13.1703
1970.9	15.6442
1971.04	13.1279
1971.19	16.825
1971.34	11.84
1971.49	11.8723
1971.63	14.4355
1971.78	14.4051
1971.93	14.3762
1972.07	10.6189
1972.22	13.0943
1972.37	13.0695
1972.52	13.0781
1972.66	15.6082
1972.81	13.1641
1972.96	13.1634
1973.1	13.1364
1973.25	14.3473
1973.4	14.3437
1973.55	13.0939
1973.69	11.8702
1973.84	13.1519
1973.99	11.9016
1974.13	15.6409
1974.28	14.3676
1974.43	14.366
1974.58	14.3639
1974.72	14.3448
1974.87	11.8669
1975.02	13.1503
1975.16	14.4106
1975.31	14.4065
1975.46	15.647
1975.6	11.8873
1975.75	11.8888
1975.9	15.651
1976.05	11.8811
1976.19	11.8867
1976.34	13.1673
1976.49	11.9192
1976.63	11.9224
1976.78	13.1754
1976.93	10.673
1977.07	15.6853
1977.22	14.4291
1977.37	11.9446
1977.52	13.174
1977.66	10.6297
1977.81	18.1303
1977.96	11.8863
1978.1	11.8777
1978.25	13.1363
1978.4	13.1187
1978.54	15.6419
1978.69	11.8901
1978.84	10.6424
1978.98	15.6412
1979.13	13.1105
1979.28	13.1094
1979.43	15.6176
1979.57	11.8981
1979.72	15.681
1979.87	13.2032
1980.01	15.6828
1980.16	11.9203
1980.31	15.707
1980.45	13.1967
1980.6	14.4536
1980.75	10.6932
1980.89	14.4422
1981.04	13.1988
1981.19	13.1752
1981.33	15.6767
1981.48	14.3778
1981.63	14.3463
1981.77	11.8413
1981.92	11.8581
1982.07	15.6557
1982.21	14.386
1982.36	13.1352
1982.51	14.3842
1982.65	9.36748
1982.8	10.6246
1982.95	14.3933
1983.1	13.1346
1983.24	11.8926
1983.39	13.162
1983.53	15.6448
1983.68	13.1421
1983.83	15.6413
1983.98	13.111
1984.12	13.102
1984.27	15.6215
1984.41	11.8731
1984.56	13.1263
1984.71	13.1223
1984.86	14.3748
1985	14.3767
1985.15	11.8672
1985.29	14.3479
1985.44	13.0966
1985.59	13.1165
1985.74	11.874
1985.88	16.8653
1986.03	11.865
1986.17	11.8622
1986.32	14.3504
1986.47	15.6037
1986.61	14.3711
1986.76	13.1408
1986.91	14.407
1987.05	13.1472
1987.2	11.8906
1987.35	13.1274
1987.49	16.8647
1987.64	11.8871
1987.79	14.4001
1987.93	11.88
1988.08	13.1373
1988.23	15.6563
1988.37	13.133
1988.52	13.1092
1988.67	10.6024
1988.81	13.1136
1988.96	13.1378
1989.1	11.8957
1989.25	13.1562
1989.4	14.3884
1989.54	13.1145
1989.69	14.333
1989.84	10.6178
1989.98	14.3861
1990.13	15.6263
1990.28	14.3872
1990.42	11.9035
1990.57	14.4055
1990.71	15.612
1990.86	13.1279
1991.01	11.8662
1991.16	13.0989
1991.3	16.863
1991.45	11.8986
1991.59	14.4359
1991.74	14.4633
1991.89	11.9223
1992.03	15.6751
1992.18	9.41515
1992.33	14.4277
1992.47	14.4096
1992.62	10.6511
1992.76	14.4031
1992.91	14.3986
1993.06	13.1258
1993.2	15.6019
1993.35	11.8506
1993.5	15.6173
1993.64	14.4071
1993.79	11.8972
1993.93	9.38983
1994.08	13.1279
1994.23	15.5895
1994.37	14.3352
1994.52	10.5895
1994.67	13.1012
1994.81	13.1318
1994.96	15.6358
1995.1	10.6345
1995.25	14.3673
1995.4	11.8498
1995.54	13.1202
1995.69	13.1226
1995.84	13.1317
1995.98	11.8937
1996.13	13.1355
1996.27	15.6193
1996.42	11.8654
1996.57	13.1174
1996.71	13.1113
1996.86	15.6071
1997.01	11.8821
1997.15	14.4134
1997.3	13.1727
1997.44	13.1544
1997.59	11.8985
1997.74	13.1494
1997.88	14.4084
1998.03	14.4149
1998.17	14.4015
1998.32	14.3859
1998.46	13.1191
1998.61	13.1273
1998.76	13.1266
1998.9	14.3626
1999.05	11.854
1999.2	13.1232
1999.34	13.1327
1999.49	13.1385
1999.63	13.1218
1999.78	13.1205
1999.93	13.1125
2000.07	11.8414
2000.22	11.8614
2000.36	11.8639
2000.51	13.1225
2000.66	11.8547
2000.8	13.1219
2000.95	15.656
2001.09	11.8551
2001.24	11.8552
2001.39	14.3953
2001.53	13.1523
2001.68	14.3756
2001.82	14.3932
2001.97	14.39
2002.12	14.403
2002.26	13.129
2002.41	15.6155
2002.55	14.3519
2002.7	14.3515
2002.84	15.6109
2002.99	13.1109
2003.14	14.367
2003.28	14.3823
2003.43	15.6015
2003.57	14.3668
2003.72	14.3951
2003.87	11.8675
2004.01	13.1196
2004.16	11.8942
2004.3	10.649
2004.45	14.3913
2004.59	13.1162
2004.74	13.1014
2004.89	14.3524
2005.03	11.8551
2005.18	15.5917
2005.32	13.095
2005.47	15.5944
2005.61	14.3552
2005.76	14.3451
2005.91	14.3283
2006.05	15.5894
2006.2	14.3553
2006.34	13.1296
2006.49	9.3673
2006.63	13.0932
2006.78	13.1112
2006.93	14.3613
2007.07	13.0911
2007.22	13.0874
2007.36	14.357
2007.51	14.3802
2007.65	13.1324
2007.8	13.1205
2007.95	10.6049
2008.09	15.602
2008.24	11.8478
2008.38	14.3258
2008.53	10.6126
2008.67	14.3149
2008.82	14.3584
2008.97	14.3915
2009.11	10.6251
2009.26	15.6225
2009.4	11.8572
2009.55	15.5756
2009.69	10.5979
2009.84	13.1188
2009.99	13.1091
2010.13	13.1326
2010.28	13.1217
2010.42	11.856
2010.57	13.0945
2010.71	15.5936
2010.86	15.6256
2011	16.9128
2011.15	11.888
2011.3	11.8706
2011.44	11.8799
2011.59	15.621
2011.73	13.089
2011.88	15.596
2012.02	13.0909
2012.17	14.3318
2012.31	13.1087
2012.46	14.3974
2012.6	15.6586
2012.75	11.8496
2012.9	10.6007
2013.04	15.5805
2013.19	10.5994
2013.33	11.8735
2013.48	14.3696
2013.62	11.8951
2013.77	11.9088
2013.91	10.65
2014.06	14.4105
2014.2	14.4336
2014.35	13.1766
2014.5	11.9057
2014.64	18.1573
2014.79	13.1514
2014.93	11.9062
2015.08	15.6483
2015.22	11.879
2015.37	14.3833
2015.51	14.3894
2015.66	13.1485
2015.8	14.4138
2015.95	14.4013
2016.09	14.4104
2016.24	11.9099
2016.38	14.3991
2016.53	14.3924
2016.68	13.1344
2016.82	14.3902
2016.97	14.4023
2017.11	11.8952
2017.26	13.1308
2017.4	11.8673
2017.55	13.1048
2017.69	11.8685
2017.84	14.3765
2017.98	13.1203
2018.13	15.5981
2018.27	11.8672
2018.42	13.1348
2018.56	13.1356
2018.71	13.1161
2018.85	15.6051
2019	13.1036
2019.14	11.8556
2019.29	14.3517
2019.44	14.3572
2019.58	13.1209
2019.72	9.37154
2019.87	13.1114
2020.01	14.3825
2020.16	11.883
2020.31	14.3679
2020.45	13.1498
2020.6	14.373
2020.74	11.8569
2020.89	13.1007
2021.03	10.6271
2021.18	14.3498
2021.32	14.3655
2021.47	14.3908
2021.61	13.1041
2021.76	14.3775
2021.9	11.8887
2022.05	15.6219
2022.19	11.8693
2022.34	14.387
2022.48	13.1418
2022.63	13.1273
2022.77	10.6461
2022.92	11.9107
2023.06	14.3541
2023.21	14.385
2023.35	10.6479
2023.5	18.1705
2023.64	13.1543
2023.79	16.9259
2023.93	15.6668
2024.08	10.665
2024.22	10.6534
2024.37	15.6581
2024.51	15.6739
2024.66	14.4302
2024.8	11.9096
2024.95	11.8991
2025.09	11.8874
2025.24	13.1496
2025.38	11.9001
2025.53	11.8809
2025.67	14.3827
2025.82	16.9025
2025.96	13.1697
2026.11	14.4024
2026.25	10.6447
2026.4	13.1652
2026.54	13.1639
2026.69	14.4167
2026.83	11.8961
2026.98	15.664
2027.12	13.1737
2027.27	14.4122
2027.41	10.6586
2027.55	13.1831
2027.7	11.9265
2027.85	14.4097
2027.99	13.1308
2028.14	13.1431
2028.28	15.6434
2028.42	14.4223
2028.57	15.6791
2028.71	13.1684
2028.86	14.4397
2029	15.6761
2029.15	14.4054
2029.29	14.4135
2029.44	11.9069
2029.58	13.1665
2029.73	13.1725
2029.87	14.4442
2030.02	11.9378
2030.16	13.1686
2030.31	14.3952
2030.45	14.3899
2030.6	13.1702
2030.74	13.1892
2030.89	13.1778
2031.03	13.1726
2031.17	13.1735
2031.32	14.4191
2031.46	13.1704
2031.61	10.6594
2031.75	14.4074
2031.9	11.9286
2032.04	13.1928
2032.19	13.1855
2032.33	11.9219
2032.48	11.9089
2032.62	15.6821
2032.76	13.1806
2032.91	13.1962
2033.05	13.2113
2033.2	15.7284
2033.34	13.1828
2033.49	14.4426
2033.63	13.2142
2033.78	14.4765
2033.92	13.2038
2034.07	13.1879
2034.21	13.1854
2034.36	14.4689
2034.5	11.9541
2034.64	13.2089
2034.79	15.6877
2034.93	14.4359
2035.08	14.4432
2035.22	14.4447
2035.37	14.4533
2035.51	14.4682
2035.66	14.4718
2035.8	16.968
2035.95	10.6835
2036.09	11.9472
2036.23	14.4442
2036.38	13.1752
2036.52	16.9384
2036.67	13.1801
2036.81	14.449
2036.96	13.2185
2037.1	15.7426
2037.25	11.9557
2037.39	14.4625
2037.53	14.4771
2037.68	11.9708
2037.82	13.2254
2037.97	14.4755
2038.11	15.7385
2038.26	14.4905
2038.4	13.233
2038.54	14.5059
2038.69	13.2567
2038.83	14.5165
2038.98	10.7226
2039.12	13.2349
2039.27	14.5048
2039.41	14.5161
2039.56	15.7855
2039.7	13.2518
2039.84	13.2391
2039.99	13.2089
2040.13	14.4597
2040.28	15.7231
2040.42	14.4593
2040.57	14.4546
2040.71	11.9544
2040.85	11.9615
2041	9.44518
2041.14	14.4828
2041.29	13.2092
2041.43	14.453
2041.58	10.706
2041.72	15.7544
2041.86	14.4759
2042.01	11.9319
2042.15	15.7033
2042.3	13.2354
2042.44	14.5084
2042.59	13.2311
2042.73	14.4606
2042.87	14.4799
2043.02	11.9523
2043.16	13.2186
2043.31	13.2318
2043.45	14.5066
2043.59	13.2477
2043.74	13.2481
2043.88	13.2397
2044.03	11.9818
2044.17	17.0172
2044.32	13.1852
2044.46	14.4639
2044.6	11.9639
2044.75	13.1635
2044.89	14.4307
2045.04	14.437
2045.18	11.9813
2045.32	14.4758
2045.47	13.2262
2045.61	11.9703
2045.76	13.2046
2045.9	13.239
2046.04	14.474
2046.19	13.2029
2046.33	11.9379
2046.48	20.7943
2046.62	14.5101
2046.76	13.2411
2046.91	15.7896
2047.05	12.0087
2047.2	14.5248
2047.34	13.2438
2047.48	13.2612
2047.63	14.5199
2047.77	14.5484
2047.92	13.2376
2048.06	14.5113
2048.2	11.9891
2048.35	15.7819
2048.49	14.5393
2048.64	14.5593
2048.78	13.2523
2048.92	14.5426
2049.07	15.8047
2049.21	14.5198
2049.36	14.5205
2049.5	14.5297
2049.64	12.0061
2049.79	13.2636
2049.93	14.5248
2050.08	14.5237
2050.22	13.2589
2050.36	14.5231
2050.51	15.7942
2050.65	13.2667
2050.79	14.5363
2050.94	14.5399
2051.08	14.5035
2051.23	14.5089
2051.37	14.5248
2051.51	13.2618
2051.66	14.5245
2051.8	17.0972
2051.95	10.7909
2052.09	14.5737
2052.23	14.5485
2052.38	13.2655
2052.52	14.4949
2052.66	13.2499
2052.81	14.5365
2052.95	13.292
2053.1	10.7881
2053.24	10.7938
2053.38	13.3238
2053.53	10.7705
2053.67	14.5327
2053.81	14.508
2053.96	13.2485
2054.1	13.276
2054.24	13.2929
2054.39	14.5529
2054.53	14.5429
2054.68	12.0046
2054.82	13.2633
2054.96	14.5213
2055.11	9.47004
2055.25	13.2639
2055.4	14.5422
2055.54	15.8284
2055.68	13.2782
2055.83	13.2668
2055.97	15.8046
2056.11	12.0273
2056.26	15.8431
2056.4	14.586
2056.54	10.7804
2056.69	15.8318
2056.83	13.2842
2056.97	13.274
2057.12	15.761
2057.26	11.9952
2057.41	13.2797
2057.55	13.3074
2057.69	10.7814
2057.84	12.062
2057.98	13.3436
2058.12	14.5883
2058.27	14.5902
2058.41	14.5787
2058.55	12.0305
2058.7	14.565
2058.84	15.843
2058.98	14.5696
2059.13	13.3013
2059.27	13.2849
2059.41	13.2879
2059.56	13.2995
2059.7	13.2894
2059.85	14.5789
2059.99	14.5841
2060.13	12.0407
2060.28	13.3157
2060.42	15.8683
2060.56	14.5856
2060.71	10.7838
2060.85	14.6172
2060.99	12.0664
2061.14	13.3697
2061.28	14.6168
2061.42	15.8994
2061.57	14.663
2061.71	13.3835
2061.85	14.6449
2062	13.3324
2062.14	13.3449
2062.28	13.3498
2062.43	15.8829
2062.57	14.6649
2062.71	15.9021
2062.86	13.3488
2063	12.0949
2063.14	13.3433
2063.29	13.3106
2063.43	13.2824
2063.57	13.2954
2063.72	13.3407
2063.86	13.3349
2064	13.3306
2064.15	14.6148
2064.29	12.0529
2064.43	15.8687
2064.58	15.8981
2064.72	13.3511
2064.86	13.363
2065.01	12.0959
2065.15	14.615
2065.29	15.8754
2065.44	15.8786
2065.58	14.583
2065.72	14.632
2065.87	12.0774
2066.01	13.329
2066.15	14.6504
2066.29	13.3838
2066.44	13.3555
2066.58	12.0777
2066.72	13.338
2066.87	13.3459
2067.01	12.0964
2067.15	13.364
2067.3	13.3924
2067.44	13.3676
2067.58	14.6431
2067.73	14.5975
2067.87	15.863
2068.01	14.5817
2068.16	13.3786
2068.3	13.3867
2068.44	13.3644
2068.59	13.3399
2068.73	13.3378
2068.87	10.8092
2069.01	14.6116
2069.16	18.4186
2069.3	13.3417
2069.44	8.26935
2069.59	12.0919
2069.73	13.3608
2069.87	14.6206
2070.02	10.7957
2070.16	12.0879
2070.3	12.0961
2070.45	10.8172
2070.59	14.6532
2070.73	13.4026
2070.87	14.6526
2071.02	12.0997
2071.16	13.3742
2071.3	12.0876
2071.45	15.9313
2071.59	13.3737
2071.73	14.6799
2071.88	13.3848
2072.02	17.1797
2072.16	12.0714
2072.3	20.9824
2072.45	13.367
2072.59	14.6322
2072.73	14.6573
2072.88	13.3766
2073.02	12.1066
2073.16	14.6425
2073.3	12.0994
2073.45	15.9026
2073.59	12.0879
2073.73	15.9234
2073.88	10.8503
2074.02	10.8534
2074.16	14.6788
2074.3	17.2316
2074.45	13.402
2074.59	15.9422
2074.73	14.6434
2074.88	15.9339
2075.02	18.512
2075.16	12.1471
2075.3	12.1457
2075.45	13.4086
2075.59	14.6547
2075.73	13.3697
2075.88	14.6599
2076.02	14.6704
2076.16	13.4084
2076.3	10.8652
2076.45	15.989
2076.59	13.4144
2076.73	12.1226
2076.88	14.6797
2077.02	13.3952
2077.16	12.1091
2077.3	17.2237
2077.45	13.4033
2077.59	13.4047
2077.73	10.8618
2077.87	12.1327
2078.02	14.676
2078.16	13.4004
2078.3	13.4208
2078.44	14.7134
2078.59	13.4177
2078.73	13.426
2078.87	14.7244
2079.02	12.15
2079.16	14.6924
2079.3	14.7043
2079.44	13.424
2079.59	14.7013
2079.73	8.32419
2079.87	16.0136
2080.01	14.724
2080.16	13.4604
2080.3	16.0205
2080.44	14.738
2080.58	14.7517
2080.73	14.7402
2080.87	14.7198
2081.01	14.6995
2081.16	13.4138
2081.3	12.1392
2081.44	14.7196
2081.58	16.0011
2081.73	13.4416
2081.87	13.4555
2082.01	13.4598
2082.15	16.0088
2082.29	14.7136
2082.44	13.4303
2082.58	13.4486
2082.72	14.7267
2082.86	13.4248
2083.01	18.5097
2083.15	13.4209
2083.29	13.421
2083.43	12.1389
2083.58	10.8746
2083.72	14.7198
2083.86	14.7282
2084	14.7273
2084.15	13.4561
2084.29	13.4572
2084.43	16.02
2084.57	16.0002
2084.72	15.982
2084.86	9.60834
2085	13.453
2085.14	13.4506
2085.29	14.7431
2085.43	12.2042
2085.57	16.0722
2085.71	13.5055
2085.86	14.8007
2086	12.2169
2086.14	12.2415
2086.28	16.0834
2086.43	14.7675
2086.57	13.4735
2086.71	13.493
2086.85	14.7393
2086.99	10.9061
2087.14	13.4772
2087.28	13.4978
2087.42	14.7698
2087.56	16.025
2087.71	13.4763
2087.85	14.7403
2087.99	16.0555
2088.13	10.9286
2088.28	12.2086
2088.42	13.5015
2088.56	12.1947
2088.7	14.7649
2088.84	14.7535
2088.99	16.0624
2089.13	14.7867
2089.27	16.0966
2089.41	14.7875
2089.56	13.4857
2089.7	14.7745
2089.84	13.4413
2089.98	14.7498
2090.12	14.7449
2090.27	13.5119
2090.41	13.5304
2090.55	12.2434
2090.69	10.936
2090.84	14.7831
2090.98	13.4654
2091.12	12.1913
2091.26	14.7717
2091.4	12.2167
2091.55	10.921
2091.69	13.4932
2091.83	13.4821
2091.97	17.3108
2092.11	16.0603
2092.26	16.0499
2092.4	16.0667
2092.54	12.2228
2092.68	14.8181
2092.82	14.8129
2092.97	12.2186
2093.11	13.5115
2093.25	12.2078
2093.39	13.5232
2093.53	14.8272
2093.68	13.5129
2093.82	16.1372
2093.96	13.5788
2094.1	17.4339
2094.24	16.0894
2094.39	10.9262
2094.53	16.0913
2094.67	13.5368
2094.81	12.2507
2094.95	14.8598
2095.1	12.2669
2095.24	14.8106
2095.38	13.5089
2095.52	14.7959
2095.66	14.7864
2095.81	17.3745
2095.95	16.1196
2096.09	14.8398
2096.23	14.8505
2096.37	12.2589
2096.52	12.2334
2096.66	13.537
2096.8	14.8446
2096.94	10.9602
2097.08	13.5433
2097.23	9.67199
2097.37	14.8149
2097.51	14.875
2097.65	16.1382
2097.79	12.2454
2097.93	16.1308
2098.08	14.8483
2098.22	14.8645
2098.36	11.0016
2098.5	13.6022
2098.64	14.8651
2098.79	17.4467
2098.93	14.824
2099.07	14.8253
2099.21	14.8271
2099.35	13.5734
2099.49	10.9943
2099.64	17.446
2099.78	14.8491
2099.92	17.4319
2100.06	14.8336
2100.2	13.5686
2100.34	14.8463
2100.49	14.8251
2100.63	14.8496
2100.77	14.8584
2100.91	13.5852
2101.05	9.70542
2101.2	12.2745
2101.34	14.8703
2101.48	9.69183
2101.62	14.8508
2101.76	14.842
2101.9	13.5395
2102.05	13.5499
2102.19	13.582
2102.33	14.8598
2102.47	21.33
2102.61	14.8649
2102.75	12.2879
2102.9	13.5877
2103.04	16.1667
2103.18	16.1986
2103.32	13.6
2103.46	12.2825
2103.6	14.8759
2103.75	13.5827
2103.89	13.599
2104.03	16.1821
2104.17	13.5817
2104.31	16.1598
2104.45	10.9818
2104.59	13.5682
2104.74	12.2803
2104.88	12.2612
2105.02	14.8444
2105.16	14.8957
2105.3	12.2996
2105.44	14.9053
2105.59	13.6149
2105.73	12.3003
2105.87	16.1745
2106.01	17.4541
2106.15	13.56
2106.29	13.5697
2106.43	14.9067
2106.58	12.3095
2106.72	16.1918
2106.86	16.2128
2107	14.9008
2107.14	13.6127
2107.28	14.8803
2107.43	12.2783
2107.57	16.2098
2107.71	17.5513
2107.85	13.658
2107.99	11.0389
2108.13	14.9238
2108.27	13.6041
2108.42	16.1804
2108.56	14.9348
2108.7	13.6344
2108.84	12.3262
2108.98	14.9472
2109.12	12.3435
2109.26	16.222
2109.4	14.9412
2109.55	12.3226
2109.69	13.6106
2109.83	14.9045
2109.97	14.9243
2110.11	12.3611
2110.25	15.0064
2110.39	14.993
2110.54	14.9763
2110.68	12.3463
2110.82	13.607
2110.96	16.2014
2111.1	14.9348
2111.24	13.6686
2111.38	12.376
2111.52	13.6815
2111.67	12.3702
2111.81	16.256
2111.95	13.6691
2112.09	13.7126
2112.23	12.405
2112.37	13.7115
2112.51	14.9997
2112.65	17.5938
2112.79	16.301
2112.94	13.6508
2113.08	14.9219
2113.22	16.2283
2113.36	14.9568
2113.5	11.0644
2113.64	9.77151
2113.78	16.2621
2113.93	13.6372
2114.07	16.2337
2114.21	16.2488
2114.35	17.5582
2114.49	12.3519
2114.63	16.2545
2114.77	13.6831
2114.91	12.375
2115.05	13.6361
2115.2	13.6254
2115.34	13.6377
2115.48	13.6564
2115.62	13.6527
2115.76	13.6559
2115.9	12.3788
2116.04	16.3071
2116.18	14.984
2116.32	12.3501
2116.46	14.9421
2116.61	14.9716
2116.75	12.4124
2116.89	15.0254
2117.03	14.9855
2117.17	15.0011
2117.31	15.0152
2117.45	17.5999
2117.59	9.75964
2117.73	13.6641
2117.87	13.7075
2118.02	16.3301
2118.16	13.7086
2118.3	15.031
2118.44	15.0469
2118.58	16.3384
2118.72	15.0091
2118.86	17.6083
2119	13.6907
2119.14	14.9974
2119.28	12.4257
2119.43	15.0293
2119.57	12.3989
2119.71	12.3904
2119.85	14.9882
2119.99	14.9925
2120.13	17.6295
2120.27	11.1301
2120.41	15.0827
2120.55	16.3726
2120.69	13.736
2120.83	15.022
2120.98	13.712
2121.12	13.728
2121.26	15.039
2121.4	17.6553
2121.54	15.0631
2121.68	13.7761
2121.82	16.417
2121.96	13.7857
2122.1	13.7614
2122.24	16.3616
2122.38	13.7458
2122.52	16.388
2122.66	11.1379
2122.81	13.7453
2122.95	13.7348
2123.09	15.0624
2123.23	15.0662
2123.37	15.0332
2123.51	15.0396
2123.65	15.052
2123.79	12.4386
2123.93	12.4445
2124.07	15.0723
2124.21	11.144
2124.35	17.6807
2124.49	13.7599
2124.64	13.7815
2124.78	11.1415
2124.92	13.7901
2125.06	13.7863
2125.2	16.3758
2125.34	16.3543
2125.48	12.4587
2125.62	15.0734
2125.76	12.4469
2125.9	15.0448
2126.04	9.81664
2126.18	15.0788
2126.32	15.0887
2126.46	15.1103
2126.6	13.7701
2126.75	13.7913
2126.89	17.7
2127.03	13.7532
2127.17	13.7692
2127.31	13.7895
2127.45	15.1108
2127.59	11.1905
2127.73	16.4358
2127.87	13.8071
2128.01	16.3875
2128.15	15.0352
2128.29	13.7492
2128.43	16.3846
2128.57	15.0687
2128.71	15.1163
2128.85	13.8166
2129	13.786
2129.14	21.6307
2129.28	13.8011
2129.42	13.8107
2129.56	16.4463
2129.7	12.4905
2129.84	13.8078
2129.98	15.0919
2130.12	13.7881
2130.26	15.1071
2130.4	13.8023
2130.54	13.7766
2130.68	11.1668
2130.82	13.8154
2130.96	15.1193
2131.1	13.8238
2131.24	13.8348
2131.38	13.7971
2131.52	12.4903
2131.66	16.4057
2131.8	16.4185
2131.94	13.8093
2132.08	12.5065
2132.23	15.1499
2132.37	15.1224
2132.51	13.7912
2132.65	12.5051
2132.79	11.1837
2132.93	13.8285
2133.07	16.4939
2133.21	17.7955
2133.35	13.8488
2133.49	15.1791
2133.63	16.4943
2133.77	13.82
2133.91	15.0893
2134.05	15.1008
2134.19	13.8167
2134.33	16.5025
2134.47	12.5338
2134.61	15.1462
2134.75	15.1499
2134.89	11.1845
2135.03	13.8002
2135.17	11.1774
2135.31	12.4992
2135.45	15.1869
2135.59	13.821
2135.73	12.5038
2135.87	12.5113
2136.01	13.8318
2136.15	13.8082
2136.29	13.8344
2136.43	11.2412
2136.57	13.8724
2136.71	13.8835
2136.85	12.5478
2136.99	13.831
2137.13	15.133
2137.27	16.4549
2137.41	12.5036
2137.55	13.879
2137.7	16.4204
2137.84	13.8945
2137.98	16.3444
2138.12	13.9526
2138.26	16.3223
2138.4	13.8542
2138.54	16.1364
2138.68	15.0624
2138.82	12.7314
2138.96	13.9163
2139.1	15.0738
2139.24	14.1287
2139.38	15.2511
2139.52	15.2125
2139.66	16.0458
2139.8	14.8983
2139.94	14.8925
2140.08	15.9478
2140.22	15.1457
2140.36	13.1775
2140.5	14.2005
2140.64	14.9259
2140.78	16.0659
2140.92	15.6411
2141.06	15.4091
2141.2	15.2986
2141.34	15.0881
2141.48	12.1044
2141.62	15.0631
2141.76	15.7751
2141.9	16.4376
2142.04	13.6047
2142.18	14.5102
2142.32	14.1825
2142.46	14.9405
2142.6	14.9888
2142.74	12.9123
2142.88	14.4534
2143.02	14.7383
2143.16	14.7379
2143.3	13.749
2143.44	15.1504
2143.58	14.6648
2143.72	13.6462
2143.86	14.5291
2144	14.0958
2144.14	15.132
2144.28	13.641
2144.42	14.1826
2144.55	14.627
2144.69	15.4279
2144.83	15.8363
2144.97	14.7122
2145.11	15.0532
2145.25	13.7299
2145.39	13.3543
2145.53	14.135
2145.67	14.7193
2145.81	14.7268
2145.95	15.6121
2146.09	15.1829
2146.23	14.4682
2146.37	16.0967
2146.51	15.2191
2146.65	15.197
2146.79	12.5945
2146.93	15.2372
2147.07	13.3199
2147.21	12.6017
2147.35	15.1046
2147.49	15.5344
2147.63	15.5211
2147.77	15.9372
2147.91	14.4987
2148.05	16.0366
2148.19	15.2226
2148.33	13.0445
2148.47	12.2415
2148.61	14.6482
2148.75	14.3614
2148.89	15.6507
2149.03	16.5634
2149.17	15.6083
2149.31	14.419
2149.45	14.0163
2149.59	13.8229
2149.73	13.241
2149.86	11.883
2150	13.6154
2150.14	15.2054
2150.2	15.2366
2150.35	15.2311
2150.49	15.2383
2150.63	13.9385
2150.77	15.2736
2150.91	12.615
2151.06	12.6127
2151.2	13.9309
2151.34	15.2401
2151.48	15.2406
2151.62	11.2921
2151.77	13.9711
2151.91	13.9847
2152.05	11.3082
2152.19	15.2828
2152.34	13.9437
2152.48	16.5671
2152.62	17.9084
2152.76	12.6196
2152.9	15.319
2153.04	14.0116
2153.19	13.971
2153.33	13.9593
2153.47	13.9301
2153.61	15.2432
2153.75	15.2579
2153.9	13.9347
2154.04	15.3096
2154.18	13.9628
2154.32	12.6541
2154.47	13.9504
2154.61	15.2854
2154.75	17.9271
2154.89	13.9484
2155.03	12.6358
2155.17	13.9639
2155.32	16.6664
2155.46	15.3115
2155.6	13.9418
2155.74	13.9514
2155.88	16.5934
2156.03	13.9647
2156.17	12.6381
2156.31	13.9795
2156.45	16.6656
2156.59	14.0025
2156.74	16.6479
2156.88	16.6277
2157.02	13.9513
2157.16	13.9294
2157.3	15.2814
2157.44	13.9663
2157.59	12.661
2157.73	16.6401
2157.87	12.6308
2158.01	13.9538
2158.15	12.6194
2158.29	11.2733
2158.44	15.2802
2158.58	12.6424
2158.72	12.6334
2158.86	13.9877
2159	15.3322
2159.15	13.974
2159.29	11.3155
2159.43	16.6481
2159.57	14.0026
2159.71	16.6687
2159.85	15.3339
2160	15.3282
2160.14	15.3178
2160.28	15.311
2160.42	13.9639
2160.56	15.2898
2160.7	15.3163
2160.85	23.3521
2160.99	16.7007
2161.13	15.36
2161.27	15.3607
2161.41	16.6775
2161.55	12.6402
2161.7	12.64
2161.84	20.6375
2161.98	15.3324
2162.12	15.3679
2162.26	14.0266
2162.4	14.0228
2162.55	13.985
2162.69	15.2967
2162.83	13.941
2162.97	15.3027
2163.11	13.9938
2163.25	12.6801
2163.4	18.0416
2163.54	15.3176
2163.68	16.6546
2163.82	16.6492
2163.96	14.0321
2164.1	14.0503
2164.24	15.2964
2164.39	12.675
2164.53	14.0053
2164.67	15.3377
2164.81	14.033
2164.95	15.3323
2165.09	14.0078
2165.24	19.3345
2165.38	16.6654
2165.52	14.0172
2165.66	14.0181
2165.8	11.3426
2165.94	14.0071
2166.08	14.0036
2166.23	12.6716
2166.37	15.3256
2166.51	16.6557
2166.65	13.9923
2166.79	16.667
2166.93	11.3298
2167.07	16.6638
2167.22	11.3227
2167.36	15.3103
2167.5	16.6463
2167.64	15.3008
2167.78	15.3179
2167.92	16.6805
2168.06	14.0179
2168.2	15.3558
2168.35	11.3421
2168.49	17.9922
2168.63	13.9826
2168.77	15.3163
2168.91	15.3274
2169.05	12.6786
2169.19	14.0379
2169.34	15.3864
2169.48	15.3625
2169.62	13.9972
2169.76	13.9899
2169.9	15.3083
2170.04	15.3386
2170.18	14.0199
2170.33	16.6901
2170.47	14.0173
2170.61	14.0075
2170.75	15.3395
2170.89	13.9902
2171.03	12.658
2171.17	12.6433
2171.31	10.0046
2171.46	16.6999
2171.6	15.3277
2171.74	15.312
2171.88	14.0335
2172.02	16.6719
2172.16	14.0065
2172.3	15.3456
2172.44	15.3784
2172.58	16.7082
2172.73	12.7265
2172.87	16.7233
2173.01	16.6617
2173.15	15.3154
2173.29	13.9748
2173.43	15.3234
2173.57	14.0045
2173.71	15.3609
2173.86	12.6895
2174	15.3505
2174.14	14.0442
2174.28	12.6991
2174.42	15.3458
2174.56	15.3552
2174.7	16.6763
2174.84	15.399
2174.98	14.051
2175.13	12.6921
2175.27	16.676
2175.41	12.6588
2175.55	16.6543
2175.69	12.6678
2175.83	15.3933
2175.97	16.7302
2176.11	16.6909
2176.25	14.0116
2176.4	16.6796
2176.54	5.99817
2176.68	15.3277
2176.82	13.9856
2176.96	15.3073
2177.1	13.99
2177.24	11.3317
2177.38	16.6649
2177.52	14.0093
2177.66	13.9887
2177.8	11.3138
2177.95	15.3017
2178.09	16.6427
2178.23	14.0241
2178.37	16.7243
2178.51	16.7116
2178.65	15.3912
2178.79	14.0279
2178.93	15.3186
2179.07	13.9898
2179.21	12.6672
2179.35	12.704
2179.5	15.3588
2179.64	14.0071
2179.78	15.3435
2179.92	14.0059
2180.06	13.9884
2180.2	13.9648
2180.34	13.9707
2180.48	15.3518
2180.62	16.699
2180.76	16.6852
2180.9	14.0228
2181.05	15.3783
2181.19	14.0051
2181.33	11.3158
2181.47	14.0233
2181.61	18.0628
2181.75	14.0341
2181.89	16.699
2182.03	14.0352
2182.17	15.3312
2182.31	11.3389
2182.45	13.9639
2182.59	16.6464
2182.73	14.0243
2182.88	16.7012
2183.02	12.6687
2183.16	13.9993
2183.3	15.3401
2183.44	14.0243
2183.58	12.6567
2183.72	16.633
2183.86	14.0426
2184	16.7044
2184.14	12.7004
2184.28	16.7062
2184.42	16.6455
2184.56	13.9442
2184.71	12.6314
2184.85	21.9566
2184.99	11.3136
2185.13	12.6755
2185.27	15.3622
2185.41	12.6675
2185.55	15.3247
2185.69	15.353
2185.83	16.683
2185.97	14.0046
2186.11	16.7067
2186.25	12.6859
2186.39	15.3614
2186.53	15.3915
2186.67	16.7177
2186.81	15.3874
2186.96	14.0539
2187.1	12.6839
2187.24	12.6788
2187.38	16.7096
2187.52	15.3664
2187.66	15.3544
2187.8	12.6818
2187.94	16.6677
2188.08	12.668
2188.22	16.6781
2188.36	16.6834
2188.5	15.3572
2188.64	12.6873
2188.78	14.0027
2188.92	15.3255
2189.06	11.3417
2189.2	15.3591
2189.34	16.6891
2189.48	16.6834
2189.63	16.6801
2189.77	12.6713
2189.91	12.6766
2190.05	12.6845
2190.19	14.0351
2190.33	14.0319
2190.47	14.0305
2190.61	12.6765
2190.75	14.0307
2190.89	12.7036
2191.03	12.695
2191.17	11.3482
2191.31	15.3717
2191.45	12.6811
2191.59	14.0153
2191.73	13.9969
2191.87	15.3365
2192.01	15.3805
2192.15	15.3354
2192.29	15.3366
2192.43	16.6872
2192.57	14.0084
2192.71	12.6836
2192.85	19.3506
2192.99	15.3737
2193.13	15.3901
2193.28	15.3778
2193.42	19.3649
2193.56	15.3782
2193.7	14.02
2193.84	18.0058
2193.98	14.0355
2194.12	11.3626
2194.26	16.6866
2194.4	16.6724
2194.54	12.7094
2194.68	14.0413
2194.82	14.0264
2194.96	15.3872
2195.1	14.0248
2195.24	13.9898
2195.38	16.6654
2195.52	14.0129
2195.66	14.0291
2195.8	14.0324
2195.94	15.3522
2196.08	16.6931
2196.22	12.6969
2196.36	15.3476
2196.5	15.3219
2196.64	14.0091
2196.78	11.369
2196.92	14.0466
2197.06	14.0288
2197.2	14.0382
2197.34	15.3645
2197.48	15.3364
2197.62	14.0142
2197.76	14.0341
2197.9	15.3903
2198.04	14.0342
2198.18	12.6848
2198.32	12.6858
2198.46	12.6891
2198.6	18.0491
2198.74	13.9972
2198.88	15.3104
2199.02	12.7018
2199.16	12.7404
2199.3	14.0659
2199.44	12.7215
2199.58	18.0422
2199.72	16.669
2199.86	15.3253
2200	16.6633
2200.14	12.6837
2200.28	14.0252
2200.42	12.7164
2200.56	15.3968
2200.7	16.6944
2200.84	11.3457
2200.98	15.3786
2201.12	19.3477
2201.26	14.0165
2201.4	12.6845
2201.54	14.0552
2201.68	15.3885
2201.82	14.0644
2201.96	12.6988
2202.1	13.9885
2202.24	16.698
2202.38	12.6912
2202.52	12.6853
2202.66	14.058
2202.8	15.3814
2202.94	14.0197
2203.08	12.6973
2203.22	14.0107
2203.36	15.345
2203.5	14.0311
2203.64	14.0348
2203.78	18.044
2203.92	14.0519
2204.06	14.0418
2204.2	15.3295
2204.34	16.6597
2204.48	13.9947
2204.62	13.9915
2204.76	16.6859
2204.9	12.6686
2205.04	18.0269
2205.18	16.7143
2205.32	15.3387
2205.46	12.6574
2205.6	15.3848
2205.74	14.0517
2205.88	15.3518
2206.02	15.3713
2206.16	12.7404
2206.3	15.4252
2206.44	12.7081
2206.58	14.0362
2206.72	15.3828
2206.86	16.7145
2207	15.3824
2207.14	14.0475
2207.28	15.3863
2207.42	12.7103
2207.56	14.0283
2207.7	15.3415
2207.84	11.3513
2207.98	14.0442
2208.12	15.3929
2208.26	12.7134
2208.4	12.7025
2208.54	19.4042
2208.68	16.7446
2208.81	12.6917
2208.95	15.3541
2209.09	14.0377
2209.23	12.7093
2209.37	16.7382
2209.51	15.4066
2209.65	16.7359
2209.79	16.7257
2209.93	16.7417
2210.07	16.735
2210.21	15.3717
2210.35	14.0269
2210.49	14.048
2210.63	12.7354
2210.77	14.0756
2210.91	12.7254
2211.05	15.4011
2211.19	15.4256
2211.33	14.0664
2211.47	14.0597
2211.61	16.7592
2211.75	15.4153
2211.89	16.7555
2212.03	16.7259
2212.17	14.033
2212.31	12.6965
2212.44	16.7051
2212.58	15.3783
2212.72	16.7562
2212.86	12.7565
2213	15.4215
2213.14	14.0576
2213.28	14.0527
2213.42	16.737
2213.56	12.7086
2213.7	15.3871
2213.84	12.7443
2213.98	12.7433
2214.12	16.7633
2214.26	15.4219
2214.4	14.0705
2214.54	14.1072
2214.68	15.468
2214.82	15.439
2214.96	14.1272
2215.09	15.4173
2215.23	14.0738
2215.37	11.4195
2215.51	15.433
2215.65	14.0813
2215.79	14.1019
2215.93	14.0821
2216.07	15.4447
2216.21	12.7372
2216.35	16.7861
2216.49	18.1394
2216.63	14.1203
2216.77	11.4267
2216.91	16.7594
2217.05	15.4132
2217.19	11.3912
2217.32	15.4131
2217.46	12.7405
2217.6	15.4245
2217.74	12.7472
2217.88	12.7611
2218.02	14.1131
2218.16	15.4361
2218.3	16.7793
2218.44	14.117
2218.58	12.775
2218.72	16.8158
2218.86	12.7849
2219	12.77
2219.13	15.458
2219.27	16.8153
2219.41	14.1073
2219.55	22.1466
2219.69	14.0921
2219.83	12.7567
2219.97	12.7648
2220.11	15.4664
2220.25	15.4723
2220.39	11.432
2220.53	16.7802
2220.67	15.4402
2220.8	11.4345
2220.94	15.4933
2221.08	14.1471
2221.22	15.5006
2221.36	16.8677
2221.5	12.808
2221.64	15.4633
2221.78	11.4192
2221.92	15.4673
2222.06	14.1177
2222.2	15.4575
2222.33	12.8001
2222.47	12.8084
2222.61	14.164
2222.75	14.1454
2222.89	11.44
2223.03	14.1245
2223.17	16.8531
2223.31	16.8687
2223.45	15.5036
2223.59	12.7967
2223.73	15.5226
2223.86	15.5298
2224	12.7799
2224.14	15.4553
2224.28	12.8073
2224.42	14.1675
2224.56	12.7904
2224.7	14.1537
2224.84	11.4826
2224.98	14.1821
2225.12	14.1349
2225.26	18.2259
2225.39	15.5315
2225.53	15.5112
2225.67	15.5311
2225.81	14.1814
2225.95	14.1748
2226.09	14.1478
2226.23	14.1535
2226.37	14.1653
2226.51	14.1795
2226.65	15.5428
2226.78	11.4751
2226.92	15.557
2227.06	11.4675
2227.2	11.4742
2227.34	18.203
2227.48	14.1783
2227.62	12.8542
2227.76	11.4648
2227.9	16.8666
2228.03	12.8347
2228.17	20.9368
2228.31	16.9005
2228.45	15.5155
2228.59	18.2009
2228.73	16.837
2228.87	15.5295
2229.01	18.2621
2229.14	16.9062
2229.28	12.8517
2229.42	12.8494
2229.56	16.8815
2229.7	15.5294
2229.84	15.5221
2229.98	15.5307
2230.12	14.2258
2230.25	16.9676
2230.39	14.2316
2230.53	12.869
2230.67	14.2244
2230.81	14.1983
2230.95	14.1789
2231.09	14.1904
2231.23	14.2054
2231.36	12.861
2231.5	15.5837
2231.64	15.5739
2231.78	14.2077
2231.92	14.2146
2232.06	16.9317
2232.2	15.5671
2232.34	15.567
2232.47	15.5717
2232.61	15.5826
2232.75	15.5941
2232.89	14.246
2233.03	14.2216
2233.17	12.8447
2233.31	14.2082
2233.44	16.937
2233.58	15.5737
2233.72	12.8719
2233.86	14.2453
2234	8.81767
2234.14	15.5762
2234.28	12.8529
2234.41	14.2326
2234.55	18.3165
2234.69	12.8988
2234.83	15.6018
2234.97	12.8819
2235.11	14.2383
2235.25	14.2341
2235.39	14.2255
2235.52	15.5675
2235.66	15.5722
2235.8	12.8749
2235.94	12.8812
2236.08	16.9549
2236.22	15.6145
2236.36	12.8928
2236.49	12.889
2236.63	14.2409
2236.77	12.8977
2236.91	14.2664
2237.05	19.6856
2237.19	14.3042
2237.32	15.6568
2237.46	12.926
2237.6	16.9538
2237.74	15.6027
2237.88	12.8875
2238.02	15.6045
2238.15	15.6449
2238.29	15.6876
2238.43	14.2911
2238.57	11.5748
2238.71	18.3649
2238.85	12.9061
2238.99	14.2646
2239.12	15.6528
2239.26	15.647
2239.4	15.6467
2239.54	12.951
2239.68	11.5844
2239.82	15.6347
2239.95	15.6348
2240.09	15.6253
2240.23	15.6725
2240.37	14.2749
2240.51	14.2462
2240.65	12.9342
2240.78	15.6663
2240.92	14.3165
2241.06	14.3026
2241.2	18.3862
2241.34	15.6595
2241.48	18.3242
2241.61	14.3202
2241.75	17.0399
2241.89	12.9535
2242.03	14.3176
2242.17	14.3009
2242.31	14.3187
2242.44	15.6664
2242.58	14.2754
2242.72	17.0161
2242.86	15.6786
2243	14.3281
2243.14	17.0588
2243.27	14.3422
2243.41	15.6977
2243.55	10.2327
2243.69	18.4343
2243.83	8.87623
2243.96	17.0695
2244.1	15.7243
2244.24	12.9952
2244.38	14.358
2244.52	14.3256
2244.66	12.9481
2244.79	17.0683
2244.93	14.3502
2245.07	15.7016
2245.21	17.081
2245.35	12.9893
2245.48	15.7339
2245.62	15.7282
2245.76	14.3565
2245.9	13.0058
2246.04	15.7378
2246.17	14.3409
2246.31	12.9792
2246.45	10.257
2246.59	12.9992
2246.73	15.7379
2246.86	17.0978
2247	15.7444
2247.14	15.7628
2247.28	17.1279
2247.42	17.0859
2247.56	14.3308
2247.69	15.7288
2247.83	13.0259
2247.97	15.757
2248.11	12.9857
2248.25	14.3656
2248.38	15.7472
2248.52	14.3822
2248.66	17.1173
2248.8	13.0389
2248.93	11.6712
2249.07	14.4053
2249.21	15.7926
2249.35	14.4229
2249.49	13.007
2249.63	14.3685
2249.76	17.1259
2249.9	19.9124
2250.04	13.064
2250.18	18.5387
2250.31	14.3927
2250.45	14.3497
2250.59	15.7439
2250.73	13.0065
2250.87	15.7509
2251	15.7757
2251.14	17.2065
2251.28	15.8138
2251.42	14.4016
2251.56	14.3943
2251.69	14.3636
2251.83	17.1471
2251.97	17.1409
2252.11	14.3994
2252.25	13.0017
2252.38	15.7954
2252.52	15.7715
2252.66	11.6699
2252.8	17.1723
2252.93	14.4278
2253.07	19.9367
2253.21	14.4302
2253.35	14.4326
2253.49	11.6777
2253.62	13.0838
2253.76	13.0429
2253.9	15.78
2254.04	15.7525
2254.17	15.7843
2254.31	13.0459
2254.45	14.4373
2254.59	14.4482
2254.73	14.4292
2254.86	17.1797
2255	14.4364
2255.14	14.4397
2255.28	17.1594
2255.41	11.6631
2255.55	14.4725
2255.69	13.1118
2255.83	15.8419
2255.96	11.6972
2256.1	15.7789
2256.24	17.1606
2256.38	17.1652
2256.52	14.4272
2256.65	13.0644
2256.79	17.2192
2256.93	13.0853
2257.07	17.2144
2257.2	15.8625
2257.34	17.2461
2257.48	14.4454
2257.62	15.8085
2257.75	15.8179
2257.89	14.4644
2258.03	11.7303
2258.17	15.8745
2258.3	14.4569
2258.44	15.8271
2258.58	13.087
2258.72	14.4692
2258.85	11.6915
2258.99	19.9638
2259.13	15.859
2259.27	15.8845
2259.4	18.6443
2259.54	15.8845
2259.68	15.8491
2259.82	13.0998
2259.96	14.4752
2260.09	14.4949
2260.23	17.2764
2260.37	15.8902
2260.51	17.2513
2260.64	14.4949
2260.78	13.1085
2260.92	14.4848
2261.05	17.2375
2261.19	15.8666
2261.33	15.8653
2261.47	14.5013
2261.61	14.5223
2261.74	14.4999
2261.88	14.4914
2262.02	13.1047
2262.15	14.4654
2262.29	15.8597
2262.43	15.8834
2262.57	15.8766
2262.7	14.477
2262.84	14.4974
2262.98	13.1405
2263.12	14.5073
2263.25	14.4701
2263.39	15.8396
2263.53	15.8751
2263.67	14.5036
2263.8	15.9003
2263.94	13.1293
2264.08	11.7466
2264.21	15.8715
2264.35	14.5199
2264.49	15.887
2264.63	17.2726
2264.76	13.1222
2264.9	15.8909
2265.04	17.2602
2265.18	15.9104
2265.31	17.298
2265.45	14.551
2265.59	15.9026
2265.73	15.8643
2265.86	13.1222
2266	13.1336
2266.14	13.1674
2266.27	13.1629
2266.41	14.5215
2266.55	13.1323
2266.69	17.2703
2266.82	18.6614
2266.96	13.1361
2267.1	14.53
2267.24	14.5317
2267.37	13.1856
2267.51	13.1824
2267.65	11.7517
2267.78	13.1521
2267.92	14.5206
2268.06	14.4968
2268.2	17.3165
2268.33	17.3542
2268.47	15.9081
2268.61	13.187
2268.74	14.6046
2268.88	18.7432
2269.02	15.9451
2269.16	15.932
2269.29	13.1516
2269.43	15.9504
2269.57	14.5719
2269.7	15.9423
2269.84	13.1708
2269.98	17.3192
2270.12	14.5727
2270.25	13.1796
2270.39	13.1514
2270.53	13.1701
2270.66	16.0133
2270.8	14.6136
2270.94	14.6149
2271.07	17.354
2271.21	15.9618
2271.35	15.9584
2271.49	11.7982
2271.62	15.9667
2271.76	15.9652
2271.9	14.6076
2272.03	16.0296
2272.17	16.0347
2272.31	16.0134
2272.44	18.7762
2272.58	15.9914
2272.72	14.5771
2272.86	13.1623
2272.99	14.5793
2273.13	17.4105
2273.27	11.8053
2273.4	14.5852
2273.54	16.0078
2273.68	14.5692
2273.81	15.9552
2273.95	14.5876
2274.09	14.5897
2274.23	15.9825
2274.36	14.6149
2274.5	13.2286
2274.64	15.9911
2274.77	15.9556
2274.91	15.9497
2275.05	15.9345
2275.18	15.9574
2275.32	16.0163
2275.46	16.0331
2275.59	17.3998
2275.73	15.9941
2275.87	15.996
2276	14.5952
2276.14	14.6007
2276.28	17.3635
2276.41	13.2146
2276.55	16.0288
2276.69	14.6239
2276.83	16.0126
2276.96	14.6162
2277.1	13.204
2277.24	17.3559
2277.37	13.1917
2277.51	14.6002
2277.65	14.6131
2277.78	11.8257
2277.92	13.2329
2278.06	16.0279
2278.19	16
2278.33	14.585
2278.47	13.1825
2278.6	15.9743
2278.74	11.8308
2278.88	16.0276
2279.01	14.625
2279.15	15.9956
2279.29	14.581
2279.42	17.3528
2279.56	15.9653
2279.7	14.5816
2279.83	14.6014
2279.97	18.8047
2280.11	17.4345
2280.24	14.6338
2280.38	17.4054
2280.52	16.0025
2280.65	15.9989
2280.79	14.6142
2280.93	14.6088
2281.06	16.0177
2281.2	13.2282
2281.34	16.0144
2281.47	14.6053
2281.61	13.2141
2281.75	14.6222
2281.88	14.6342
2282.02	13.2448
2282.16	17.4359
2282.29	16.0589
2282.43	14.6612
2282.57	16.0341
2282.7	13.2347
2282.84	17.4107
2282.98	17.4246
2283.11	14.6303
2283.25	18.8141
2283.39	16.043
2283.52	13.2601
2283.66	20.2245
2283.79	16.0177
2283.93	15.9811
2284.07	15.9899
2284.2	16.0062
2284.34	17.3831
2284.48	14.6281
2284.61	16.0463
2284.75	14.6513
2284.89	14.6686
2285.02	14.6659
2285.16	14.6072
2285.3	15.9948
2285.43	14.6013
2285.57	18.7747
2285.71	15.9817
2285.84	14.6196
2285.98	13.2673
2286.11	17.4682
2286.25	20.2402
2286.39	14.627
2286.52	14.6044
2286.66	14.6162
2286.8	16.03
2286.93	14.6425
2287.07	11.8611
2287.21	16.0192
2287.34	13.2542
2287.48	14.6487
2287.61	15.9944
2287.75	14.5877
2287.89	15.9597
2288.02	14.6016
2288.16	13.2395
2288.3	16.0358
2288.43	16.0286
2288.57	14.6153
2288.71	13.1971
2288.84	14.5974
2288.98	15.9874
2289.11	15.987
2289.25	13.2266
2289.39	11.8579
2289.52	17.4251
2289.66	16.0801
2289.8	14.6482
2289.93	17.3719
2290.07	13.2017
2290.2	13.2163
2290.34	17.4322
2290.48	14.6646
2290.61	14.6386
2290.75	14.6664
2290.89	14.613
2291.02	14.6066
2291.16	14.5928
2291.29	14.6019
2291.43	16.0241
2291.57	13.2698
2291.7	17.4901
2291.84	14.6799
2291.97	14.6534
2292.11	13.2018
2292.25	14.5716
2292.38	14.6112
2292.52	14.5908
2292.65	13.2402
2292.79	14.6271
2292.93	14.652
2293.06	17.4433
2293.2	17.4483
2293.34	13.2415
2293.47	14.5948
2293.61	14.5815
2293.74	16.0311
2293.88	18.8298
2294.02	16.0547
2294.15	16.0439
2294.29	16.0251
2294.42	14.6447
2294.56	18.8106
2294.7	15.9975
2294.83	13.2473
2294.97	16.0441
2295.1	16.099
2295.24	16.0932
2295.38	16.0506
2295.51	13.2376
2295.65	13.221
2295.78	14.6379
2295.92	14.6866
2296.06	14.6665
2296.19	16.08
2296.33	14.6837
2296.46	11.8562
2296.6	20.2513
2296.74	16.0226
2296.87	13.2449
2297.01	17.4371
2297.14	16.0457
2297.28	13.2727
2297.42	13.2888
2297.55	13.2932
2297.69	17.4715
2297.82	11.8574
2297.96	13.2442
2298.1	16.0465
2298.23	14.6499
2298.37	16.0229
2298.5	17.4313
2298.64	14.6661
2298.77	14.6951
2298.91	14.6618
2299.05	14.6502
2299.18	16.0804
2299.32	14.662
2299.45	14.6751
2299.59	16.0422
2299.73	16.0488
2299.86	14.6778
2300	18.8654
2300.13	13.2759
2300.27	13.2599
2300.4	18.8377
2300.54	11.8421
2300.68	16.0397
2300.81	14.6529
2300.95	13.2605
2301.08	14.6713
2301.22	18.8591
2301.36	14.6603
2301.49	14.6376
2301.63	14.6172
2301.76	13.2746
2301.9	11.8956
2302.03	14.6743
2302.17	13.2849
2302.31	16.062
2302.44	14.6814
2302.58	14.6772
2302.71	16.0749
2302.85	16.0596
2302.98	18.8819
2303.12	13.2654
2303.25	14.6625
2303.39	17.5097
2303.53	14.6581
2303.66	13.2871
2303.8	16.0716
2303.93	16.0624
2304.07	16.0382
2304.2	14.6871
2304.34	14.7088
2304.48	16.0929
2304.61	17.4674
2304.75	13.2954
2304.88	17.4282
2305.02	16.0641
2305.15	16.0785
2305.29	14.7029
2305.43	14.6795
2305.56	16.0996
2305.7	17.5114
2305.83	16.1117
2305.97	14.6859
2306.1	14.6421
2306.24	14.6489
2306.37	14.6653
2306.51	16.0714
2306.65	16.0542
2306.78	16.0448
2306.92	13.2645
2307.05	13.2533
2307.19	14.6693
2307.32	16.0823
2307.46	14.6559
2307.59	13.258
2307.73	14.6811
2307.87	16.0705
2308	17.4883
2308.14	14.7117
2308.27	11.8887
2308.41	18.8598
2308.54	14.6516
2308.68	14.6411
2308.81	14.661
2308.95	14.6922
2309.08	13.3
2309.22	14.6883
2309.35	13.2747
2309.49	16.083
2309.63	14.6757
2309.76	14.688
2309.9	11.9005
2310.03	16.1056
2310.17	14.7266
2310.3	16.1215
2310.44	13.3187
2310.57	17.5007
2310.71	13.2808
2310.84	14.6935
2310.98	17.4844
2311.11	16.0796
2311.25	14.6695
2311.39	11.8924
2311.52	16.0958
2311.66	14.6866
2311.79	14.6613
2311.93	17.4465
2312.06	16.0697
2312.2	16.0946
2312.33	17.5251
2312.47	24.4929
2312.6	16.1049
2312.74	11.894
2312.87	16.0819
2313.01	14.6737
2313.14	20.25
2313.28	16.0526
2313.41	16.0765
2313.55	14.6956
2313.69	14.7161
2313.82	14.7117
2313.96	13.3118
2314.09	16.1192
2314.23	13.3121
2314.36	16.0911
2314.5	18.8816
2314.63	13.3235
2314.77	16.1523
2314.9	16.1305
2315.04	16.1223
2315.17	13.3277
2315.31	13.3138
2315.44	16.1116
2315.58	17.5298
2315.71	13.3069
2315.85	16.124
2315.98	16.1334
2316.12	16.1218
2316.25	14.7011
2316.39	16.1089
2316.52	14.7147
2316.66	14.6971
2316.79	14.7367
2316.93	11.9536
2317.06	14.7509
2317.2	17.5726
2317.33	21.7978
2317.47	14.7569
2317.6	14.7454
2317.74	16.1496
2317.87	14.7544
2318.01	14.7495
2318.14	16.1491
2318.28	17.5517
2318.42	16.1469
2318.55	16.1465
2318.68	14.7218
2318.82	13.2931
2318.95	13.3099
2319.09	11.9127
2319.22	16.1265
2319.36	11.9438
2319.49	13.348
2319.63	14.7461
2319.76	14.7317
2319.9	14.7307
2320.03	14.7312
2320.17	14.7396
2320.3	17.544
2320.44	13.3414
2320.57	17.5776
2320.71	17.5546
2320.84	13.3373
2320.98	14.7497
2321.11	16.1427
2321.25	14.7008
2321.38	16.0915
2321.52	16.1642
2321.65	13.3674
2321.79	14.7386
2321.92	17.5397
2322.06	13.3248
2322.19	18.9381
2322.33	17.5708
2322.46	17.5518
2322.6	17.5721
2322.73	13.3581
2322.87	14.7785
2323	13.3833
2323.14	16.1491
2323.27	14.7394
2323.41	16.1708
2323.54	17.559
2323.68	16.1601
2323.81	14.7709
2323.95	16.2205
2324.08	14.7807
2324.21	11.9741
2324.35	16.1881
2324.48	17.5723
2324.62	14.7267
2324.75	16.1583
2324.89	17.5887
2325.02	17.5892
2325.16	16.1931
2325.29	16.2172
2325.43	11.9496
2325.56	14.7477
2325.7	14.727
2325.83	17.5711
2325.97	14.7873
2326.1	17.596
2326.24	14.7803
2326.37	17.609
2326.51	16.2162
2326.64	17.6527
2326.77	17.6315
2326.91	17.5348
2327.04	16.1354
2327.18	17.5728
2327.31	19.0218
2327.45	17.613
2327.58	18.9925
2327.72	16.1879
2327.85	19.0143
2327.99	19.0163
2328.12	21.8537
2328.26	21.8483
2328.39	23.2297
2328.52	21.856
2328.66	20.4265
2328.79	20.3989
2328.93	20.4332
2329.06	14.8069
2329.2	16.1802
2329.33	20.4107
2329.47	17.6062
2329.6	16.2142
2329.74	17.6253
2329.87	14.7833
2330.01	17.5965
2330.14	17.5912
2330.27	14.7748
2330.41	16.1841
2330.54	16.2009
2330.68	17.6133
2330.81	16.1876
2330.95	17.6353
2331.08	17.6205
2331.22	16.2073
2331.35	16.1679
2331.49	11.9576
2331.62	14.8132
2331.75	16.2038
2331.89	16.2458
2332.02	14.8551
2332.16	16.251
2332.29	14.7938
2332.43	16.2124
2332.56	16.2167
2332.7	19.0486
2332.83	14.8194
2332.96	14.8139
2333.1	16.2136
2333.23	14.8148
2333.37	17.6337
2333.5	14.8195
2333.64	16.2435
2333.77	14.8547
2333.9	16.2626
2334.04	12.0163
2334.17	17.6778
2334.31	13.438
2334.44	16.2872
2334.58	14.8666
2334.71	14.8906
2334.84	13.456
2334.98	13.436
2335.11	13.4416
2335.25	14.8607
2335.38	13.458
2335.52	16.2873
2335.65	14.8586
2335.79	14.8684
2335.92	14.8701
2336.05	16.2747
2336.19	12.044
2336.32	16.2898
2336.46	14.8796
2336.59	14.8892
2336.73	13.4885
2336.86	13.4895
2336.99	16.2848
2337.13	17.6934
2337.26	14.8468
2337.4	14.8444
2337.53	19.1778
2337.66	16.3337
2337.8	16.3525
2337.93	20.6271
2338.07	13.4972
2338.2	14.898
2338.34	16.3003
2338.47	14.8991
2338.6	17.7069
2338.74	16.2965
2338.87	16.3148
2339.01	19.1495
2339.14	13.4996
2339.27	14.9312
2339.41	16.3231
2339.54	14.8624
2339.68	13.4594
2339.81	14.911
2339.95	14.9211
2340.08	14.9527
2340.21	13.5327
2340.35	17.786
2340.48	16.3703
2340.62	16.3414
2340.75	16.3159
2340.88	14.8923
2341.02	16.3386
2341.15	16.3376
2341.29	14.9306
2341.42	17.776
2341.55	13.5196
2341.69	16.3629
2341.82	22.0383
2341.96	16.335
2342.09	14.9105
2342.22	13.4959
2342.36	13.5238
2342.49	16.3615
2342.63	16.3884
2342.76	12.1026
2342.89	20.6181
2343.03	12.0847
2343.16	14.9105
2343.3	14.9241
2343.43	17.8036
2343.56	13.5285
2343.7	16.3759
2343.83	16.3864
2343.97	16.3816
2344.1	14.9374
2344.23	16.3478
2344.37	16.3652
2344.5	16.3793
2344.63	16.3907
2344.77	17.841
2344.9	15.0107
2345.04	13.5814
2345.17	17.8061
2345.3	16.3528
2345.44	12.1024
2345.57	16.397
2345.71	17.8614
2345.84	15.0165
2345.97	16.4462
2346.11	15.0123
2346.24	17.8605
2346.38	14.9593
2346.51	16.3532
2346.64	16.3852
2346.78	16.4175
2346.91	17.8482
2347.04	17.8543
2347.18	15.0003
2347.31	14.994
2347.45	20.6909
2347.58	16.3972
2347.71	13.528
2347.85	14.9551
2347.98	14.968
2348.11	15.0156
2348.25	17.9295
2348.38	13.612
2348.52	16.4454
2348.65	16.4334
2348.78	10.7282
2348.92	13.5926
2349.05	13.5613
2349.18	16.4138
2349.32	13.5874
2349.45	13.6075
2349.59	16.4647
2349.72	13.5938
2349.85	13.563
2349.99	17.8118
2350.12	14.9824
2350.25	16.4162
2350.39	17.8475
2350.52	12.1486
2350.66	16.4391
2350.79	17.8188
2350.92	14.9915
2351.06	15.0072
2351.19	16.4322
2351.32	15.0136
2351.46	17.8778
2351.59	15.0387
2351.72	16.4827
2351.86	15.0482
2351.99	13.5928
2352.13	14.9886
2352.26	12.1335
2352.39	15.0086
2352.52	17.8749
2352.66	15.0148
2352.79	13.5777
2352.93	13.5766
2353.06	17.8884
2353.19	15.0337
2353.33	16.4595
2353.46	17.9046
2353.59	16.4593
2353.73	15.0316
2353.86	16.487
2353.99	15.0647
2354.13	13.6323
2354.26	15.0652
2354.39	19.3514
2354.53	15.0211
2354.66	16.4431
2354.79	13.5976
2354.93	13.6027
