#Acq. time (s)=	45
#Accumulations=	2
#Range (cm-¹)=	100...4000
#Windows=	1
#Auto scanning=	Off
#Autofocus=	Off
#Macrospot=	Off
#AutoExposure=	Off
#Spike filter=	Multiple accum.
#Delay time (s)=	2
#Binning=	1
#Readout mode=	Signal
#DeNoise=	Off
#ICS correction=	On
#Dark correction=	Off
#Inst. Process=	Off
#Detector Gain=	Best Dynamic
#Detector ADC=	50 kHz EM
#Detector EM gain=	100
#Detector temperature (°C)=	-60.09
#Instrument=	LabRAM HR Evol
#Detector=	SIN-EM FIVIS
#Objective=	x100_VIS_LWD
#Grating=	150 (500nm)
#ND Filter=	100%
#Laser=	633nm_Edge
#Hole=	49.98
#Temperature=	0
#Range=	Visible
#StageXY=	75x50mm Scan+
#StageZ=	Z motor
#X (µm)=	0
#Y (µm)=	0
#Z (µm)=	4.3
#Full time(mm:ss)=	1:34
#Project=	21_11_22
#Sample=	BU04w
#Site=	
#Title=	BU04w-A-FF3-FI10-L_150 (500nm)_633nm_Edge_100%_x100_VIS_LWD_H50um_45sX2
#Remark=	
#Date=	22.11.2021 11:48
#Acquired=	22.11.2021 11:48:48
100.177	2001.59
103.438	1958.42
106.695	1869.65
109.954	1878.26
113.209	1825.72
116.464	1773.08
119.717	1778.4
122.969	1764.78
126.219	1705.03
129.469	1750.59
132.716	1682
135.963	1717.65
139.208	1744.4
142.452	1689.92
145.694	1671.01
148.936	1607.01
152.175	1561.35
155.414	1543.61
158.651	1701.09
161.887	1936.36
165.121	2060.57
168.353	1819.41
171.586	1601.02
174.815	1387.19
178.045	1291.05
181.272	1237.97
184.5	1160.66
187.724	1112.06
190.947	1084.34
194.17	1074.89
197.39	1027.35
200.611	1000.18
203.829	1004.03
207.045	973.337
210.262	964.547
213.475	990.096
216.688	978.49
219.9	1010.68
223.11	1028.51
226.32	1117.6
229.527	1249.96
232.733	1534.65
235.939	1776.34
239.142	1804.02
242.344	1487.78
245.546	1191.34
248.745	1072.34
251.943	1072.95
255.141	1026.05
258.336	1040.04
261.53	1040.76
264.723	1017.81
267.916	945.598
271.106	962.613
274.294	947.416
277.483	959.755
280.669	1019.4
283.854	1059.02
287.038	1072.99
290.221	977.868
293.402	955.644
296.582	866.254
299.76	914.16
302.938	846.582
306.114	935.966
309.288	959.16
312.461	1030.52
315.634	1193.44
318.805	1435.52
321.974	1927.85
325.142	2448.38
328.309	2808.34
331.475	2544.08
334.639	2064.66
337.802	1655.12
340.963	1339.04
344.123	1171.97
347.282	1063.25
350.441	1013.09
353.597	1015.53
356.752	1010.39
359.906	986.383
363.058	1058.32
366.209	1064.35
369.36	1021.52
372.509	1005.05
375.656	970.674
378.802	877.304
381.947	841.211
385.09	825.097
388.232	821.505
391.373	812.485
394.512	787.674
397.652	840.016
400.789	846.759
403.925	891.87
407.059	906.983
410.192	892.812
413.324	939.846
416.455	988.581
419.584	1048.97
422.712	1174.22
425.839	1269.62
428.964	1388.3
432.089	1562.32
435.212	1617.07
438.333	1577.42
441.454	1372.34
444.573	1210.86
447.691	1124.71
450.807	1153.91
453.923	1184.11
457.037	1200.38
460.15	1192.63
463.261	1126.47
466.371	943.295
469.48	895.324
472.588	863.462
475.695	819.701
478.8	813.326
481.904	843.178
485.007	852.534
488.108	838.598
491.208	876.88
494.307	851.857
497.405	881.735
500.502	967.64
503.597	959.523
506.691	1058.61
509.784	1083.18
512.874	1174.14
515.964	1128.88
519.053	1126.8
522.141	1101.56
525.227	1023.94
528.312	997.874
531.396	1034.77
534.479	965.763
537.559	968.978
540.639	938.968
543.718	898.395
546.796	884.899
549.873	847.361
552.948	799.644
556.022	811.226
559.093	803.525
562.165	792.61
565.235	763.716
568.304	751.59
571.372	745.909
574.437	680.911
577.503	695.704
580.567	655.267
583.63	688.062
586.691	714.265
589.75	700.493
592.81	735.493
595.868	773.296
598.924	816.094
601.98	883.609
605.033	864.685
608.086	782.277
611.138	780.261
614.188	764.276
617.236	781.367
620.285	797.483
623.332	747.119
626.376	711.742
629.42	724.747
632.464	728.07
635.506	681.997
638.545	729.004
641.585	660.744
644.623	681.69
647.659	703.808
650.695	675.011
653.73	757.745
656.762	780.171
659.794	771.638
662.825	752.807
665.854	727.601
668.883	690.318
671.91	661.937
674.935	611.784
677.96	565.13
680.982	592.159
684.005	550.42
687.027	589.925
690.045	583.946
693.064	557.478
696.082	543.133
699.097	554.044
702.113	539.607
705.126	533.551
708.139	545.248
711.149	544.576
714.16	567.756
717.169	565.759
720.176	544.854
723.183	529.749
726.187	517.198
729.192	547.695
732.194	505.04
735.196	533.608
738.196	515.348
741.196	542.007
744.193	518.223
747.19	530.956
750.185	510.115
753.18	521.207
756.173	512.636
759.165	532.421
762.155	529.139
765.146	541.006
768.133	537.105
771.121	520.061
774.107	499.249
777.092	535.597
780.075	513.59
783.058	494.245
786.039	494.567
789.02	513.701
791.998	504.487
794.975	505.542
797.952	490.465
800.927	500.706
803.902	507.097
806.874	516.225
809.845	518.754
812.817	500.426
815.786	494.288
818.755	512.5
821.721	507.211
824.686	512.198
827.652	518.097
830.615	530.718
833.576	558.653
836.538	538.156
839.498	533.784
842.458	532.5
845.415	539.462
848.37	550.314
851.327	559.378
854.28	555.353
857.233	544.782
860.184	513.493
863.135	538.731
866.084	546.089
869.032	563.865
871.98	537.957
874.925	604.701
877.87	622.066
880.813	628.975
883.756	619.646
886.697	603.543
889.636	575.952
892.576	602.36
895.513	615.419
898.45	585.571
901.385	575.445
904.318	592.706
907.253	605.196
910.184	584.572
913.114	578.164
916.044	590.604
918.973	640.005
921.9	623.703
924.826	649.97
927.75	711.113
930.674	725.762
933.596	739.321
936.519	824.112
939.439	872.709
942.357	955.589
945.275	1081.4
948.192	1196.54
951.107	1284.5
954.023	1322.14
956.936	1250.94
959.848	1233.66
962.759	1201.82
965.669	1139.82
968.577	1083.47
971.485	1089.04
974.391	1119.3
977.296	1265.25
980.201	1341.45
983.104	1508.42
986.006	1683.58
988.907	1731.01
991.806	1774.44
994.704	1679.11
997.602	1526.84
1000.5	1458.01
1003.39	1416.13
1006.29	1264.03
1009.18	1271.51
1012.07	1345.54
1014.96	1337.63
1017.85	1519.55
1020.74	1663.69
1023.63	1777.12
1026.51	1822.3
1029.4	1676.05
1032.28	1406.68
1035.16	1235.78
1038.04	1043.29
1040.92	910.922
1043.8	872.729
1046.68	810.328
1049.56	814.237
1052.43	741.46
1055.31	759.633
1058.18	733.012
1061.05	721.703
1063.93	680.096
1066.8	660.476
1069.67	709.924
1072.53	668.058
1075.4	730.971
1078.26	752.98
1081.13	797.231
1083.99	854.048
1086.85	857.523
1089.72	950.323
1092.58	1047.82
1095.44	1321.52
1098.29	1497.16
1101.15	1503.48
1104	1368.81
1106.86	1145.95
1109.71	942.689
1112.56	857.257
1115.42	782.031
1118.27	729.936
1121.11	710.478
1123.96	683.017
1126.81	699.353
1129.65	672.93
1132.5	699.179
1135.34	741.208
1138.18	809.717
1141.03	823.557
1143.87	911.846
1146.7	1022.55
1149.54	1262.55
1152.38	1563.41
1155.21	1832.43
1158.05	1568.27
1160.88	1277.28
1163.71	945.667
1166.55	825.964
1169.37	703.529
1172.2	637.175
1175.03	621.841
1177.86	576.173
1180.68	581.559
1183.51	541.116
1186.33	555.668
1189.15	549.827
1191.98	522.54
1194.8	544.393
1197.61	518.332
1200.43	511.102
1203.25	503.086
1206.06	519.64
1208.88	492.101
1211.69	498.915
1214.51	489.11
1217.32	499.121
1220.13	498.314
1222.94	492.558
1225.74	460.832
1228.55	485.912
1231.36	487.97
1234.16	500.975
1236.97	516.958
1239.77	494.574
1242.57	503.196
1245.37	508.675
1248.17	496.854
1250.97	500.012
1253.77	489.043
1256.56	504.099
1259.36	495.808
1262.15	476.266
1264.94	511.24
1267.74	508.896
1270.53	485.309
1273.32	524.031
1276.11	484.291
1278.89	499.792
1281.68	466.164
1284.46	495.777
1287.25	495.386
1290.03	477.058
1292.81	471.828
1295.59	459.732
1298.38	451.701
1301.15	466.694
1303.93	470.882
1306.71	481.212
1309.48	463.68
1312.26	466.391
1315.03	489.217
1317.81	467.877
1320.58	462.645
1323.35	464.514
1326.12	457.351
1328.88	458.275
1331.65	458.192
1334.42	474.272
1337.18	447.569
1339.95	445.216
1342.71	455.983
1345.47	459.544
1348.23	451.795
1350.99	459.392
1353.75	475.159
1356.51	444.655
1359.26	459.252
1362.02	483.03
1364.77	489.235
1367.53	498.434
1370.28	523.014
1373.03	547.558
1375.78	599.856
1378.53	612.06
1381.28	599.603
1384.03	535.818
1386.77	493.615
1389.52	500.679
1392.26	472.993
1395	475.142
1397.74	485.843
1400.49	476.913
1403.23	451.531
1405.96	460.122
1408.7	472.884
1411.44	469.205
1414.17	450.079
1416.91	440.262
1419.64	456.273
1422.37	453.717
1425.11	449.118
1427.84	463.181
1430.56	455.482
1433.29	468.553
1436.02	449.338
1438.74	456.164
1441.47	463.995
1444.19	452.08
1446.92	457.827
1449.64	466.608
1452.36	450.104
1455.08	467.115
1457.8	421.035
1460.52	473.592
1463.23	465.184
1465.95	445.183
1468.66	473.456
1471.38	470.245
1474.09	450.267
1476.8	473.387
1479.51	437.798
1482.22	473.592
1484.93	453.792
1487.64	487.628
1490.34	464.782
1493.05	434.599
1495.75	465.535
1498.46	441.704
1501.16	454.837
1503.86	472.234
1506.56	469.627
1509.26	469.207
1511.96	449.698
1514.65	457.824
1517.35	475.577
1520.05	480.641
1522.74	446.216
1525.43	444.888
1528.13	464.912
1530.82	430.345
1533.51	459.155
1536.2	454.558
1538.88	479.989
1541.57	466.612
1544.25	463.806
1546.94	477.001
1549.62	457.594
1552.31	463.998
1554.99	463.719
1557.67	472.017
1560.35	467.469
1563.03	451.063
1565.71	488.583
1568.38	469.999
1571.06	481.596
1573.73	458.739
1576.41	484.403
1579.08	445.648
1581.75	466.105
1584.42	455.389
1587.09	506.078
1589.76	494.362
1592.43	482.705
1595.09	443.067
1597.76	491.912
1600.42	484.696
1603.09	481.897
1605.75	486.704
1608.41	490.567
1611.07	480.427
1613.73	491.017
1616.39	491.914
1619.05	513.589
1621.7	491.636
1624.36	504.612
1627.01	500.078
1629.67	484.534
1632.32	501.91
1634.97	492.751
1637.62	498.908
1640.27	507.956
1642.92	539.292
1645.57	518.718
1648.22	494.723
1650.86	539.309
1653.51	513.004
1656.15	509.861
1658.79	517.734
1661.43	513.379
1664.07	516.779
1666.71	513.472
1669.35	473.563
1671.99	492.42
1674.63	513.496
1677.26	489.018
1679.9	477.923
1682.53	492.176
1685.16	472.004
1687.79	496.154
1690.43	468.302
1693.05	468.214
1695.68	488.166
1698.31	486.148
1700.94	487.744
1703.56	492.513
1706.19	465.748
1708.81	471.244
1711.44	470.507
1714.06	489.459
1716.68	478.756
1719.3	470.718
1721.92	490.17
1724.53	501.667
1727.15	496.594
1729.77	464.566
1732.38	485.27
1735	456.521
1737.61	472.715
1740.22	466.41
1742.83	466.854
1745.44	487.619
1748.05	464.278
1750.66	491.718
1753.27	459.208
1755.87	475.287
1758.48	477.688
1761.08	466.439
1763.69	446.134
1766.29	508.527
1768.89	486.009
1771.49	451.03
1774.09	495.392
1776.69	458.201
1779.29	474.383
1781.88	497.46
1784.48	454.672
1787.07	457.36
1789.66	486.352
1792.26	475.485
1794.85	473.747
1797.44	482.317
1800.03	469.254
1802.62	472.183
1805.21	469.406
1807.79	492.981
1810.38	492.36
1812.96	460.643
1815.55	476.124
1818.13	485.894
1820.71	473.683
1823.29	481.162
1825.87	474.76
1828.45	519.36
1831.03	465.443
1833.61	478.776
1836.18	496.877
1838.76	488.065
1841.33	472.203
1843.91	481.961
1846.48	496.388
1849.05	489.765
1851.62	492.516
1854.19	484.549
1856.76	484.942
1859.33	495.898
1861.89	487.009
1864.46	498.041
1867.02	477.447
1869.59	486.131
1872.15	468.84
1874.71	480.932
1877.27	467.105
1879.83	487.432
1882.39	499.548
1884.95	471.416
1887.51	501.204
1890.06	475.252
1892.62	494.184
1895.17	470.544
1897.73	484.806
1900.28	486.162
1902.83	479.449
1905.38	477.548
1907.93	494.62
1910.48	500.037
1913.03	488.926
1915.57	493.357
1918.12	508.404
1920.66	479.838
1923.21	487.432
1925.75	498.672
1928.29	500.358
1930.83	490.057
1933.37	477.325
1935.91	500.538
1938.45	498.526
1940.99	498.869
1943.53	479.929
1946.06	499.436
1948.6	491.251
1951.13	498.635
1953.66	502.367
1956.19	507.281
1958.73	492.891
1961.26	506.201
1963.78	497.787
1966.31	496.584
1968.84	515.775
1971.36	492.747
1973.89	493.804
1976.41	493.673
1978.94	483.908
1981.46	481.357
1983.98	502.883
1986.5	490.735
1989.02	491.843
1991.54	509.792
1994.06	498.906
1996.58	502.474
1999.09	485.649
2001.61	507.32
2004.12	490.565
2006.63	505.137
2009.15	500.478
2011.66	500.701
2014.17	502.1
2016.68	481.833
2019.19	496.402
2021.69	513.444
2024.2	512.513
2026.71	495.942
2029.21	479.394
2031.72	496.729
2034.22	512.942
2036.72	487.997
2039.22	515.139
2041.72	498.67
2044.22	510.12
2046.72	490.009
2049.22	484.472
2051.71	514.24
2054.21	488.936
2056.71	502.878
2059.2	519.323
2061.69	499.107
2064.18	500.891
2066.68	523.542
2069.17	538.822
2071.66	501.302
2074.14	515.368
2076.63	498.648
2079.12	516.385
2081.6	490.953
2084.09	493.819
2086.57	523.819
2089.06	487.047
2091.54	502.315
2094.02	506.521
2096.5	540.589
2098.98	511.417
2101.46	504.575
2103.93	512.682
2106.41	525.82
2108.89	504.091
2111.36	531.065
2113.84	543.152
2116.31	513.915
2118.78	520.991
2121.25	534.363
2123.72	516.272
2126.19	553.595
2128.66	532.904
2131.13	527.292
2133.59	543.149
2136.06	524.781
2138.53	541.874
2140.99	538.655
2143.45	515.076
2145.92	530.85
2148.38	512.195
2150.84	510.008
2153.3	526.928
2155.76	514.459
2158.21	538.978
2160.67	536.638
2163.13	507.402
2165.58	522.838
2168.04	544.625
2170.49	498.709
2172.94	520.656
2175.39	537.49
2177.84	505.649
2180.29	509.52
2182.74	537.703
2185.19	536.339
2187.64	535.071
2190.08	528.742
2192.53	530.16
2194.98	534.151
2197.42	548.506
2199.86	533.449
2202.3	518.433
2204.74	534.268
2207.18	520.61
2209.62	522.423
2212.06	519.128
2214.5	549.36
2216.93	520.34
2219.37	542.977
2221.81	535.904
2224.24	514.553
2226.67	545.055
2229.11	531.456
2231.54	508.712
2233.97	527.596
2236.4	540.002
2238.83	523.706
2241.25	547.891
2243.68	531.574
2246.1	511.286
2248.53	552.633
2250.96	537.556
2253.38	522.419
2255.8	528.332
2258.22	552.782
2260.64	532.353
2263.06	527.689
2265.48	525.589
2267.9	544.635
2270.32	517.234
2272.73	505.669
2275.15	519.272
2277.56	528.875
2279.98	517.158
2282.39	547.91
2284.8	533.384
2287.21	537.425
2289.62	522.88
2292.03	546.888
2294.44	558.922
2296.85	540.404
2299.26	549.937
2301.66	548.838
2304.07	534.505
2306.47	537.59
2308.88	539.402
2311.28	538.624
2313.68	528.497
2316.08	531.813
2318.48	537.871
2320.88	533.174
2323.28	543.241
2325.68	562.834
2328.07	542.025
2330.47	542.78
2332.86	530.084
2335.26	559.337
2337.65	508.672
2340.04	547.513
2342.43	553.888
2344.82	533.03
2347.21	543.63
2349.6	567.817
2351.99	577.032
2354.38	540.884
2356.76	560.876
2359.15	534.096
2361.53	538.67
2363.92	564.088
2366.3	550.902
2368.68	566.704
2371.06	565.909
2373.44	554.013
2375.82	549.016
2378.2	566.222
2380.58	570.799
2382.95	532.276
2385.33	538.079
2387.71	559.188
2390.08	546.844
2392.45	563.637
2394.83	563.728
2397.2	555.361
2399.57	540.044
2401.94	567.896
2404.31	544.154
2406.68	562.2
2409.04	549.807
2411.41	550.233
2413.78	555.035
2416.14	556.186
2418.51	548.067
2420.87	554.717
2423.23	556.652
2425.59	585.041
2427.95	550.556
2430.31	572.397
2432.67	554.818
2435.03	538.666
2437.39	576.319
2439.75	551.658
2442.1	579.461
2444.46	550.452
2446.81	545.579
2449.16	540.697
2451.52	542.944
2453.87	559.464
2456.22	590.364
2458.57	538.139
2460.92	559.032
2463.27	559.851
2465.61	566.4
2467.96	570.054
2470.3	560.682
2472.65	580.19
2474.99	583.831
2477.34	581.715
2479.68	557.783
2482.02	555.562
2484.36	585.335
2486.7	565.529
2489.04	577.793
2491.38	573.992
2493.72	552.64
2496.05	588.375
2498.39	602.142
2500.72	583.655
2503.06	576.851
2505.39	574.413
2507.72	566.057
2510.06	587.078
2512.39	588.947
2514.72	599.628
2517.04	576.409
2519.37	579.795
2521.7	568.466
2524.03	573.352
2526.35	564.897
2528.68	580.133
2531	550.95
2533.33	587.019
2535.65	571.249
2537.97	570.326
2540.29	584.286
2542.61	583.398
2544.93	585.496
2547.25	581.699
2549.57	567.397
2551.88	618.852
2554.2	570.138
2556.51	576.653
2558.83	578.657
2561.14	603.305
2563.46	575.418
2565.77	571.632
2568.08	602.464
2570.39	597.236
2572.7	584.43
2575.01	585.17
2577.31	593.432
2579.62	580.425
2581.93	591.595
2584.23	608.698
2586.54	586.312
2588.84	598.78
2591.15	592.821
2593.45	576.434
2595.75	598.132
2598.05	587.999
2600.35	574.697
2602.65	596.428
2604.95	595.264
2607.24	597.128
2609.54	592.883
2611.84	602.247
2614.13	599.433
2616.42	584.366
2618.72	618.327
2621.01	597.14
2623.3	609.682
2625.59	573.233
2627.88	627.247
2630.17	595.55
2632.46	594.649
2634.75	589.197
2637.04	603.903
2639.32	589.462
2641.61	574.904
2643.89	619.176
2646.18	586.112
2648.46	610.3
2650.74	606.572
2653.02	607.535
2655.3	639.344
2657.58	619.63
2659.86	601.407
2662.14	597.175
2664.42	602.256
2666.69	605.724
2668.97	634.46
2671.24	614.641
2673.52	590.298
2675.79	595.954
2678.06	597.286
2680.33	609.956
2682.61	614.504
2684.88	612.726
2687.15	641.173
2689.41	615.484
2691.68	616.646
2693.95	632.209
2696.22	616.491
2698.48	620.382
2700.74	649.965
2703.01	621.72
2705.27	633.566
2707.53	610.024
2709.8	605.721
2712.06	612.683
2714.32	618.101
2716.57	633.436
2718.83	634.004
2721.09	652.445
2723.35	607.642
2725.6	624.267
2727.86	632.789
2730.11	618.518
2732.37	605.729
2734.62	617.399
2736.87	628.979
2739.12	635.667
2741.37	634.417
2743.62	625.03
2745.87	635.249
2748.12	640.655
2750.37	620.088
2752.61	609.74
2754.86	641.598
2757.1	632.413
2759.35	660.813
2761.59	621.855
2763.83	633.906
2766.08	644.401
2768.32	626.976
2770.56	627.488
2772.8	629.797
2775.04	638.792
2777.27	641.31
2779.51	640.539
2781.75	651.614
2783.98	646.043
2786.22	635.508
2788.45	661.558
2790.68	620.899
2792.92	645.274
2795.15	662.992
2797.38	647.095
2799.61	654.667
2801.84	655.445
2804.07	614.107
2806.3	645.051
2808.52	650.737
2810.75	629.406
2812.98	640.098
2815.2	669.285
2817.42	673.162
2819.65	648.292
2821.87	672.526
2824.09	652.754
2826.31	624.464
2828.53	645.343
2830.75	647.537
2832.97	642.907
2835.19	653.554
2837.41	676.161
2839.62	645.967
2841.84	646.438
2844.05	646.934
2846.27	662.901
2848.48	673.757
2850.69	648.752
2852.9	680.344
2855.12	629.723
2857.33	656.291
2859.54	658.811
2861.74	690.719
2863.95	690.012
2866.16	704.931
2868.37	659.317
2870.57	681.136
2872.78	678.701
2874.98	678.021
2877.18	639.049
2879.39	666.27
2881.59	683.141
2883.79	668.607
2885.99	678.602
2888.19	656.947
2890.39	716.125
2892.59	683.828
2894.78	702.609
2896.98	670.331
2899.18	703.495
2901.37	681.685
2903.57	709.424
2905.76	685.575
2907.95	697.301
2910.15	666.157
2912.34	700.883
2914.53	662.287
2916.72	707.795
2918.91	687.134
2921.09	698.766
2923.28	697.843
2925.47	697.011
2927.65	694.418
2929.84	709.887
2932.02	689.251
2934.21	706.43
2936.39	710.876
2938.57	695.245
2940.75	710.408
2942.94	681.993
2945.12	711.697
2947.29	677.549
2949.47	709.016
2951.65	727.787
2953.83	689.978
2956	710.558
2958.18	725.667
2960.36	718.875
2962.53	763.36
2964.7	714.494
2966.88	691.283
2969.05	699.247
2971.22	716.425
2973.39	718.939
2975.56	725.139
2977.73	690.817
2979.9	765.22
2982.06	694.039
2984.23	704.105
2986.4	716.084
2988.56	752.233
2990.73	732.851
2992.89	739.485
2995.05	747.943
2997.21	749.073
2999.38	753.976
3001.54	807.533
3003.7	741.485
3005.86	763.391
3008.01	742.125
3010.17	754.634
3012.33	765.142
3014.49	749.454
3016.64	756.449
3018.8	763.523
3020.95	799.076
3023.1	770.004
3025.26	744.521
3027.41	810.358
3029.56	796.129
3031.71	793.276
3033.86	794.126
3036.01	808.289
3038.16	787.84
3040.31	821.428
3042.45	778.059
3044.6	801.84
3046.74	825.637
3048.89	835.976
3051.03	794.27
3053.18	798.796
3055.32	853.612
3057.46	852.472
3059.6	812.592
3061.74	855.905
3063.88	835.335
3066.02	838.017
3068.16	856.22
3070.3	876.401
3072.43	875.223
3074.57	862.4
3076.7	855.408
3078.84	881.568
3080.97	890.191
3083.1	849.98
3085.24	868.553
3087.37	916.565
3089.5	911.913
3091.63	999.637
3093.76	879.22
3095.89	941.754
3098.02	939.344
3100.14	913.19
3102.27	932.565
3104.4	989.783
3106.52	971.762
3108.65	949.708
3110.77	961.559
3112.89	955.494
3115.01	919.268
3117.14	961.226
3119.26	957.083
3121.38	991.346
3123.5	995.486
3125.62	979.471
3127.73	1048.64
3129.85	988.099
3131.97	1000.75
3134.08	1037.92
3136.2	1044.53
3138.31	1100.36
3140.43	1034.93
3142.54	1072.21
3144.65	1084.75
3146.76	1088.97
3148.87	1089.03
3150.98	1155.35
3153.09	1080.11
3155.2	1148.45
3157.31	1129.25
3159.42	1185.26
3161.52	1124.23
3163.63	1165.75
3165.73	1079.16
3167.84	1131.02
3169.94	1157.67
3172.05	1203.75
3174.15	1171.47
3176.25	1259.27
3178.35	1213.85
3180.45	1233.85
3182.55	1219.9
3184.65	1265.2
3186.75	1263.85
3188.84	1240.96
3190.94	1252.51
3193.04	1262.06
3195.13	1261.04
3197.23	1245.46
3199.32	1313.37
3201.41	1328.68
3203.51	1322.4
3205.6	1331.27
3207.69	1299.61
3209.78	1304.35
3211.87	1317.79
3213.96	1322.74
3216.05	1349.51
3218.13	1350.18
3220.22	1339.79
3222.31	1301.07
3224.39	1290.55
3226.48	1306.32
3228.56	1221.21
3230.64	1260.87
3232.73	1300.81
3234.81	1316.27
3236.89	1261.14
3238.97	1283.44
3241.05	1248.37
3243.13	1308.69
3245.21	1251.62
3247.29	1271.76
3249.36	1269.73
3251.44	1291.66
3253.52	1286.78
3255.59	1281.48
3257.66	1305.41
3259.74	1255.84
3261.81	1228.6
3263.88	1233.08
3265.95	1256.02
3268.03	1278.3
3270.1	1245.79
3272.17	1221.85
3274.23	1239.54
3276.3	1277.17
3278.37	1285.43
3280.44	1215.74
3282.5	1310.95
3284.57	1316.87
3286.63	1265.38
3288.7	1268.91
3290.76	1251.71
3292.82	1252.83
3294.88	1214.74
3296.94	1238.85
3299	1226.14
3301.06	1264.56
3303.12	1268.03
3305.18	1190.55
3307.24	1254.32
3309.3	1260.14
3311.35	1245
3313.41	1269.25
3315.46	1249.57
3317.52	1273.94
3319.57	1200.68
3321.63	1281.31
3323.68	1280.6
3325.73	1251.73
3327.78	1265.17
3329.83	1243.37
3331.88	1222.08
3333.93	1283.2
3335.98	1224.11
3338.02	1240.46
3340.07	1216.04
3342.12	1302.74
3344.16	1275.6
3346.21	1269.79
3348.25	1325.3
3350.3	1324.23
3352.34	1353.93
3354.38	1247.9
3356.42	1325.65
3358.46	1331.91
3360.5	1330.99
3362.54	1325.39
3364.58	1341.16
3366.62	1282.61
3368.66	1310.38
3370.69	1343.04
3372.73	1293.8
3374.76	1376.75
3376.8	1351.28
3378.83	1378.76
3380.87	1307.35
3382.9	1313.04
3384.93	1275.24
3386.96	1307.43
3388.99	1351.72
3391.02	1308.86
3393.05	1316.82
3395.08	1368.55
3397.11	1267.76
3399.14	1331.8
3401.16	1349.65
3403.19	1364.85
3405.21	1312.02
3407.24	1341.86
3409.26	1400.86
3411.29	1318.62
3413.31	1299.67
3415.33	1317.22
3417.35	1368.93
3419.37	1315.84
3421.39	1330.93
3423.41	1350.87
3425.43	1341.61
3427.45	1369.12
3429.46	1269.77
3431.48	1326.76
3433.5	1413.24
3435.51	1402.08
3437.53	1327.33
3439.54	1306.47
3441.55	1312.55
3443.57	1343.32
3445.58	1403.89
3447.59	1354.02
3449.6	1328.59
3451.61	1391.94
3453.62	1361.77
3455.63	1331.67
3457.64	1338.88
3459.64	1311.39
3461.65	1276.37
3463.66	1321
3465.66	1250.93
3467.67	1235.63
3469.67	1315.38
3471.67	1355.18
3473.68	1293.84
3475.68	1326.04
3477.68	1292.78
3479.68	1342.69
3481.68	1314.36
3483.68	1341.58
3485.68	1333.36
3487.68	1284.45
3489.67	1283.66
3491.67	1275.22
3493.67	1243.75
3495.66	1270.72
3497.66	1279.81
3499.65	1247.92
3501.64	1236.33
3503.64	1291.14
3505.63	1279.41
3507.62	1193
3509.61	1234.6
3511.6	1276.09
3513.59	1237.98
3515.58	1235.8
3517.57	1210.45
3519.56	1190.24
3521.54	1270.28
3523.53	1206.36
3525.52	1152.78
3527.5	1248.5
3529.49	1220.39
3531.47	1223.66
3533.45	1227.26
3535.43	1156.18
3537.42	1211.74
3539.4	1153.77
3541.38	1183.43
3543.36	1181.95
3545.34	1175.17
3547.32	1160.52
3549.29	1150.94
3551.27	1154.13
3553.25	1135.91
3555.22	1118.15
3557.2	1118.71
3559.17	1103.74
3561.15	1125.3
3563.12	1146.99
3565.09	1140.11
3567.07	1104.65
3569.04	1171.39
3571.01	1099.24
3572.98	1113.48
3574.95	1093.76
3576.92	1100.35
3578.88	1080.8
3580.85	1124.48
3582.82	1073.41
3584.79	1162.19
3586.75	1092.49
3588.72	1133.83
3590.68	1074.46
3592.64	1062.73
3594.61	1088.22
3596.57	1092.47
3598.53	1075.3
3600.49	1114.04
3602.45	1067.32
3604.41	1036.51
3606.37	1099.36
3608.33	1060.29
3610.29	1050.61
3612.25	1043.6
3614.2	1012.45
3616.16	1051.1
3618.12	1044.05
3620.07	1061.1
3622.02	1031.98
3623.98	1040.45
3625.93	1024.57
3627.88	1035.72
3629.84	1063.04
3631.79	1006.36
3633.74	998.465
3635.69	1020.45
3637.64	1007.4
3639.58	1002.65
3641.53	1011.67
3643.48	1031.66
3645.43	1021.82
3647.37	995.881
3649.32	1042.2
3651.26	1001.95
3653.21	980.739
3655.15	997.526
3657.09	965.269
3659.03	1014.79
3660.98	974.277
3662.92	1018.28
3664.86	1005.06
3666.8	978.262
3668.74	981.527
3670.67	954.634
3672.61	987.943
3674.55	972.226
3676.49	978.498
3678.42	1012.33
3680.36	969.438
3682.29	976.054
3684.23	977.295
3686.16	934.557
3688.09	957.944
3690.02	992.471
3691.96	963.45
3693.89	928.657
3695.82	974.158
3697.75	906.039
3699.68	948.986
3701.61	953.087
3703.53	976.522
3705.46	955.55
3707.39	948.502
3709.31	961.029
3711.24	976.365
3713.16	966.455
3715.09	976.049
3717.01	957.432
3718.93	947.167
3720.86	1001.74
3722.78	957.516
3724.7	986.647
3726.62	1001.63
3728.54	951.527
3730.46	955.198
3732.38	936.278
3734.29	954.209
3736.21	955.125
3738.13	953.151
3740.04	991
3741.96	957.597
3743.87	955.523
3745.79	959.102
3747.7	979.77
3749.62	948.95
3751.53	980.925
3753.44	927.032
3755.35	973.204
3757.26	924.85
3759.17	968.072
3761.08	928.192
3762.99	965.667
3764.9	957.263
3766.81	966.087
3768.71	969.287
3770.62	992.633
3772.52	987.341
3774.43	970.539
3776.33	988.195
3778.24	954.221
3780.14	957.68
3782.04	972.739
3783.95	979.273
3785.85	962.751
3787.75	966.336
3789.65	958.314
3791.55	964.751
3793.45	965.535
3795.34	978.007
3797.24	976.088
3799.14	965.471
3801.04	960.676
3802.93	970.417
3804.83	965.689
3806.72	990.112
3808.62	944.614
3810.51	960.242
3812.4	967.07
3814.29	950.5
3816.19	960.222
3818.08	958.249
3819.97	991.428
3821.86	951.229
3823.75	975.547
3825.64	979.207
3827.52	1003.54
3829.41	951.395
3831.3	984.74
3833.18	1000.44
3835.07	980.67
3836.95	987.417
3838.84	970.453
3840.72	992.117
3842.61	1002.04
3844.49	973.071
3846.37	1003.23
3848.25	1024.28
3850.13	1003.87
3852.01	983.42
3853.89	995.473
3855.77	966.034
3857.65	992.833
3859.53	971.989
3861.41	966.188
3863.28	993.181
3865.16	1008.83
3867.03	980.132
3868.91	978.481
3870.78	970.464
3872.66	967.602
3874.53	967.899
3876.4	986.134
3878.27	971.487
3880.14	1013.66
3882.01	975.128
3883.89	951.577
3885.75	978.946
3887.62	991.407
3889.49	973.943
3891.36	971.512
3893.23	993.234
3895.09	973.24
3896.96	970.995
3898.82	1004.83
3900.69	981.544
3902.55	970.249
3904.42	988.988
3906.28	977.679
3908.14	987.342
3910	985.067
3911.87	1004.09
3913.73	1004.92
3915.59	981.616
3917.45	1015.97
3919.3	995.85
3921.16	997.091
3923.02	1022.66
3924.88	1008.61
3926.73	1028.02
3928.59	1007.72
3930.45	990.406
3932.3	972.924
3934.15	992
3936.01	1011.12
3937.86	1005.68
3939.71	985.064
3941.56	998.271
3943.42	987.074
3945.27	988.001
3947.12	982.794
3948.97	986.752
3950.81	965.904
3952.66	1031.45
3954.51	1022.85
3956.36	1020.43
3958.2	1017.88
3960.05	990.424
3961.9	993.912
3963.74	1028.37
3965.58	1000.78
3967.43	1031.96
3969.27	1016.55
3971.11	1035.29
3972.96	1004.47
3974.8	1010.86
3976.64	1020.32
3978.48	1004.91
3980.32	1008.01
3982.16	1020.34
3984	1007.89
3985.83	1017.19
3987.67	1010.92
3989.51	1004.75
3991.34	1032.8
3993.18	995.818
3995.01	1014.74
3996.85	1018.29
3998.68	997.044
