#Acq. time (s)=	45
#Accumulations=	2
#Range (cm-¹)=	100...4000
#Windows=	1
#Auto scanning=	Off
#Autofocus=	Off
#Macrospot=	Off
#AutoExposure=	Off
#Spike filter=	Multiple accum.
#Delay time (s)=	2
#Binning=	1
#Readout mode=	Signal
#DeNoise=	Off
#ICS correction=	On
#Dark correction=	Off
#Inst. Process=	Off
#Detector Gain=	Best Dynamic
#Detector ADC=	50 kHz EM
#Detector EM gain=	100
#Detector temperature (°C)=	-60.09
#Instrument=	LabRAM HR Evol
#Detector=	SIN-EM FIVIS
#Objective=	x100_VIS_LWD
#Grating=	150 (500nm)
#ND Filter=	100%
#Laser=	633nm_Edge
#Hole=	49.98
#Temperature=	0
#Range=	Visible
#StageXY=	75x50mm Scan+
#StageZ=	Z motor
#X (µm)=	0
#Y (µm)=	0
#Z (µm)=	16.6
#Full time(mm:ss)=	1:36
#Project=	21_11_22
#Sample=	BU04w
#Site=	
#Title=	BU04w-A-FF3-FI05-V_150 (500nm)_633nm_Edge_100%_x100_VIS_LWD_H50um_45sX2
#Remark=	
#Date=	22.11.2021 11:43
#Acquired=	22.11.2021 11:43:04
100.177	1339.16
103.438	1240.46
106.695	1172.35
109.954	1172.96
113.209	1100.97
116.464	1097.67
119.717	1029.2
122.969	1024.83
126.219	1017.47
129.469	1047.48
132.716	991.215
135.963	1034.42
139.208	1022.91
142.452	998.067
145.694	977.148
148.936	973.393
152.175	904.643
155.414	916.4
158.651	1009.54
161.887	1024.23
165.121	1133.79
168.353	1022.82
171.586	959.653
174.815	844.583
178.045	788.816
181.272	745.466
184.5	735.465
187.724	750.306
190.947	747.756
194.17	686.021
197.39	682.674
200.611	687.148
203.829	689.08
207.045	669.885
210.262	650.664
213.475	661.972
216.688	648.512
219.9	689.363
223.11	680.592
226.32	756.498
229.527	822.518
232.733	880.066
235.939	1007.99
239.142	1048.38
242.344	871.197
245.546	772.374
248.745	736.103
251.943	719.733
255.141	725.163
258.336	692.726
261.53	714.399
264.723	720.908
267.916	667.704
271.106	670.51
274.294	653.423
277.483	678.088
280.669	721.639
283.854	734.775
287.038	721.33
290.221	696.447
293.402	659.195
296.582	640.933
299.76	623.635
302.938	621.457
306.114	627.759
309.288	681.334
312.461	693.314
315.634	730.794
318.805	867.352
321.974	1058.76
325.142	1257.69
328.309	1435.77
331.475	1308.36
334.639	1113.92
337.802	980.811
340.963	830.768
344.123	735.427
347.282	727.687
350.441	665.338
353.597	680.16
356.752	708.122
359.906	666.373
363.058	722.48
366.209	707.997
369.36	738.652
372.509	689.445
375.656	650.558
378.802	639.916
381.947	630.205
385.09	589.757
388.232	601.124
391.373	601.389
394.512	583.01
397.652	595.716
400.789	623.779
403.925	614.044
407.059	641.111
410.192	624.78
413.324	620.582
416.455	696.543
419.584	685.758
422.712	707.752
425.839	771.987
428.964	798.58
432.089	843.936
435.212	921.212
438.333	847.571
441.454	843.72
444.573	776.865
447.691	744.802
450.807	715.573
453.923	766.026
457.037	757.594
460.15	757.756
463.261	732.952
466.371	683.236
469.48	611.168
472.588	569.121
475.695	580.311
478.8	585.073
481.904	600.007
485.007	591.649
488.108	628.017
491.208	644.847
494.307	600.214
497.405	644.99
500.502	628.313
503.597	677.914
506.691	694.859
509.784	715.588
512.874	740.138
515.964	736.711
519.053	725.038
522.141	681.694
525.227	657.045
528.312	681.178
531.396	667.959
534.479	659.5
537.559	695.218
540.639	631.943
543.718	661.777
546.796	612.259
549.873	591.643
552.948	606.105
556.022	598.739
559.093	585.412
562.165	577.473
565.235	570.43
568.304	551.919
571.372	538.033
574.437	564.452
577.503	535.373
580.567	536.383
583.63	581.487
586.691	532.198
589.75	553.119
592.81	563.039
595.868	562.736
598.924	577.601
601.98	615.171
605.033	616.566
608.086	592.776
611.138	587.765
614.188	613.666
617.236	567.756
620.285	583.57
623.332	572.321
626.376	576.172
629.42	573.955
632.464	555.483
635.506	557.483
638.545	563.021
641.585	551.405
644.623	531.982
647.659	540.088
650.695	527.411
653.73	553.051
656.762	573.876
659.794	589.966
662.825	567.645
665.854	537.061
668.883	528
671.91	522.091
674.935	499.872
677.96	507.312
680.982	478.389
684.005	492.579
687.027	483.514
690.045	487.712
693.064	484.52
696.082	489.756
699.097	476.234
702.113	477.669
705.126	506.31
708.139	470.041
711.149	481.559
714.16	485.037
717.169	468.02
720.176	451.853
723.183	466.818
726.187	459.94
729.192	455.788
732.194	479.741
735.196	452.163
738.196	463.907
741.196	477.527
744.193	459.398
747.19	445.108
750.185	444.836
753.18	469.925
756.173	461.372
759.165	466.218
762.155	475.945
765.146	446.634
768.133	451.954
771.121	466.649
774.107	453.266
777.092	476.4
780.075	447.745
783.058	461.295
786.039	460.654
789.02	469.4
791.998	443.194
794.975	446.122
797.952	456.509
800.927	449.787
803.902	469.395
806.874	442.748
809.845	457.558
812.817	474.088
815.786	461.398
818.755	450.55
821.721	441.583
824.686	475.679
827.652	448.893
830.615	462.509
833.576	468.97
836.538	464.347
839.498	459.933
842.458	468.862
845.415	459.854
848.37	460.314
851.327	479.601
854.28	472.661
857.233	479.86
860.184	481.459
863.135	492.5
866.084	467.672
869.032	486.287
871.98	500.073
874.925	474.851
877.87	492.153
880.813	493.314
883.756	510.52
886.697	475.433
889.636	481.067
892.576	507.5
895.513	484.559
898.45	475.658
901.385	474.175
904.318	493.449
907.253	481.513
910.184	471.429
913.114	495.3
916.044	504.083
918.973	493.396
921.9	517.561
924.826	518.473
927.75	526.994
930.674	529.28
933.596	553.08
936.519	574.524
939.439	588.725
942.357	653.127
945.275	680.849
948.192	733.488
951.107	774.882
954.023	778.235
956.936	786.25
959.848	716.691
962.759	721.477
965.669	733.7
968.577	660.631
971.485	679.329
974.391	697.88
977.296	722.865
980.201	754.205
983.104	818.939
986.006	937.13
988.907	942.099
991.806	952.743
994.704	910.751
997.602	879.436
1000.5	791.981
1003.39	779.109
1006.29	783.585
1009.18	794.93
1012.07	731.419
1014.96	786.167
1017.85	841.864
1020.74	931.17
1023.63	995.147
1026.51	949.431
1029.4	938.165
1032.28	857.825
1035.16	723.592
1038.04	649.653
1040.92	651.623
1043.8	632.343
1046.68	574.385
1049.56	565.416
1052.43	564.091
1055.31	552.019
1058.18	529.128
1061.05	547.834
1063.93	537.275
1066.8	526.439
1069.67	527.344
1072.53	524.348
1075.4	530.998
1078.26	543.387
1081.13	562.523
1083.99	573.889
1086.85	587.185
1089.72	629.674
1092.58	684.667
1095.44	734.824
1098.29	869.071
1101.15	877.517
1104	804.84
1106.86	694.924
1109.71	689.111
1112.56	583.129
1115.42	544.317
1118.27	519.022
1121.11	535.292
1123.96	526.147
1126.81	529.635
1129.65	525.452
1132.5	555.431
1135.34	565.943
1138.18	596.014
1141.03	592.883
1143.87	624.929
1146.7	653.842
1149.54	746.9
1152.38	907.72
1155.21	968.894
1158.05	905.717
1160.88	754.757
1163.71	659.608
1166.55	593.201
1169.37	517.099
1172.2	504.839
1175.03	506.287
1177.86	499.871
1180.68	488.705
1183.51	473.721
1186.33	464.847
1189.15	466.816
1191.98	460.031
1194.8	448.611
1197.61	445.961
1200.43	443.542
1203.25	448.168
1206.06	456.773
1208.88	422.223
1211.69	467.363
1214.51	462.431
1217.32	428.808
1220.13	449.674
1222.94	429.868
1225.74	429.91
1228.55	451.919
1231.36	448.892
1234.16	450.777
1236.97	441.527
1239.77	455.29
1242.57	452.775
1245.37	444.081
1248.17	440.302
1250.97	453.546
1253.77	449.636
1256.56	477.833
1259.36	459.456
1262.15	470.212
1264.94	450.738
1267.74	459.518
1270.53	449.062
1273.32	483.798
1276.11	457.163
1278.89	603.162
1281.68	755.887
1284.46	514.807
1287.25	446.348
1290.03	436.053
1292.81	456.833
1295.59	426.752
1298.38	460.695
1301.15	455.701
1303.93	442.889
1306.71	419.184
1309.48	447.657
1312.26	439.31
1315.03	449.035
1317.81	429.642
1320.58	444.502
1323.35	442.298
1326.12	458.363
1328.88	442.053
1331.65	458.192
1334.42	438.651
1337.18	426.159
1339.95	452.364
1342.71	438.603
1345.47	439.074
1348.23	430.281
1350.99	438.883
1353.75	434.109
1356.51	438.493
1359.26	438.704
1362.02	477.891
1364.77	465.595
1367.53	460.409
1370.28	471.637
1373.03	479.755
1375.78	504.331
1378.53	504.231
1381.28	568.802
1384.03	960.777
1386.77	671.152
1389.52	491.445
1392.26	435.03
1395	455.643
1397.74	457.083
1400.49	452.245
1403.23	461.817
1405.96	475.562
1408.7	460.521
1411.44	447.549
1414.17	425.304
1416.91	449.564
1419.64	434.546
1422.37	419.533
1425.11	423.187
1427.84	439.295
1430.56	449.243
1433.29	426.904
1436.02	432.658
1438.74	456.164
1441.47	439.96
1444.19	420.685
1446.92	436.874
1449.64	441.443
1452.36	441.711
1455.08	441.923
1457.8	435.734
1460.52	407.436
1463.23	444.182
1465.95	433.634
1468.66	453.51
1471.38	433.507
1474.09	426.127
1476.8	434.551
1479.51	426.249
1482.22	415.837
1484.93	445.389
1487.64	440.336
1490.34	432.184
1493.05	434.599
1495.75	442.364
1498.46	446.975
1501.16	468.555
1503.86	423.637
1506.56	427.318
1509.26	441.669
1511.96	438.032
1514.65	422.77
1517.35	454.298
1520.05	438.012
1522.74	428.068
1525.43	435.263
1528.13	429.562
1530.82	441.077
1533.51	434.423
1536.2	448.095
1538.88	428.215
1541.57	442.849
1544.25	442.183
1546.94	433.735
1549.62	452.185
1552.31	433.714
1554.99	441.019
1557.67	446.094
1560.35	434.001
1563.03	416.532
1565.71	444.363
1568.38	452.752
1571.06	446.042
1573.73	429.664
1576.41	444.574
1579.08	429.501
1581.75	433.812
1584.42	445.7
1587.09	453.317
1589.76	420.046
1592.43	448.226
1595.09	439.833
1597.76	455.235
1600.42	433.96
1603.09	440.838
1605.75	443.442
1608.41	432.089
1611.07	439.216
1613.73	455.168
1616.39	434.234
1619.05	447.073
1621.7	430.455
1624.36	444.409
1627.01	446.342
1629.67	448.277
1632.32	453.48
1634.97	459.68
1637.62	466.898
1640.27	462.682
1642.92	448.673
1645.57	451.252
1648.22	428.317
1650.86	455.145
1653.51	454.28
1656.15	453.333
1658.79	430.152
1661.43	451.285
1664.07	475.747
1666.71	432.514
1669.35	442.509
1671.99	449.167
1674.63	453.606
1677.26	430.247
1679.9	450.202
1682.53	430.1
1685.16	442.089
1687.79	449.64
1690.43	453.91
1693.05	443.863
1695.68	435.032
1698.31	429.67
1700.94	427.885
1703.56	439.149
1706.19	449.035
1708.81	451.143
1711.44	442.634
1714.06	447.091
1716.68	441.928
1719.3	439.411
1721.92	458.835
1724.53	459.115
1727.15	434.94
1729.77	443.245
1732.38	449.324
1735	437.406
1737.61	436.699
1740.22	440.499
1742.83	438.662
1745.44	448.113
1748.05	437.166
1750.66	441.981
1753.27	453.553
1755.87	453.786
1758.48	439.201
1761.08	439.268
1763.69	434.81
1766.29	436.042
1768.89	442.959
1771.49	440.831
1774.09	429.642
1776.69	444.591
1779.29	427.853
1781.88	438.401
1784.48	443.305
1787.07	447.12
1789.66	428.263
1792.26	444.698
1794.85	434.934
1797.44	440.028
1800.03	439.496
1802.62	448.115
1805.21	446.452
1807.79	469.998
1810.38	447.496
1812.96	441.066
1815.55	439.233
1818.13	466.274
1820.71	450.577
1823.29	452.246
1825.87	458.548
1828.45	448.644
1831.03	454.997
1833.61	448.562
1836.18	438.695
1838.76	426.329
1841.33	450.051
1843.91	458.621
1846.48	440.325
1849.05	444.178
1851.62	442.212
1854.19	454.119
1856.76	435.745
1859.33	437.281
1861.89	438.895
1864.46	439.31
1867.02	448.048
1869.59	448.464
1872.15	438.212
1874.71	464.429
1877.27	445.873
1879.83	429.602
1882.39	451.129
1884.95	454.875
1887.51	435.007
1890.06	425.599
1892.62	449.258
1895.17	455.175
1897.73	461.157
1900.28	451.858
1902.83	420.258
1905.38	443.184
1907.93	451.919
1910.48	443.025
1913.03	443.721
1915.57	457.606
1918.12	442.765
1920.66	448.804
1923.21	458.76
1925.75	461.6
1928.29	445.294
1930.83	444.526
1933.37	447.342
1935.91	454.925
1938.45	449.274
1940.99	455.594
1943.53	451.061
1946.06	458.518
1948.6	450.314
1951.13	457.684
1953.66	460.202
1956.19	453.059
1958.73	430.225
1961.26	473.659
1963.78	443.549
1966.31	455.604
1968.84	472.392
1971.36	466.243
1973.89	450.446
1976.41	457.55
1978.94	461.037
1981.46	451.272
1983.98	452.354
1986.5	458.26
1989.02	453.361
1991.54	450.877
1994.06	433.988
1996.58	438.763
1999.09	459.203
2001.61	450.818
2004.12	455.696
2006.63	451.015
2009.15	457.167
2011.66	442.928
2014.17	444.304
2016.68	449.31
2019.19	451.823
2021.69	444.744
2024.2	461.865
2026.71	447.675
2029.21	435.922
2031.72	448.385
2034.22	430.678
2036.72	460.146
2039.22	449.686
2041.72	451.351
2044.22	456.679
2046.72	451.1
2049.22	455.258
2051.71	461.841
2054.21	462.112
2056.71	457.717
2059.2	468.002
2061.69	455.069
2064.18	458.027
2066.68	469.594
2069.17	465.179
2071.66	477.957
2074.14	458.788
2076.63	461.711
2079.12	454.764
2081.6	467.515
2084.09	451.844
2086.57	462.048
2089.06	453.67
2091.54	468.91
2094.02	469.368
2096.5	455.037
2098.98	472.937
2101.46	454.863
2103.93	482.817
2106.41	453.551
2108.89	456.677
2111.36	471.085
2113.84	475.571
2116.31	485.085
2118.78	459.477
2121.25	472.754
2123.72	464.645
2126.19	453.973
2128.66	464.712
2131.13	456.481
2133.59	458.321
2136.06	463.937
2138.53	440.352
2140.99	473.864
2143.45	480.738
2145.92	471.018
2148.38	471.424
2150.84	467.932
2153.3	493.756
2155.76	460.843
2158.21	462.346
2160.67	461.253
2163.13	465.225
2165.58	478.096
2168.04	464.082
2170.49	471.856
2172.94	478.44
2175.39	485.02
2177.84	463.404
2180.29	477.515
2182.74	486.494
2185.19	471.056
2187.64	464.667
2190.08	480.093
2192.53	464.851
2194.98	473.947
2197.42	474.175
2199.86	460.357
2202.3	477.369
2204.74	480.328
2207.18	466.62
2209.62	465.806
2212.06	463.737
2214.5	468.116
2216.93	458.364
2219.37	471.872
2221.81	468.592
2224.24	480.854
2226.67	461.999
2229.11	463.887
2231.54	473.583
2233.97	471.58
2236.4	480.002
2238.83	477.996
2241.25	479.895
2243.68	467.419
2246.1	468.023
2248.53	479.124
2250.96	477.098
2253.38	469.782
2255.8	461.138
2258.22	481.54
2260.64	488.761
2263.06	488.013
2265.48	469.985
2267.9	491.63
2270.32	489.383
2272.73	491.07
2275.15	475.446
2277.56	478.379
2279.98	462.651
2282.39	492.055
2284.8	477.518
2287.21	474.903
2289.62	477.643
2292.03	489.671
2294.44	471.092
2296.85	473.852
2299.26	468.712
2301.66	462.249
2304.07	491.851
2306.47	469.557
2308.88	463.299
2311.28	465.114
2313.68	477.654
2316.08	483.589
2318.48	474.829
2320.88	476.768
2323.28	501.557
2325.68	479.352
2328.07	481.35
2330.47	472.57
2332.86	482.755
2335.26	474.014
2337.65	499.176
2340.04	490.452
2342.43	484.481
2344.82	486.68
2347.21	493.092
2349.6	478.882
2351.99	470.124
2354.38	474.989
2356.76	483.893
2359.15	490.047
2361.53	482.185
2363.92	471.683
2366.3	481.866
2368.68	489.3
2371.06	499.495
2373.44	493.071
2375.82	496.333
2378.2	474.628
2380.58	495.803
2382.95	482.245
2385.33	478.293
2387.71	493.81
2390.08	467.531
2392.45	475.96
2394.83	492.74
2397.2	489.943
2399.57	494.113
2401.94	481.598
2404.31	495.444
2406.68	503.753
2409.04	492.738
2411.41	494.513
2413.78	475.545
2416.14	489.109
2418.51	493.4
2420.87	488.713
2423.23	484.962
2425.59	493.629
2427.95	498.457
2430.31	487.807
2432.67	484.231
2435.03	483.527
2437.39	501.27
2439.75	482.169
2442.1	495.666
2444.46	509.203
2446.81	478.628
2449.16	503.605
2451.52	500.08
2453.87	486.491
2456.22	504.389
2458.57	508.003
2460.92	510.171
2463.27	499.404
2465.61	482.809
2467.96	509.441
2470.3	501.435
2472.65	499.166
2474.99	514.292
2477.34	514.985
2479.68	521.469
2482.02	506.114
2484.36	513.988
2486.7	510.142
2489.04	494.626
2491.38	521.412
2493.72	508.78
2496.05	523.976
2498.39	502.517
2500.72	514.731
2503.06	501.992
2505.39	517.119
2507.72	511.656
2510.06	513.509
2512.39	515.329
2514.72	512.704
2517.04	502.699
2519.37	497.178
2521.7	516.787
2524.03	523.11
2526.35	505.745
2528.68	501.697
2531	506.519
2533.33	520.313
2535.65	507.447
2537.97	519.828
2540.29	511.436
2542.61	517.914
2544.93	518.454
2547.25	508.613
2549.57	509.164
2551.88	541.122
2554.2	516.267
2556.51	515.244
2558.83	496.206
2561.14	514.76
2563.46	495.791
2565.77	512.964
2568.08	516.613
2570.39	515.794
2572.7	528.555
2575.01	527.712
2577.31	526.822
2579.62	506.167
2581.93	536.987
2584.23	520.656
2586.54	524.035
2588.84	521.273
2591.15	518.339
2593.45	552.099
2595.75	538.775
2598.05	536.206
2600.35	518.294
2602.65	524.735
2604.95	528.106
2607.24	532.987
2609.54	514.953
2611.84	525.82
2614.13	519.916
2616.42	509.408
2618.72	529.557
2621.01	517.521
2623.3	530.025
2625.59	521.121
2627.88	535.23
2630.17	529.548
2632.46	519.357
2634.75	530.739
2637.04	522.253
2639.32	526.195
2641.61	526.995
2643.89	518.56
2646.18	544.247
2648.46	527.995
2650.74	544.36
2653.02	543.666
2655.3	523.951
2657.58	549.395
2659.86	513.93
2662.14	529.954
2664.42	536.556
2666.69	552.508
2668.97	542.032
2671.24	508.02
2673.52	525.931
2675.79	537.773
2678.06	527.944
2680.33	519.885
2682.61	527.397
2684.88	538.12
2687.15	547.304
2689.41	546.919
2691.68	530.38
2693.95	548.981
2696.22	533.225
2698.48	561.069
2700.74	537.626
2703.01	552.64
2705.27	562.812
2707.53	547.251
2709.8	533.228
2712.06	551.415
2714.32	547.092
2716.57	549.409
2718.83	559.605
2721.09	535.879
2723.35	570.373
2725.6	552.922
2727.86	556.53
2730.11	537.348
2732.37	547.268
2734.62	567.033
2736.87	547.716
2739.12	549.502
2741.37	551.455
2743.62	555.04
2745.87	560.322
2748.12	552.626
2750.37	564.606
2752.61	547.622
2754.86	572.856
2757.1	542.302
2759.35	552.591
2761.59	552.942
2763.83	551.794
2766.08	545.768
2768.32	541.404
2770.56	548.434
2772.8	577.039
2775.04	559.562
2777.27	571.89
2779.51	564.403
2781.75	567.054
2783.98	563.004
2786.22	567.299
2788.45	574.906
2790.68	560.812
2792.92	565.033
2795.15	562.539
2797.38	571.657
2799.61	557.306
2801.84	583.178
2804.07	563.633
2806.3	569.262
2808.52	571.502
2810.75	563.596
2812.98	570.852
2815.2	564.498
2817.42	554.767
2819.65	575.507
2821.87	570.885
2824.09	583.24
2826.31	583.738
2828.53	563.826
2830.75	565.957
2832.97	569.772
2835.19	585.476
2837.41	562.048
2839.62	557.338
2841.84	571.39
2844.05	571.828
2846.27	584.31
2848.48	581.415
2850.69	576.859
2852.9	575.808
2855.12	571.383
2857.33	560.08
2859.54	583.125
2861.74	566.699
2863.95	596.861
2866.16	585.715
2868.37	597.019
2870.57	575.413
2872.78	581.496
2874.98	573.71
2877.18	569.398
2879.39	589.527
2881.59	581.805
2883.79	581.093
2885.99	594.434
2888.19	606.007
2890.39	577.123
2892.59	583.368
2894.78	584.331
2896.98	603.121
2899.18	593.63
2901.37	592.924
2903.57	624.08
2905.76	589.416
2907.95	606.349
2910.15	600.077
2912.34	598.969
2914.53	588.899
2916.72	602.074
2918.91	595.636
2921.09	598.172
2923.28	607.914
2925.47	614.162
2927.65	600.627
2929.84	608.732
2932.02	606.034
2934.21	614.051
2936.39	598.441
2938.57	611.743
2940.75	612.295
2942.94	589.242
2945.12	611.586
2947.29	606.516
2949.47	610.592
2951.65	607.402
2953.83	606.012
2956	621.054
2958.18	619.65
2960.36	614.61
2962.53	611.42
2964.7	604.572
2966.88	595.934
2969.05	633.177
2971.22	619.065
2973.39	606.777
2975.56	629.436
2977.73	618.972
2979.9	639.835
2982.06	636.818
2984.23	630.183
2986.4	614.315
2988.56	629.949
2990.73	614.111
2992.89	642.869
2995.05	634.449
2997.21	629.818
2999.38	638.266
3001.54	626.212
3003.7	629.139
3005.86	647.101
3008.01	665.094
3010.17	660.54
3012.33	627.567
3014.49	647.513
3016.64	641.091
3018.8	611.956
3020.95	643.437
3023.1	652.127
3025.26	645.506
3027.41	669.261
3029.56	656.758
3031.71	661.382
3033.86	644.869
3036.01	639.736
3038.16	657.492
3040.31	665.971
3042.45	662.791
3044.6	673.007
3046.74	675.521
3048.89	672.248
3051.03	667.032
3053.18	679.169
3055.32	683.662
3057.46	670.766
3059.6	679.094
3061.74	675.816
3063.88	691.913
3066.02	698.347
3068.16	685.364
3070.3	680.134
3072.43	671.004
3074.57	689.141
3076.7	676.143
3078.84	702.134
3080.97	691.069
3083.1	691.708
3085.24	698.364
3087.37	718.759
3089.5	692.269
3091.63	679.517
3093.76	700.229
3095.89	721.092
3098.02	722.269
3100.14	705.647
3102.27	734.568
3104.4	716.055
3106.52	735.28
3108.65	736.671
3110.77	736.131
3112.89	703.627
3115.01	731.008
3117.14	740.485
3119.26	745.962
3121.38	731.42
3123.5	735.004
3125.62	762.935
3127.73	740.335
3129.85	735.991
3131.97	741.901
3134.08	729.405
3136.2	751.651
3138.31	757.523
3140.43	790.083
3142.54	785.603
3144.65	758.291
3146.76	786.705
3148.87	765.431
3150.98	802.098
3153.09	824.13
3155.2	814.963
3157.31	805.716
3159.42	785.995
3161.52	820.664
3163.63	807.22
3165.73	825.117
3167.84	847.216
3169.94	833.522
3172.05	805.308
3174.15	848.526
3176.25	862.047
3178.35	824.744
3180.45	852.903
3182.55	832.324
3184.65	854.061
3186.75	863.069
3188.84	850.643
3190.94	830.054
3193.04	847.746
3195.13	886.77
3197.23	887.786
3199.32	863.495
3201.41	905.722
3203.51	883.741
3205.6	833.917
3207.69	844.211
3209.78	882.48
3211.87	882.125
3213.96	860.211
3216.05	823.134
3218.13	853.086
3220.22	872.165
3222.31	865.201
3224.39	842.898
3226.48	866.506
3228.56	863.836
3230.64	909.411
3232.73	891.415
3234.81	906.173
3236.89	852.541
3238.97	854.155
3241.05	915.767
3243.13	830.982
3245.21	828.476
3247.29	863.46
3249.36	851.706
3251.44	877.52
3253.52	856.357
3255.59	857.313
3257.66	876.265
3259.74	861.986
3261.81	870.162
3263.88	921.42
3265.95	846.398
3268.03	867.337
3270.1	861.597
3272.17	879.916
3274.23	892.563
3276.3	875.057
3278.37	885.162
3280.44	853.993
3282.5	886.953
3284.57	897.034
3286.63	838.226
3288.7	866.63
3290.76	862.851
3292.82	886.655
3294.88	832.108
3296.94	839.742
3299	872.844
3301.06	885.426
3303.12	865.409
3305.18	863.961
3307.24	876.404
3309.3	902.755
3311.35	891.938
3313.41	878.714
3315.46	865.621
3317.52	843.08
3319.57	843.97
3321.63	856.541
3323.68	869.314
3325.73	842.289
3327.78	899.677
3329.83	917.279
3331.88	900.106
3333.93	845.264
3335.98	896.264
3338.02	864.78
3340.07	896.654
3342.12	907.182
3344.16	898.612
3346.21	897.16
3348.25	876.409
3350.3	893.918
3352.34	913.727
3354.38	919.257
3356.42	889.327
3358.46	876.005
3360.5	874.584
3362.54	901.935
3364.58	905.283
3366.62	884.643
3368.66	892.785
3370.69	915.381
3372.73	897.002
3374.76	907.4
3376.8	934.576
3378.83	899.083
3380.87	899.71
3382.9	919.612
3384.93	946.767
3386.96	920.762
3388.99	911.622
3391.02	875.8
3393.05	910.153
3395.08	937.395
3397.11	909.008
3399.14	897.567
3401.16	905.43
3403.19	900.999
3405.21	915.986
3407.24	904.294
3409.26	926.612
3411.29	902.594
3413.31	958.935
3415.33	905.741
3417.35	935.352
3419.37	940.583
3421.39	933.6
3423.41	902.203
3425.43	929.37
3427.45	932.273
3429.46	954.769
3431.48	894.281
3433.5	938.899
3435.51	922.487
3437.53	884.072
3439.54	931.439
3441.55	934.731
3443.57	938.115
3445.58	907.242
3447.59	937.967
3449.6	904.622
3451.61	942.77
3453.62	916.909
3455.63	876.226
3457.64	932.255
3459.64	933.869
3461.65	975.317
3463.66	879.834
3465.66	928.832
3467.67	915.467
3469.67	927.028
3471.67	900.947
3473.68	894.382
3475.68	938.545
3477.68	927.372
3479.68	903.541
3481.68	980.714
3483.68	903.669
3485.68	940.448
3487.68	918.914
3489.67	902.373
3491.67	916.329
3493.67	927.716
3495.66	933.906
3497.66	919.627
3499.65	892.464
3501.64	913.809
3503.64	917.117
3505.63	907.64
3507.62	944.14
3509.61	931.727
3511.6	906.357
3513.59	929.771
3515.58	901.798
3517.57	881.497
3519.56	886.896
3521.54	897.424
3523.53	897.693
3525.52	903.185
3527.5	916.427
3529.49	895.986
3531.47	901.643
3533.45	879.191
3535.43	898.102
3537.42	927.539
3539.4	897.661
3541.38	854.559
3543.36	902.012
3545.34	900.182
3547.32	890.512
3549.29	888.533
3551.27	886.396
3553.25	881.172
3555.22	889.315
3557.2	905.374
3559.17	900.695
3561.15	890.865
3563.12	865.458
3565.09	863.559
3567.07	890.506
3569.04	875.929
3571.01	879.391
3572.98	903.88
3574.95	868.185
3576.92	890.263
3578.88	873.056
3580.85	895.37
3582.82	883.52
3584.79	911.26
3586.75	899.387
3588.72	879.51
3590.68	872.831
3592.64	911.292
3594.61	888.665
3596.57	887.297
3598.53	869.844
3600.49	905.661
3602.45	888.093
3604.41	875.807
3606.37	890.217
3608.33	899.237
3610.29	875.957
3612.25	871.463
3614.2	867.049
3616.16	881.308
3618.12	874.087
3620.07	904.498
3622.02	864.485
3623.98	862.091
3625.93	894.805
3627.88	859.944
3629.84	879.108
3631.79	873.805
3633.74	871.289
3635.69	863.459
3637.64	850.335
3639.58	896.963
3641.53	884.196
3643.48	879.628
3645.43	872.351
3647.37	857.111
3649.32	895.259
3651.26	868.539
3653.21	893.562
3655.15	883.056
3657.09	875.286
3659.03	864.754
3660.98	892.405
3662.92	851.749
3664.86	857.58
3666.8	863.494
3668.74	874.899
3670.67	869.838
3672.61	853.846
3674.55	862.679
3676.49	860.639
3678.42	866.931
3680.36	870.572
3682.29	852.329
3684.23	864.424
3686.16	873.908
3688.09	855.8
3690.02	881.89
3691.96	880.394
3693.89	873.215
3695.82	882.571
3697.75	864.35
3699.68	873.846
3701.61	866.696
3703.53	864.92
3705.46	877.318
3707.39	886.948
3709.31	871.37
3711.24	895.001
3713.16	859.696
3715.09	866.349
3717.01	875.768
3718.93	868.236
3720.86	877.582
3722.78	892.552
3724.7	893.354
3726.62	891.277
3728.54	900.552
3730.46	875.834
3732.38	871.022
3734.29	880.371
3736.21	881.216
3738.13	882.02
3740.04	899.873
3741.96	869.247
3743.87	881.363
3745.79	873.468
3747.7	885.507
3749.62	888.926
3751.53	895.13
3753.44	904.142
3755.35	878.746
3757.26	873.311
3759.17	879.284
3761.08	882.355
3762.99	891.164
3764.9	894.209
3766.81	868.619
3768.71	886.123
3770.62	883.615
3772.52	884.014
3774.43	875.782
3776.33	899.142
3778.24	890.989
3780.14	871.402
3782.04	903.669
3783.95	878.466
3785.85	902.218
3787.75	911.529
3789.65	889.038
3791.55	886.762
3793.45	904.828
3795.34	891.201
3797.24	906.575
3799.14	887.19
3801.04	899.727
3802.93	915.214
3804.83	895.88
3806.72	908.573
3808.62	897.967
3810.51	898.95
3812.4	899.872
3814.29	900.781
3816.19	907.527
3818.08	923.084
3819.97	903.432
3821.86	913.062
3823.75	902.087
3825.64	911.574
3827.52	906.427
3829.41	913.104
3831.3	902.187
3833.18	906.002
3835.07	895.009
3836.95	922.377
3838.84	899.445
3840.72	915.117
3842.61	910.138
3844.49	901.87
3846.37	914.188
3848.25	929.275
3850.13	911.798
3852.01	915.086
3853.89	906.326
3855.77	930.365
3857.65	924.464
3859.53	918.485
3861.41	936.459
3863.28	915.868
3865.16	907.645
3867.03	914.592
3868.91	915.834
3870.78	928.659
3872.66	925.792
3874.53	902.177
3876.4	908.438
3878.27	920.671
3880.14	929.936
3882.01	915.304
3883.89	927.638
3885.75	919.072
3887.62	934.499
3889.49	911.011
3891.36	929.533
3893.23	927.219
3895.09	931.186
3896.96	922.897
3898.82	941.649
3900.69	912.294
3902.55	919.024
3904.42	940.745
3906.28	929.398
3908.14	942.051
3910	939.742
3911.87	922.43
3913.73	938.325
3915.59	914.963
3917.45	940.156
3919.3	929.056
3921.16	933.253
3923.02	919.179
3924.88	941.569
3926.73	960.909
3928.59	958.862
3930.45	932.327
3932.3	939.269
3934.15	958.321
3936.01	940.65
3937.86	932.089
3939.71	939.033
3941.56	933.767
3943.42	937.874
3945.27	947.989
3947.12	939.662
3948.97	946.665
3950.81	947.388
3952.66	941.891
3954.51	945.597
3956.36	930.758
3958.2	949.814
3960.05	934.712
3961.9	956.756
3963.74	938.539
3965.58	966.693
3967.43	938.99
3969.27	957.663
3971.11	939.204
3972.96	942.467
3974.8	958.145
3976.64	948.987
3978.48	952.185
3980.32	955.279
3982.16	949.007
3984	936.565
3985.83	955.168
3987.67	958.208
3989.51	948.931
3991.34	949.058
3993.18	946.182
3995.01	961.985
3996.85	937.575
3998.68	947.347
