#Acq. time (s)=	45
#Accumulations=	2
#Range (cm-¹)=	100...4000
#Windows=	1
#Auto scanning=	Off
#Autofocus=	Off
#Macrospot=	Off
#AutoExposure=	Off
#Spike filter=	Multiple accum.
#Delay time (s)=	2
#Binning=	1
#Readout mode=	Signal
#DeNoise=	Off
#ICS correction=	On
#Dark correction=	Off
#Inst. Process=	Off
#Detector Gain=	Best Dynamic
#Detector ADC=	50 kHz HS
#Detector temperature (°C)=	-60.09
#Instrument=	LabRAM HR Evol
#Detector=	SIN-EM FIVIS
#Objective=	x100_VIS_LWD
#Grating=	150 (500nm)
#ND Filter=	100%
#Laser=	633nm_Edge
#Hole=	49.98
#Temperature=	0
#Range=	Visible
#StageXY=	75x50mm Scan+
#StageZ=	Z motor
#X (µm)=	0
#Y (µm)=	0
#Z (µm)=	-18
#Full time(mm:ss)=	1:34
#Project=	21_11_22
#Sample=	BU04w
#Site=	
#Title=	BU04w-A-FF3-FI07-V_150 (500nm)_633nm_Edge_100%_x100_VIS_LWD_H50um_45sX2
#Remark=	
#Date=	22.11.2021 12:42
#Acquired=	22.11.2021 12:42:14
100.177	416.998
103.438	424.77
106.695	403.978
109.954	391.782
113.209	384.337
116.464	386.428
119.717	374.124
122.969	383.834
126.219	372.466
129.469	394.6
132.716	383.187
135.963	412.907
139.208	414.809
142.452	385.16
145.694	367.986
148.936	366.099
152.175	347.019
155.414	396.915
158.651	482.262
161.887	560.979
165.121	522.81
168.353	403.088
171.586	325.477
174.815	300.541
178.045	278.434
181.272	270.687
184.5	256.168
187.724	266.531
190.947	254.83
194.17	263.229
197.39	249.677
200.611	234.298
203.829	261.029
207.045	244.766
210.262	255.209
213.475	250.386
216.688	269.418
219.9	285.566
223.11	319.802
226.32	372.056
229.527	458.383
232.733	556.107
235.939	568.181
239.142	473.816
242.344	406.147
245.546	357.686
248.745	334.808
251.943	341.351
255.141	364.005
258.336	353.48
261.53	371.43
264.723	335.317
267.916	319.151
271.106	330.513
274.294	324.815
277.483	362.753
280.669	365.561
283.854	395.83
287.038	382.466
290.221	358.646
293.402	319.653
296.582	302.479
299.76	302.354
302.938	308.837
306.114	300.171
309.288	346.337
312.461	397.191
315.634	465.952
318.805	624.323
321.974	866.732
325.142	1018.51
328.309	942.873
331.475	756.997
334.639	599.403
337.802	480.503
340.963	426.7
344.123	323.871
347.282	331.324
350.441	323.716
353.597	329.247
356.752	346.057
359.906	360.952
363.058	360.77
366.209	364.341
369.36	358.519
372.509	309.499
375.656	274.586
378.802	256.623
381.947	268.681
385.09	250.811
388.232	248.984
391.373	261.29
394.512	289.627
397.652	290.811
400.789	303.422
403.925	300.9
407.059	310.656
410.192	320.412
413.324	344.295
416.455	377.57
419.584	406.253
422.712	456.538
425.839	523.645
428.964	593.029
432.089	661.272
435.212	617.127
438.333	559.867
441.454	488.643
444.573	449.492
447.691	416.958
450.807	447.233
453.923	427.908
457.037	419.9
460.15	378.411
463.261	326.844
466.371	298.741
469.48	275.305
472.588	274.315
475.695	272.457
478.8	281.822
481.904	287.426
485.007	280.917
488.108	296.771
491.208	289.342
494.307	276.341
497.405	309.912
500.502	324.877
503.597	332.43
506.691	376.343
509.784	373.654
512.874	388.736
515.964	384.229
519.053	373.264
522.141	365.16
525.227	345.838
528.312	332.156
531.396	334.448
534.479	337.735
537.559	312.801
540.639	312.205
543.718	296.48
546.796	270.281
549.873	271.288
552.948	279.922
556.022	269.622
559.093	252.577
562.165	242.973
565.235	247.501
568.304	226.513
571.372	227.159
574.437	209.908
577.503	219.869
580.567	226.067
583.63	231.379
586.691	242.29
589.75	271.896
592.81	333.256
595.868	380.592
598.924	417.829
601.98	402.191
605.033	354.922
608.086	338.396
611.138	313.506
614.188	337.236
617.236	319.011
620.285	304.451
623.332	305.896
626.376	294.205
629.42	288.862
632.464	297.547
635.506	304.21
638.545	269.25
641.585	270.99
644.623	281.997
647.659	285.569
650.695	297.55
653.73	303.755
656.762	333.354
659.794	305.752
662.825	295.979
665.854	266.662
668.883	229.018
671.91	218.626
674.935	207.503
677.96	186.045
680.982	181.378
684.005	182.385
687.027	176.884
690.045	163.038
693.064	175.381
696.082	168.09
699.097	162.651
702.113	169.39
705.126	171.431
708.139	162.164
711.149	152.839
714.16	157.449
717.169	170.574
720.176	169.562
723.183	167.66
726.187	172.243
729.192	167.403
732.194	152.262
735.196	166.167
738.196	167.886
741.196	152.79
744.193	153.6
747.19	170.298
750.185	169.261
753.18	151.514
756.173	168.238
759.165	169.237
762.155	160.981
765.146	149.968
768.133	170.769
771.121	155.081
774.107	152.496
777.092	153.632
780.075	155.676
783.058	157.688
786.039	164.385
789.02	160.708
791.998	171.148
794.975	146.664
797.952	158.929
800.927	163.602
803.902	155.994
806.874	151.194
809.845	164.288
812.817	161.321
815.786	166.799
818.755	162.855
821.721	163.601
824.686	167.143
827.652	153.839
830.615	175.193
833.576	147.137
836.538	177.984
839.498	165.931
842.458	174.536
845.415	169.05
848.37	161.719
851.327	160.962
854.28	154.578
857.233	173.596
860.184	176.66
863.135	174.073
866.084	175.259
869.032	176.444
871.98	193.684
874.925	185.296
877.87	192.973
880.813	211.081
883.756	201.646
886.697	208.298
889.636	200.682
892.576	200.629
895.513	196.763
898.45	198.507
901.385	189.765
904.318	181.971
907.253	194.966
910.184	175.843
913.114	204.806
916.044	205.489
918.973	205.347
921.9	218.39
924.826	221.196
927.75	236.255
930.674	239.257
933.596	263.842
936.519	288.675
939.439	311.817
942.357	355.865
945.275	382.09
948.192	432.217
951.107	446.389
954.023	469.132
956.936	468.983
959.848	436.226
962.759	416.715
965.669	425.757
968.577	443.457
971.485	489.827
974.391	517.891
977.296	570.708
980.201	651.054
983.104	771.472
986.006	817.833
988.907	857.368
991.806	801.126
994.704	729.652
997.602	682.255
1000.5	631.2
1003.39	583.139
1006.29	583.876
1009.18	576.181
1012.07	598.39
1014.96	644.485
1017.85	686.758
1020.74	760.694
1023.63	761.416
1026.51	741.264
1029.4	618.576
1032.28	509.034
1035.16	401.195
1038.04	364.287
1040.92	327.257
1043.8	302.656
1046.68	305.082
1049.56	265.765
1052.43	284.469
1055.31	272.129
1058.18	245.146
1061.05	254.004
1063.93	247.263
1066.8	253.021
1069.67	255.903
1072.53	257.804
1075.4	290.738
1078.26	308.081
1081.13	331.21
1083.99	347.533
1086.85	350.276
1089.72	377.32
1092.58	421.743
1095.44	516.507
1098.29	525.991
1101.15	500.678
1104	405.806
1106.86	336.332
1109.71	262.772
1112.56	253.303
1115.42	238.199
1118.27	233.754
1121.11	223.363
1123.96	219.715
1126.81	224.827
1129.65	241.728
1132.5	257.669
1135.34	251.149
1138.18	297.517
1141.03	336.196
1143.87	361.103
1146.7	402.629
1149.54	496.457
1152.38	580.37
1155.21	525.31
1158.05	419.879
1160.88	336.049
1163.71	260.009
1166.55	223.433
1169.37	214.395
1172.2	198.505
1175.03	190.469
1177.86	173.634
1180.68	178.377
1183.51	161.651
1186.33	158.692
1189.15	162.604
1191.98	156.762
1194.8	160.777
1197.61	159.901
1200.43	139.525
1203.25	145.63
1206.06	145.873
1208.88	137.296
1211.69	133.603
1214.51	134.876
1217.32	135.179
1220.13	127.557
1222.94	136.822
1225.74	139.147
1228.55	129.477
1231.36	142.784
1234.16	138.044
1236.97	137.286
1239.77	133.464
1242.57	133.614
1245.37	135.748
1248.17	137.847
1250.97	137.882
1253.77	134.891
1256.56	135.874
1259.36	144.905
1262.15	134.707
1264.94	144.7
1267.74	131.507
1270.53	133.41
1273.32	154.393
1276.11	204.467
1278.89	247.387
1281.68	184.962
1284.46	132.708
1287.25	137.607
1290.03	130.516
1292.81	131.452
1295.59	129.425
1298.38	124.418
1301.15	131.414
1303.93	124.469
1306.71	130.557
1309.48	136.701
1312.26	125.875
1315.03	129.085
1317.81	128.289
1320.58	123.473
1323.35	114.614
1326.12	127.998
1328.88	115.076
1331.65	115.31
1334.42	116.532
1337.18	114.696
1339.95	117.941
1342.71	118.085
1345.47	129.471
1348.23	122.425
1350.99	116.386
1353.75	132.901
1356.51	114.501
1359.26	125.858
1362.02	117.674
1364.77	122.823
1367.53	121.782
1370.28	119.707
1373.03	123.791
1375.78	143.288
1378.53	175.094
1381.28	313.662
1384.03	236.602
1386.77	153.421
1389.52	118.501
1392.26	124.661
1395	115.45
1397.74	123.772
1400.49	123.853
1403.23	133.197
1405.96	124.037
1408.7	120.024
1411.44	109.825
1414.17	127.488
1416.91	115.233
1419.64	122.604
1422.37	115.501
1425.11	118.762
1427.84	104.372
1430.56	111.791
1433.29	125.468
1436.02	114.159
1438.74	110.127
1441.47	118.611
1444.19	111.45
1446.92	105.29
1449.64	108.526
1452.36	120.133
1455.08	122.29
1457.8	107.621
1460.52	113.935
1463.23	111.833
1465.95	118.121
1468.66	104.454
1471.38	114.937
1474.09	110.73
1476.8	105.489
1479.51	108.662
1482.22	110.785
1484.93	117.125
1487.64	114.025
1490.34	116.195
1493.05	113.122
1495.75	109.011
1498.46	104.892
1501.16	115.556
1503.86	106.173
1506.56	111.589
1509.26	111.741
1511.96	97.0457
1514.65	104.63
1517.35	106.925
1520.05	109.237
1522.74	110.486
1525.43	111.757
1528.13	109.801
1530.82	112.147
1533.51	106.993
1536.2	111.485
1538.88	108.402
1541.57	108.552
1544.25	104.329
1546.94	108.704
1549.62	108.719
1552.31	105.454
1554.99	110.795
1557.67	119.354
1560.35	103.102
1563.03	108.449
1565.71	103.002
1568.38	107.259
1571.06	103.969
1573.73	114.685
1576.41	106.03
1579.08	107.106
1581.75	108.184
1584.42	112.502
1587.09	108.215
1589.76	110.397
1592.43	110.44
1595.09	118.043
1597.76	100.864
1600.42	114.967
1603.09	112.911
1605.75	109.779
1608.41	100.171
1611.07	106.822
1613.73	104.83
1616.39	97.4034
1619.05	112.859
1621.7	108.706
1624.36	106.724
1627.01	105.828
1629.67	102.73
1632.32	104.014
1634.97	112.991
1637.62	115.345
1640.27	98.8306
1642.92	114.379
1645.57	114.472
1648.22	104.589
1650.86	110.187
1653.51	106.922
1656.15	103.635
1658.79	106.984
1661.43	107
1664.07	109.233
1666.71	98.1474
1669.35	108.132
1671.99	102.588
1674.63	105.915
1677.26	99.2452
1679.9	103.679
1682.53	105.862
1685.16	114.677
1687.79	102.443
1690.43	107.942
1693.05	111.242
1695.68	101.286
1698.31	100.22
1700.94	90.3435
1703.56	102.839
1706.19	95.2667
1708.81	109.994
1711.44	99.7877
1714.06	95.3275
1716.68	102.112
1719.3	107.896
1721.92	99.0411
1724.53	108.06
1727.15	102.57
1729.77	97.065
1732.38	105.03
1735	114.13
1737.61	102.984
1740.22	108.716
1742.83	98.6708
1745.44	107.795
1748.05	99.9722
1750.66	111.343
1753.27	96.7051
1755.87	100.15
1758.48	97.9147
1761.08	103.59
1763.69	97.9456
1766.29	102.498
1768.89	92.3304
1771.49	90.0926
1774.09	107.127
1776.69	101.507
1779.29	102.707
1781.88	101.65
1784.48	98.3229
1787.07	91.5857
1789.66	92.8283
1792.26	95.211
1794.85	103.311
1797.44	104.578
1800.03	96.712
1802.62	101.428
1805.21	92.3892
1807.79	87.9092
1810.38	97.2066
1812.96	109.979
1815.55	103.18
1818.13	99.8333
1820.71	97.6249
1823.29	91.9528
1825.87	102.479
1828.45	102.597
1831.03	106.205
1833.61	97.0336
1836.18	92.5099
1838.76	97.2635
1841.33	105.517
1843.91	95.1084
1846.48	102.198
1849.05	97.6023
1851.62	105.873
1854.19	91.8771
1856.76	95.4657
1859.33	99.0623
1861.89	101.509
1864.46	100.43
1867.02	95.8422
1869.59	100.64
1872.15	97.1842
1874.71	88.996
1877.27	100.852
1879.83	91.4674
1882.39	104.515
1884.95	96.2918
1887.51	93.9757
1890.06	91.6219
1892.62	99.9009
1895.17	102.266
1897.73	91.6401
1900.28	91.6729
1902.83	102.401
1905.38	96.5761
1907.93	90.7396
1910.48	84.9231
1913.03	105.28
1915.57	93.5471
1918.12	92.4913
1920.66	93.6997
1923.21	93.7829
1925.75	95.0705
1928.29	89.1786
1930.83	89.2647
1933.37	86.9498
1935.91	89.4246
1938.45	79.8844
1940.99	93.1623
1943.53	95.6249
1946.06	86.0474
1948.6	94.5177
1951.13	94.5479
1953.66	92.1609
1956.19	84.9485
1958.73	87.3706
1961.26	95.8166
1963.78	84.9733
1966.31	84.9737
1968.84	92.1887
1971.36	90.9595
1973.89	86.1146
1976.41	96.9284
1978.94	88.4758
1981.46	81.229
1983.98	84.8164
1986.5	84.7962
1989.02	87.1848
1991.54	93.1813
1994.06	87.1583
1996.58	83.5454
1999.09	83.5461
2001.61	87.1581
2004.12	87.1714
2006.63	94.4125
2009.15	88.4258
2011.66	88.4652
2014.17	83.6833
2016.68	86.1277
2019.19	93.3767
2021.69	94.6136
2024.2	85.0169
2026.71	80.2436
2029.21	91.1693
2031.72	90.0396
2034.22	80.4496
2036.72	85.3691
2039.22	91.5128
2041.72	79.4718
2044.22	80.769
2046.72	91.8006
2049.22	84.6
2051.71	89.5655
2054.21	95.7145
2056.71	89.7125
2059.2	82.4807
2061.69	82.5729
2064.18	88.7887
2066.68	88.8919
2069.17	92.6675
2071.66	86.622
2074.14	85.4847
2076.63	88.0329
2079.12	80.7236
2081.6	89.4324
2084.09	90.7392
2086.57	90.8036
2089.06	90.8577
2091.54	81.0385
2094.02	83.5946
2096.5	79.9724
2098.98	87.512
2101.46	88.8599
2103.93	88.9727
2106.41	94.0745
2108.89	90.4619
2111.36	83.096
2113.84	94.4884
2116.31	88.3683
2118.78	93.5274
2121.25	82.3548
2123.72	81.2184
2126.19	86.381
2128.66	86.5021
2131.13	86.6176
2133.59	82.9283
2136.06	85.5621
2138.53	84.3902
2140.99	75.5896
2143.45	87.1178
2145.92	77.0177
2148.38	86.003
2150.84	87.3388
2153.3	74.6376
2155.76	91.2749
2158.21	86.2109
2160.67	83.69
2163.13	81.1588
2165.58	85.0091
2168.04	79.9039
2170.49	74.8064
2172.94	85.0703
2175.39	87.662
2177.84	87.6884
2180.29	92.8145
2182.74	78.7351
2185.19	73.6025
2187.64	74.8844
2190.08	83.8562
2192.53	80.0363
2194.98	86.4632
2197.42	85.2234
2199.86	80.1457
2202.3	82.7696
2204.74	89.2587
2207.18	80.341
2209.62	76.562
2212.06	74.0691
2214.5	79.309
2216.93	76.8244
2219.37	73.0433
2221.81	84.7868
2224.24	83.5987
2226.67	74.6207
2229.11	82.5121
2231.54	81.3158
2233.97	90.5382
2236.4	73.696
2238.83	81.625
2241.25	77.8031
2243.68	80.5217
2246.1	78.0039
2248.53	80.7291
2250.96	82.1449
2253.38	76.9811
2255.8	79.7109
2258.22	77.1783
2260.64	75.9561
2263.06	78.6904
2265.48	81.4199
2267.9	81.4965
2270.32	74.9327
2272.73	69.6789
2275.15	86.9879
2277.56	77.7367
2279.98	84.4204
2282.39	73.8083
2284.8	75.1525
2287.21	79.1505
2289.62	73.8418
2292.03	69.858
2294.44	73.8576
2296.85	84.5214
2299.26	69.9073
2301.66	84.5903
2304.07	77.9764
2306.47	80.7052
2308.88	63.4198
2311.28	82.1969
2313.68	75.5951
2316.08	78.3655
2318.48	85.1741
2320.88	70.5079
2323.28	84.041
2325.68	72.0374
2328.07	74.8318
2330.47	76.2862
2332.86	73.6979
2335.26	67.0392
2337.65	76.6399
2340.04	67.2504
2342.43	79.6128
2344.82	70.2073
2347.21	78.5396
2349.6	73.2005
2351.99	70.5871
2354.38	83.0545
2356.76	74.9209
2359.15	70.8917
2361.53	72.3278
2363.92	79.3034
2366.3	66.9642
2368.68	73.9479
2371.06	71.2575
2373.44	72.7142
2375.82	76.9454
2378.2	70.0839
2380.58	67.357
2382.95	75.7417
2385.33	68.8241
2387.71	68.8552
2390.08	70.2688
2392.45	77.2391
2394.83	77.2516
2397.2	80.0332
2399.57	73.073
2401.94	68.8991
2404.31	64.714
2406.68	61.9255
2409.04	70.2918
2411.41	70.3463
2413.78	57.8742
2416.14	76.1612
2418.51	70.7861
2420.87	73.7282
2423.23	68.1758
2425.59	69.6143
2427.95	73.9237
2430.31	69.7874
2432.67	65.6465
2435.03	69.9841
2437.39	68.6768
2439.75	61.6893
2442.1	67.4618
2444.46	73.2513
2446.81	70.5121
2449.16	70.6188
2451.52	69.2969
2453.87	69.3965
2456.22	72.3626
2458.57	72.4694
2460.92	74.0107
2463.27	61.1662
2465.61	71.3404
2467.96	72.8804
2470.3	80.2006
2472.65	75.96
2474.99	64.4676
2477.34	73.2584
2479.68	67.544
2482.02	76.3534
2484.36	66.2506
2486.7	69.2336
2489.04	63.4697
2491.38	72.2967
2493.72	73.8315
2496.05	79.7673
2498.39	72.5207
2500.72	68.1908
2503.06	74.1246
2505.39	68.3126
2507.72	66.8976
2510.06	68.4188
2512.39	69.9375
2514.72	72.9277
2517.04	71.4983
2519.37	64.1758
2521.7	68.6589
2524.03	74.6245
2526.35	73.2
2528.68	61.4171
2531	67.3877
2533.33	70.4127
2535.65	66.0275
2537.97	66.0925
2540.29	69.1331
2542.61	64.7393
2544.93	60.3373
2547.25	63.3902
2549.57	69.4314
2551.88	73.9932
2554.2	66.5909
2556.51	63.6565
2558.83	65.2114
2561.14	66.7838
2563.46	66.8566
2565.77	63.9325
2568.08	70.0364
2570.39	68.6218
2572.7	61.1613
2575.01	67.287
2577.31	61.3112
2579.62	65.923
2581.93	70.5364
2584.23	66.0308
2586.54	69.1119
2588.84	75.2275
2591.15	58.5221
2593.45	66.1606
2595.75	70.7713
2598.05	66.2641
2600.35	64.7868
2602.65	69.4053
2604.95	75.5527
2607.24	66.4324
2609.54	71.0543
2611.84	66.4918
2614.13	64.9895
2616.42	63.4848
2618.72	55.8637
2621.01	62.0107
2623.3	68.168
2625.59	60.542
2627.88	68.2457
2630.17	66.7691
2632.46	66.8404
2634.75	65.3809
2637.04	63.9336
2639.32	57.866
2641.61	73.4084
2643.89	71.9792
2646.18	70.5506
2648.46	69.1052
2650.74	70.7667
2653.02	61.5324
2655.3	66.2735
2657.58	69.4548
2659.86	60.1407
2662.14	74.2561
2664.42	75.8687
2666.69	55.5638
2668.97	63.446
2671.24	68.2064
2673.52	68.2925
2675.79	66.8286
2678.06	65.402
2680.33	62.4178
2682.61	62.5591
2684.88	64.2886
2687.15	64.4355
2689.41	61.3889
2691.68	59.9073
2693.95	68.0224
2696.22	66.4529
2698.48	68.1298
2700.74	71.4159
2703.01	69.8832
2705.27	65.1254
2707.53	65.1872
2709.8	71.6877
2712.06	62.0745
2714.32	68.5882
2716.57	65.4443
2718.83	68.7376
2721.09	65.5683
2723.35	62.3846
2725.6	67.2911
2727.86	64.0901
2730.11	68.9948
2732.37	72.2653
2734.62	67.4265
2736.87	67.4487
2739.12	62.5912
2741.37	59.3749
2743.62	59.4104
2745.87	72.4835
2748.12	69.2821
2750.37	69.3519
2752.61	71.1091
2754.86	67.9243
2757.1	58.1623
2759.35	69.6888
2761.59	68.0923
2763.83	66.5109
2766.08	66.5772
2768.32	69.9382
2770.56	68.3484
2772.8	63.4743
2775.04	63.5491
2777.27	71.8994
2779.51	67.0332
2781.75	67.1511
2783.98	57.2968
2786.22	65.7136
2788.45	65.8225
2790.68	65.9288
2792.92	66.0319
2795.15	71.1544
2797.38	61.1891
2799.61	62.9487
2801.84	64.7042
2804.07	59.7283
2806.3	61.4735
2808.52	61.5334
2810.75	59.9032
2812.98	65.0231
2815.2	61.6892
2817.42	56.6606
2819.65	70.2457
2821.87	61.8317
2824.09	61.8844
2826.31	61.9373
2828.53	60.2886
2830.75	67.1331
2832.97	68.8829
2835.19	65.5256
2837.41	63.8691
2839.62	65.6193
2841.84	63.9615
2844.05	60.5967
2846.27	60.652
2848.48	58.9965
2850.69	69.3258
2852.9	65.978
2855.12	67.7767
2857.33	66.1445
2859.54	57.6245
2861.74	64.5934
2863.95	62.9636
2866.16	64.7915
2868.37	63.1629
2870.57	70.1934
2872.78	58.1496
2874.98	70.4099
2877.18	61.8153
2879.39	67.1502
2881.59	63.7715
2883.79	62.135
2885.99	65.756
2888.19	69.3834
2890.39	62.463
2892.59	69.6165
2894.78	62.6699
2896.98	57.4822
2899.18	54.0469
2901.37	63.0203
2903.57	82.6772
2905.76	64.9961
2907.95	63.3099
2910.15	65.187
2912.34	68.8367
2914.53	68.9137
2916.72	56.4444
2918.91	63.6899
2921.09	60.1765
2923.28	51.2591
2925.47	65.7387
2927.65	69.4418
2929.84	62.3183
2932.02	58.7944
2934.21	66.1146
2936.39	60.7509
2938.57	66.257
2940.75	62.6831
2942.94	55.4688
2945.12	68.2574
2947.29	61.0159
2949.47	59.2365
2951.65	70.2251
2953.83	66.6248
2956	57.5388
2958.18	66.7175
2960.36	59.4489
2962.53	63.1557
2964.7	68.7014
2966.88	66.9279
2969.05	63.3177
2971.22	65.2131
2973.39	67.1133
2975.56	72.698
2977.73	69.0817
2979.9	65.4586
2982.06	58.1442
2984.23	69.3017
2986.4	60.1363
2988.56	58.3629
2990.73	65.8639
2992.89	71.5331
2995.05	64.1892
2997.21	66.1495
2999.38	62.5202
3001.54	66.3597
3003.7	53.3645
3005.86	72.2127
3008.01	66.6973
3010.17	74.3343
3012.33	70.6719
3014.49	72.68
3016.64	67.1348
3018.8	61.5745
3020.95	71.1766
3023.1	67.4942
3025.26	73.3097
3027.41	69.5955
3029.56	65.8668
3031.71	69.77
3033.86	60.2771
3036.01	66.0805
3038.16	69.9664
3040.31	66.2132
3042.45	73.9636
3044.6	74.0308
3046.74	64.4728
3048.89	70.3068
3051.03	68.4383
3053.18	80.0725
3055.32	74.3531
3057.46	76.3552
3059.6	82.2265
3061.74	70.6799
3063.88	70.7419
3066.02	78.5641
3068.16	80.574
3070.3	74.8147
3072.43	78.7701
3074.57	74.9489
3076.7	82.8129
3078.84	82.8908
3080.97	81.0152
3083.1	86.952
3085.24	79.2262
3087.37	79.3181
3089.5	77.4636
3091.63	85.4307
3093.76	89.4956
3095.89	77.8227
3098.02	99.6573
3100.14	89.9354
3102.27	98.0084
3104.4	98.1849
3106.52	88.4323
3108.65	92.5816
3110.77	92.7645
3112.89	92.9508
3115.01	103.142
3117.14	103.347
3119.26	97.5179
3121.38	95.7092
3123.5	101.972
3125.62	106.244
3127.73	96.345
3129.85	100.64
3131.97	107.005
3134.08	113.395
3136.2	101.381
3138.31	115.989
3140.43	97.7317
3142.54	100.005
3144.65	129.137
3146.76	114.9
3148.87	119.274
3150.98	107.016
3153.09	115.503
3155.2	107.342
3157.31	134.634
3159.42	141.103
3161.52	128.752
3163.63	118.462
3165.73	127.022
3167.84	148.21
3169.94	131.553
3172.05	135.975
3174.15	134.033
3176.25	144.731
3178.35	138.515
3180.45	151.322
3182.55	140.839
3184.65	145.169
3186.75	145.258
3188.84	143.188
3190.94	134.804
3193.04	149.79
3195.13	145.668
3197.23	139.448
3199.32	146.048
3201.41	144.189
3203.51	148.717
3205.6	142.559
3207.69	142.85
3209.78	153.896
3211.87	134.799
3213.96	139.406
3216.05	124.553
3218.13	153.034
3220.22	144.636
3222.31	127.492
3224.39	127.745
3226.48	121.442
3228.56	126.067
3230.64	121.914
3232.73	128.76
3234.81	131.186
3236.89	120.372
3238.97	133.877
3241.05	107.542
3243.13	114.427
3245.21	114.695
3247.29	117.136
3249.36	103.948
3251.44	106.332
3253.52	95.2753
3255.59	117.824
3257.66	99.9841
3259.74	100.152
3261.81	100.317
3263.88	91.4645
3265.95	80.34
3268.03	78.3328
3270.1	89.7971
3272.17	87.7636
3274.23	92.4522
3276.3	81.1084
3278.37	83.4843
3280.44	88.1468
3282.5	83.6532
3284.57	86.0326
3286.63	83.8226
3288.7	79.307
3290.76	77.0813
3292.82	86.3625
3294.88	77.2178
3296.94	84.2049
3299	86.5917
3301.06	77.4459
3303.12	79.8305
3305.18	91.4919
3307.24	79.9893
3309.3	66.1402
3311.35	75.4895
3313.41	77.8754
3315.46	84.9333
3317.52	78.0199
3319.57	75.7708
3321.63	78.1856
3323.68	89.9693
3325.73	76.04
3327.78	78.4874
3329.83	80.9364
3331.88	78.7299
3333.93	71.8121
3335.98	88.4471
3338.02	72.065
3340.07	79.2557
3342.12	62.7684
3344.16	72.3157
3346.21	84.257
3348.25	70.0652
3350.3	70.1345
3352.34	86.8516
3354.38	79.7801
3356.42	75.104
3358.46	63.2538
3360.5	70.4925
3362.54	70.5758
3364.58	82.625
3366.62	70.7235
3368.66	80.3986
3370.69	75.6811
3372.73	63.728
3374.76	80.6311
3376.8	68.648
3378.83	66.2863
3380.87	66.3325
3382.9	59.1352
3384.93	68.8338
3386.96	71.2926
3388.99	81.0062
3391.02	59.2737
3393.05	61.7258
3395.08	81.144
3397.11	64.2366
3399.14	59.4335
3401.16	69.1816
3403.19	76.4999
3405.21	71.6753
3407.24	64.4188
3409.26	62.0173
3411.29	54.7396
3413.31	62.0631
3415.33	59.6523
3417.35	69.4206
3419.37	64.5737
3421.39	59.7212
3423.41	71.9324
3425.43	67.0805
3427.45	67.1139
3429.46	74.4768
3431.48	67.1932
3433.5	62.3487
3435.51	62.3963
3437.53	59.9993
3439.54	64.9556
3441.55	60.1073
3443.57	65.0787
3445.58	65.1542
3447.59	55.3918
3449.6	67.785
3451.61	67.8695
3453.62	67.965
3455.63	63.118
3457.64	63.2248
3459.64	60.8505
3461.65	53.4932
3463.66	63.5574
3465.66	53.6825
3467.67	53.7774
3469.67	61.3843
3471.67	53.9564
3473.68	56.527
3475.68	54.0984
3477.68	51.6607
3479.68	56.7868
3481.68	59.3989
3483.68	62.0165
3485.68	59.5702
3487.68	62.1917
3489.67	62.2765
3491.67	57.2706
3493.67	57.3451
3495.66	65.0672
3497.66	60.0312
3499.65	67.7659
3501.64	57.593
3503.64	60.2018
3505.63	52.5611
3507.62	65.4228
3509.61	60.3184
3511.6	65.4734
3513.59	65.4949
3515.58	57.8076
3517.57	52.6842
3519.56	60.4117
3521.54	60.4283
3523.53	57.8742
3525.52	57.8965
3527.5	60.4945
3529.49	57.9301
3531.47	57.9628
3533.45	63.1677
3535.43	63.2284
3537.42	55.549
3539.4	47.858
3541.38	58.2654
3543.36	60.9117
3545.34	60.9634
3547.32	61.0117
3549.29	58.4561
3551.27	55.8871
3553.25	53.2862
3555.22	58.5076
3557.2	55.9355
3559.17	61.1744
3561.15	56.0047
3563.12	56.0462
3565.09	56.0922
3567.07	61.3692
3569.04	69.2899
3571.01	58.8878
3572.98	53.7088
3574.95	64.2614
3576.92	56.4621
3578.88	61.7976
3580.85	64.5193
3582.82	75.1652
3584.79	67.354
3586.75	67.454
3588.72	70.2018
3590.68	59.6921
3592.64	57.1218
3594.61	59.8652
3596.57	57.2879
3598.53	52.0306
3600.49	60.1102
3602.45	57.5121
3604.41	57.5836
3606.37	54.9682
3608.33	49.6594
3610.29	57.7702
3612.25	49.7594
3614.2	47.1222
3616.16	49.8599
3618.12	47.2115
3620.07	52.6499
3622.02	49.978
3623.98	47.2934
3625.93	52.7151
3627.88	52.7324
3629.84	50.0415
3631.79	52.7529
3633.74	52.7644
3635.69	50.0752
3637.64	50.0993
3639.58	52.8422
3641.53	52.8891
3643.48	58.3704
3645.43	55.7109
3647.37	55.7802
3649.32	44.899
3651.26	53.0925
3653.21	47.6748
3655.15	47.6959
3657.09	55.8983
3659.03	45.0109
3660.98	42.3005
3662.92	50.5044
3664.86	55.9885
3666.8	50.5526
3668.74	53.3141
3670.67	45.1331
3672.61	53.3653
3674.55	45.188
3676.49	56.1882
3678.42	45.267
3680.36	48.0599
3682.29	45.3659
3684.23	48.1765
3686.16	59.2713
3688.09	51.072
3690.02	56.6732
3691.96	53.9864
3693.89	42.9677
3695.82	40.243
3697.75	54.1956
3699.68	54.2675
3701.61	54.3427
3703.53	51.6162
3705.46	48.8951
3707.39	46.166
3709.31	54.6358
3711.24	51.9045
3713.16	54.7845
3715.09	46.4116
3717.01	49.2796
3718.93	49.3316
3720.86	55.0253
3722.78	52.2538
3724.7	43.8196
3726.62	60.8332
3728.54	55.2225
3730.46	49.6023
3732.38	52.4883
3734.29	52.5383
3736.21	46.9034
3738.13	44.101
3740.04	58.3779
3741.96	52.7248
3743.87	49.9154
3745.79	49.9532
3747.7	47.1318
3749.62	52.8782
3751.53	52.907
3753.44	52.9324
3755.35	52.9537
3757.26	50.108
3759.17	52.9862
3761.08	44.4042
3762.99	50.1459
3764.9	47.2899
3766.81	53.0345
3768.71	50.185
3770.62	47.3365
3772.52	47.3579
3774.43	50.2498
3776.33	50.2715
3778.24	53.172
3780.14	44.5767
3782.04	64.7533
3783.95	53.284
3785.85	47.561
3787.75	44.7111
3789.65	41.8541
3791.55	53.4368
3793.45	50.5894
3795.34	50.6364
3797.24	65.1691
3799.14	50.738
3801.04	47.8887
3802.93	53.7507
3804.83	53.811
3806.72	42.2254
3808.62	48.1054
3810.51	45.2394
3812.4	51.1291
3814.29	48.2561
3816.19	48.3038
3818.08	45.4216
3819.97	51.3314
3821.86	48.4422
3823.75	51.4219
3825.64	51.4598
3827.52	45.6157
3829.41	48.6007
3831.3	48.6473
3833.18	51.6451
3835.07	51.692
3836.95	54.6922
3838.84	51.7772
3840.72	42.9424
3842.61	54.8455
3844.49	43.0168
3846.37	57.8788
3848.25	51.9562
3850.13	46.0354
3852.01	51.9935
3853.89	54.9739
3855.77	40.1276
3857.65	52.0197
3859.53	43.1004
3861.41	52.0255
3863.28	49.0643
3865.16	49.1021
3867.03	58.093
3868.91	43.256
3870.78	52.2557
3872.66	52.2624
3874.53	46.3038
3876.4	52.295
3878.27	49.3217
3880.14	46.3473
3882.01	46.3634
3883.89	52.3666
3885.75	46.4027
3887.62	46.4254
3889.49	49.4463
3891.36	52.4737
3893.23	43.5103
3895.09	49.5631
3896.96	43.5896
3898.82	58.6651
3900.69	40.6468
3902.55	49.7177
3904.42	49.7509
3906.28	43.7541
3908.14	49.82
3910	52.8794
3911.87	46.8776
3913.73	40.8625
3915.59	40.9007
3917.45	56.1061
3919.3	50.0961
3921.16	47.1186
3923.02	50.2201
3924.88	44.1837
3926.73	50.3333
3928.59	44.2786
3930.45	50.4373
3932.3	47.4224
3934.15	50.5185
3936.01	38.3001
3937.86	53.6565
3939.71	47.5654
3941.56	56.8247
3943.42	44.5875
3945.27	41.5514
3947.12	47.7533
3948.97	50.8794
3950.81	50.9183
3952.66	50.9548
3954.51	50.9881
3956.36	41.7449
3958.2	47.9548
3960.05	51.0687
3961.9	51.0889
3963.74	48.0111
3965.58	44.9264
3967.43	48.0341
3969.27	51.1374
3971.11	51.1448
3972.96	54.2538
3974.8	54.2639
3976.64	54.2721
3978.48	41.8713
3980.32	44.9726
3982.16	51.1719
3984	48.0687
3985.83	41.8661
3987.67	51.1664
3989.51	57.37
3991.34	44.9717
3993.18	51.1869
3995.01	44.9961
3996.85	48.1206
3998.68	48.1439
