#Acq. time (s)=	45
#Accumulations=	2
#Range (cm-¹)=	100...4000
#Windows=	1
#Auto scanning=	Off
#Autofocus=	Off
#Macrospot=	Off
#AutoExposure=	Off
#Spike filter=	Multiple accum.
#Delay time (s)=	2
#Binning=	1
#Readout mode=	Signal
#DeNoise=	Off
#ICS correction=	On
#Dark correction=	Off
#Inst. Process=	Off
#Detector Gain=	Best Dynamic
#Detector ADC=	50 kHz HS
#Detector temperature (°C)=	-60.09
#Instrument=	LabRAM HR Evol
#Detector=	SIN-EM FIVIS
#Objective=	x100_VIS_LWD
#Grating=	150 (500nm)
#ND Filter=	100%
#Laser=	633nm_Edge
#Hole=	49.98
#Temperature=	0
#Range=	Visible
#StageXY=	75x50mm Scan+
#StageZ=	Z motor
#X (µm)=	0
#Y (µm)=	0
#Z (µm)=	57.9
#Full time(mm:ss)=	1:34
#Project=	21_11_22
#Sample=	BU04w
#Site=	
#Title=	BU04w-A-FF3-FI03-V_150 (500nm)_633nm_Edge_100%_x100_VIS_LWD_H50um_45sX2
#Remark=	
#Date=	22.11.2021 12:21
#Acquired=	22.11.2021 12:21:09
100.177	539
103.438	482.931
106.695	432.595
109.954	407.052
113.209	390.066
116.464	370.188
119.717	328.254
122.969	320.738
126.219	301.702
129.469	309.462
132.716	285.596
135.963	294.25
139.208	290.414
142.452	278.942
145.694	251.226
148.936	235.931
152.175	245.546
155.414	228.382
158.651	276.331
161.887	310.91
165.121	282.25
168.353	245.879
171.586	226.731
174.815	195.088
178.045	186.421
181.272	188.283
184.5	176.684
187.724	168.915
190.947	174.508
194.17	154.307
197.39	157.063
200.611	164.629
203.829	162.726
207.045	158.883
210.262	169.344
213.475	170.262
216.688	171.188
219.9	174.963
223.11	208.277
226.32	216.755
229.527	263.225
232.733	290.66
235.939	298.117
239.142	267.561
242.344	218.987
245.546	207.581
248.745	198.985
251.943	191.328
255.141	192.206
258.336	197.854
261.53	184.529
264.723	185.444
267.916	193.957
271.106	192.048
274.294	192.992
277.483	195.839
280.669	187.285
283.854	188.197
287.038	190.048
290.221	188.088
293.402	188.003
296.582	180.351
299.76	175.545
302.938	180.194
306.114	186.72
309.288	200.809
312.461	210.167
315.634	241.237
318.805	314.757
321.974	381.702
325.142	421.273
328.309	433.467
331.475	353.265
334.639	290.977
337.802	257.934
340.963	234.331
344.123	211.671
347.282	208.786
350.441	193.664
353.597	194.533
356.752	211.401
359.906	205.653
363.058	226.245
366.209	226.126
369.36	211.916
372.509	193.026
375.656	204.179
378.802	185.313
381.947	186.154
385.09	182.365
388.232	175.836
391.373	183.419
394.512	190.112
397.652	192.151
400.789	198.048
403.925	185.061
407.059	201.29
410.192	200.552
413.324	187.497
416.455	202.725
419.584	232.212
422.712	241.752
425.839	268.209
428.964	278.322
432.089	283.672
435.212	286.17
438.333	258.509
441.454	252.552
444.573	249.405
447.691	239.669
450.807	236.495
453.923	245.521
457.037	240.543
460.15	224.434
463.261	213.078
466.371	212.055
469.48	187.729
472.588	194.209
475.695	199.802
478.8	191.453
481.904	195.189
485.007	192.403
488.108	188.685
491.208	203.611
494.307	187.8
497.405	204.589
500.502	221.401
503.597	223.329
506.691	228.977
509.784	234.642
512.874	238.468
515.964	246.037
519.053	224.706
522.141	224.894
525.227	216.675
528.312	214.098
531.396	208.737
534.479	223.121
537.559	222.489
540.639	210.491
543.718	215.407
546.796	204.244
549.873	201.461
552.948	202.507
556.022	210.125
559.093	203.478
562.165	182.583
565.235	187.158
568.304	185.072
571.372	180.128
574.437	170.463
577.503	182.364
580.567	186.751
583.63	191.18
586.691	185.335
589.75	185.15
592.81	188.767
595.868	198.914
598.924	190.515
601.98	192.474
605.033	191.686
608.086	203.971
611.138	193.897
614.188	204.4
617.236	199.089
620.285	211.567
623.332	195.003
626.376	199.118
629.42	190.847
632.464	200.408
635.506	195.732
638.545	179.658
641.585	186.158
644.623	188.783
647.659	173.6
650.695	187.555
653.73	212.676
656.762	190.823
659.794	208.361
662.825	180.954
665.854	194.743
668.883	188.905
671.91	177.604
674.935	183.255
677.96	170.192
680.982	182.31
684.005	166.525
687.027	164.749
690.045	176.118
693.064	171.64
696.082	174.645
699.097	166.401
702.113	173.143
705.126	168.613
708.139	166.865
711.149	177.293
714.16	171.549
717.169	166.814
720.176	171.441
723.183	173.296
726.187	180.691
729.192	170.217
732.194	178.497
735.196	175.529
738.196	159.468
741.196	172.414
744.193	160.136
747.19	158.167
750.185	173.924
753.18	181.35
756.173	179.423
759.165	170.169
762.155	178.713
765.146	170.524
768.133	171.705
771.121	172.885
774.107	171.265
777.092	154.572
780.075	160.379
783.058	170.868
786.039	177.573
789.02	170.134
791.998	160.776
794.975	170.243
797.952	173.077
800.927	171.145
803.902	161.649
806.874	166.266
809.845	160.522
812.817	179.194
815.786	181.834
818.755	168.487
821.721	174.852
824.686	172.762
827.652	175.349
830.615	182.668
833.576	180.768
836.538	171.444
839.498	172.475
842.458	178.28
845.415	178.416
848.37	180.469
851.327	171.286
854.28	175.251
857.233	177.36
860.184	175.718
863.135	180.678
866.084	182.817
869.032	175.498
871.98	184.213
874.925	180.557
877.87	183.491
880.813	200.646
883.756	182.667
886.697	176.033
889.636	186.449
892.576	194.937
895.513	179.695
898.45	183.346
901.385	185.979
904.318	175.354
907.253	185.524
910.184	194.7
913.114	189.739
916.044	196.084
918.973	191.25
921.9	192.089
924.826	193.958
927.75	206.195
930.674	210.114
933.596	221.514
936.519	218.978
939.439	227.848
942.357	257.565
945.275	265.616
948.192	287.987
951.107	296.166
954.023	271.954
956.936	281.008
959.848	264.22
962.759	256.919
965.669	253.347
968.577	256.486
971.485	241.315
974.391	248.146
977.296	266.394
980.201	285.466
983.104	288.163
986.006	314.772
988.907	312.597
991.806	299.884
994.704	291.001
997.602	262.112
1000.5	278.148
1003.39	267.491
1006.29	257.859
1009.18	275.938
1012.07	278.931
1014.96	300.06
1017.85	306.87
1020.74	321.373
1023.63	359.916
1026.51	342.159
1029.4	314.798
1032.28	270.109
1035.16	227.264
1038.04	222.807
1040.92	223.152
1043.8	212.873
1046.68	208.384
1049.56	199.929
1052.43	210.807
1055.31	189.666
1058.18	176.214
1061.05	189.896
1063.93	191.884
1066.8	207.37
1069.67	197.633
1072.53	190.804
1075.4	203.371
1078.26	212.988
1081.13	207.067
1083.99	216.663
1086.85	233.033
1089.72	240.729
1092.58	269.703
1095.44	307.387
1098.29	316.95
1101.15	311.049
1104	285.854
1106.86	242.449
1109.71	210.508
1112.56	212.619
1115.42	210.062
1118.27	192.932
1121.11	200.005
1123.96	199.254
1126.81	202.393
1129.65	194.847
1132.5	211.709
1135.34	209.046
1138.18	220.074
1141.03	239.018
1143.87	237.296
1146.7	270.877
1149.54	292.757
1152.38	359.839
1155.21	347.089
1158.05	291.897
1160.88	243.549
1163.71	207.909
1166.55	184.148
1169.37	180.053
1172.2	166.156
1175.03	179.697
1177.86	181.46
1180.68	169.581
1183.51	165.558
1186.33	166.505
1189.15	169.441
1191.98	171.413
1194.8	163.709
1197.61	167.725
1200.43	167.919
1203.25	169.166
1206.06	163.554
1208.88	170.759
1211.69	160.225
1214.51	172.424
1217.32	167.859
1220.13	158.329
1222.94	155.728
1225.74	161.092
1228.55	163.471
1231.36	164.828
1234.16	161.135
1236.97	162.429
1239.77	168.719
1242.57	171.934
1245.37	170.063
1248.17	171.172
1250.97	171.216
1253.77	174.297
1256.56	191.436
1259.36	209.532
1262.15	194.24
1264.94	182.009
1267.74	158.715
1270.53	177.712
1273.32	201.666
1276.11	407.427
1278.89	741.157
1281.68	451.628
1284.46	218.843
1287.25	185.645
1290.03	187.523
1292.81	180.434
1295.59	160.407
1298.38	173.385
1301.15	164.392
1303.93	160.46
1306.71	160.571
1309.48	157.731
1312.26	175.022
1315.03	171.276
1317.81	157.468
1320.58	164.799
1323.35	162.075
1326.12	157.341
1328.88	173.881
1331.65	175.251
1334.42	145.029
1337.18	163.633
1339.95	155.724
1342.71	149.779
1345.47	164.269
1348.23	155.208
1350.99	169.708
1353.75	166.768
1356.51	176.116
1359.26	158.735
1362.02	175.227
1364.77	188.602
1367.53	173.167
1370.28	182.387
1373.03	170.02
1375.78	196.699
1378.53	341.46
1381.28	942.014
1384.03	850.431
1386.77	308.381
1389.52	194.423
1392.26	183.144
1395	171.892
1397.74	175.13
1400.49	192.718
1403.23	230.908
1405.96	208.445
1408.7	172.567
1411.44	166.542
1414.17	178.07
1416.91	159.673
1419.64	163.989
1422.37	153.829
1425.11	146.767
1427.84	156.298
1430.56	157.547
1433.29	143.169
1436.02	150.648
1438.74	151.881
1441.47	149.962
1444.19	147.031
1446.92	148.244
1449.64	149.419
1452.36	142.166
1455.08	145.383
1457.8	139.12
1460.52	146.488
1463.23	143.335
1465.95	142.27
1468.66	138.048
1471.38	148.526
1474.09	150.614
1476.8	144.325
1479.51	142.258
1482.22	150.688
1484.93	131.831
1487.64	142.4
1490.34	140.381
1493.05	143.639
1495.75	151.141
1498.46	139.68
1501.16	147.215
1503.86	141.036
1506.56	140.148
1509.26	154.107
1511.96	141.591
1514.65	139.684
1517.35	152.674
1520.05	143.34
1522.74	148.916
1525.43	131.007
1528.13	152.65
1530.82	145.416
1533.51	145.704
1536.2	155.649
1538.88	163.412
1541.57	143.116
1544.25	146.494
1546.94	144.398
1549.62	148.745
1552.31	141.146
1554.99	145.385
1557.67	145.278
1560.35	140.888
1563.03	145.139
1565.71	152.615
1568.38	138.52
1571.06	140.6
1573.73	154.528
1576.41	154.471
1579.08	150.164
1581.75	135.095
1584.42	144.799
1587.09	137.287
1589.76	131.938
1592.43	139.532
1595.09	144.994
1597.76	150.486
1600.42	137.637
1603.09	147.486
1605.75	156.286
1608.41	141.322
1611.07	154.539
1613.73	136.333
1616.39	137.671
1619.05	140.119
1621.7	132.742
1624.36	135.183
1627.01	150.791
1629.67	155.469
1632.32	137.035
1634.97	151.573
1637.62	150.666
1640.27	138.584
1642.92	145.322
1645.57	136.592
1648.22	134.472
1650.86	143.41
1653.51	140.162
1656.15	137.995
1658.79	144.677
1661.43	139.156
1664.07	143.611
1666.71	149.162
1669.35	139.185
1671.99	142.513
1674.63	141.405
1677.26	144.709
1679.9	146.925
1682.53	135.792
1685.16	137.945
1687.79	144.527
1690.43	150.012
1693.05	136.701
1695.68	142.243
1698.31	138.978
1700.94	140.226
1703.56	136.192
1706.19	137.607
1708.81	137.911
1711.44	136.581
1714.06	141.04
1716.68	144.52
1719.3	141.439
1721.92	142.686
1724.53	142.774
1727.15	133.957
1729.77	137.462
1732.38	139.852
1735	141.117
1737.61	146.879
1740.22	128.995
1742.83	146.033
1745.44	142.787
1748.05	132.731
1750.66	132.82
1753.27	131.768
1755.87	143.152
1758.48	144.325
1761.08	137.554
1763.69	142.106
1766.29	135.343
1768.89	147.842
1771.49	145.621
1774.09	121.864
1776.69	140.069
1779.29	135.619
1781.88	142.537
1784.48	132.423
1787.07	133.681
1789.66	142.944
1792.26	137.4
1794.85	146.69
1797.44	146.867
1800.03	140.204
1802.62	128.933
1805.21	139.445
1807.79	146.515
1810.38	144.372
1812.96	141.072
1815.55	133.153
1818.13	141.382
1820.71	143.838
1823.29	137.062
1825.87	141.849
1828.45	133.898
1831.03	128.258
1833.61	141.193
1836.18	136.728
1838.76	145.022
1841.33	145.159
1843.91	138.287
1846.48	126.725
1849.05	135.007
1851.62	144.479
1854.19	123.478
1856.76	145.834
1859.33	134.232
1861.89	128.5
1864.46	125.098
1867.02	132.298
1869.59	130.066
1872.15	134.88
1874.71	136.146
1877.27	126.803
1879.83	144.577
1882.39	123.411
1884.95	148.278
1887.51	132.985
1890.06	136.546
1892.62	127.093
1895.17	128.276
1897.73	141.303
1900.28	141.354
1902.83	133.18
1905.38	135.681
1907.93	131.068
1910.48	137.183
1913.03	125.503
1915.57	136.448
1918.12	145.002
1920.66	131.896
1923.21	126.039
1925.75	136.925
1928.29	128.68
1930.83	132.399
1933.37	132.524
1935.91	124.234
1938.45	133.941
1940.99	129.225
1943.53	137.724
1946.06	135.389
1948.6	135.455
1951.13	131.885
1953.66	137.94
1956.19	129.531
1958.73	136.78
1961.26	125.948
1963.78	127.159
1966.31	119.927
1968.84	134.367
1971.36	134.331
1973.89	130.677
1976.41	119.806
1978.94	134.218
1981.46	128.161
1983.98	131.736
1986.5	124.488
1989.02	140.097
1991.54	134.061
1994.06	126.83
1996.58	130.427
1999.09	126.822
2001.61	137.65
2004.12	144.885
2006.63	131.696
2009.15	131.736
2011.66	125.777
2014.17	121.01
2016.68	135.516
2019.19	140.366
2021.69	133.182
2024.2	124.812
2026.71	133.337
2029.21	128.603
2031.72	126.297
2034.22	131.26
2036.72	131.384
2039.22	129.088
2041.72	138.924
2044.22	132.996
2046.72	119.766
2049.22	127.204
2051.71	137.09
2054.21	129.855
2056.71	136.094
2059.2	141.134
2061.69	126.612
2064.18	140.225
2066.68	135.483
2069.17	136.853
2071.66	135.769
2074.14	129.765
2076.63	137.282
2079.12	148.507
2081.6	137.541
2084.09	137.652
2086.57	120.454
2089.06	129.179
2091.54	129.29
2094.02	135.609
2096.5	127.088
2098.98	129.716
2101.46	129.872
2103.93	128.793
2106.41	131.455
2108.89	136.629
2111.36	134.328
2113.84	132.033
2116.31	138.506
2118.78	139.977
2121.25	125.104
2123.72	124.031
2126.19	143.128
2128.66	129.438
2131.13	127.081
2133.59	124.709
2136.06	138.801
2138.53	128.806
2140.99	135.299
2143.45	118.913
2145.92	136.85
2148.38	125.501
2150.84	133.24
2153.3	138.43
2155.76	109.147
2158.21	132.19
2160.67	137.354
2163.13	141.229
2165.58	116.967
2168.04	134.878
2170.49	136.186
2172.94	129.844
2175.39	127.334
2177.84	132.493
2180.29	129.94
2182.74	131.225
2185.19	142.725
2187.64	120.967
2190.08	123.544
2192.53	124.857
2194.98	126.172
2197.42	133.923
2199.86	136.568
2202.3	137.949
2204.74	129.072
2207.18	127.903
2209.62	130.606
2212.06	121.731
2214.5	130.892
2216.93	120.724
2219.37	132.512
2221.81	133.976
2224.24	126.37
2226.67	131.722
2229.11	138.386
2231.54	134.659
2233.97	136.133
2236.4	135.001
2238.83	128.641
2241.25	132.723
2243.68	118.491
2246.1	116.023
2248.53	129.298
2250.96	128.146
2253.38	136.197
2255.8	131.095
2258.22	120.715
2260.64	119.548
2263.06	124.979
2265.48	129.08
2267.9	122.576
2270.32	121.351
2272.73	133.385
2275.15	128.158
2277.56	124.246
2279.98	120.316
2282.39	129.663
2284.8	127.028
2287.21	129.7
2289.62	136.374
2292.03	123.083
2294.44	129.75
2296.85	125.784
2299.26	117.844
2301.66	132.547
2304.07	120.63
2306.47	136.732
2308.88	127.507
2311.28	126.303
2313.68	133.128
2316.08	134.628
2318.48	140.168
2320.88	136.315
2323.28	179.512
2325.68	173.024
2328.07	130.113
2330.47	124.893
2332.86	114.265
2335.26	125.275
2337.65	128.185
2340.04	129.746
2342.43	127.244
2344.82	124.737
2347.21	129.078
2349.6	116.984
2351.99	126.783
2354.38	113.256
2356.76	129.909
2359.15	114.941
2361.53	139.834
2363.92	130.333
2366.3	115.289
2368.68	116.796
2371.06	119.685
2373.44	115.65
2375.82	117.151
2378.2	128.371
2380.58	131.242
2382.95	127.163
2385.33	128.611
2387.71	111.977
2390.08	131.493
2392.45	127.34
2394.83	132.928
2397.2	119.006
2399.57	119.005
2401.94	120.399
2404.31	113.423
2406.68	113.414
2409.04	127.36
2411.41	127.459
2413.78	127.602
2416.14	113.892
2418.51	118.444
2420.87	127.093
2423.23	122.998
2425.59	118.837
2427.95	117.574
2430.31	123.362
2432.67	126.352
2435.03	112.399
2437.39	122.485
2439.75	128.342
2442.1	114.33
2444.46	128.723
2446.81	101.851
2449.16	113.418
2451.52	119.305
2453.87	120.907
2456.22	119.649
2458.57	124.131
2460.92	109.938
2463.27	114.417
2465.61	124.666
2467.96	121.948
2470.3	117.772
2472.65	129.494
2474.99	126.762
2477.34	137.087
2479.68	118.384
2482.02	119.984
2484.36	121.581
2486.7	134.823
2489.04	132.046
2491.38	120.494
2493.72	130.85
2496.05	129.53
2498.39	116.473
2500.72	116.584
2503.06	126.966
2505.39	119.731
2507.72	125.709
2510.06	122.86
2512.39	117.053
2514.72	131.859
2517.04	120.147
2519.37	114.336
2521.7	124.767
2524.03	114.523
2526.35	116.085
2528.68	122.094
2531	110.338
2533.33	122.296
2535.65	125.378
2537.97	107.679
2540.29	119.682
2542.61	112.364
2544.93	122.909
2547.25	126.035
2549.57	114.226
2551.88	123.322
2554.2	124.951
2556.51	125.066
2558.83	108.686
2561.14	111.807
2563.46	117.938
2565.77	119.591
2568.08	116.727
2570.39	112.359
2572.7	121.568
2575.01	129.282
2577.31	118.838
2579.62	126.542
2581.93	116.044
2584.23	126.749
2586.54	116.199
2588.84	114.741
2591.15	117.804
2593.45	119.393
2595.75	120.996
2598.05	102.824
2600.35	128.811
2602.65	109.066
2604.95	115.237
2607.24	112.248
2609.54	110.784
2611.84	113.877
2614.13	115.452
2616.42	118.556
2618.72	115.554
2621.01	115.6
2623.3	107.996
2625.59	120.318
2627.88	121.922
2630.17	122.026
2632.46	137.522
2634.75	117.686
2637.04	131.719
2639.32	110.331
2641.61	116.681
2643.89	124.609
2646.18	123.27
2648.46	121.905
2650.74	109.65
2653.02	120.728
2655.3	109.936
2657.58	120.961
2659.86	108.566
2662.14	118.028
2664.42	107.155
2666.69	116.606
2668.97	129.242
2671.24	119.949
2673.52	115.391
2675.79	115.574
2678.06	112.681
2680.33	112.984
2682.61	110.072
2684.88	116.672
2687.15	128.075
2689.41	117.197
2691.68	112.626
2693.95	108.036
2696.22	114.491
2698.48	121.031
2700.74	109.932
2703.01	119.685
2705.27	116.583
2707.53	123.131
2709.8	121.627
2712.06	113.669
2714.32	120.231
2716.57	123.617
2718.83	115.641
2721.09	109.28
2723.35	117.477
2725.6	111.071
2727.86	119.256
2730.11	104.71
2732.37	107.992
2734.62	114.544
2736.87	109.706
2739.12	116.241
2741.37	117.937
2743.62	113.124
2745.87	116.462
2748.12	121.447
2750.37	119.938
2752.61	115.246
2754.86	123.573
2757.1	115.505
2759.35	118.881
2761.59	118.956
2763.83	114.136
2766.08	119.181
2768.32	119.306
2770.56	111.169
2772.8	109.637
2775.04	109.767
2777.27	108.262
2779.51	119.998
2781.75	115.235
2783.98	110.442
2786.22	118.95
2788.45	115.814
2790.68	109.325
2792.92	106.153
2795.15	106.313
2797.38	104.776
2799.61	106.593
2801.84	121.846
2804.07	121.98
2806.3	113.684
2808.52	110.423
2810.75	117.275
2812.98	110.624
2815.2	117.463
2817.42	110.784
2819.65	119.333
2821.87	116.04
2824.09	116.139
2826.31	109.451
2828.53	112.935
2830.75	116.421
2832.97	125.01
2835.19	108.075
2837.41	109.855
2839.62	123.569
2841.84	111.72
2844.05	104.977
2846.27	105.073
2848.48	115.428
2850.69	103.561
2852.9	113.962
2855.12	115.821
2857.33	117.686
2859.54	119.549
2861.74	116.268
2863.95	114.715
2866.16	92.4358
2868.37	108.156
2870.57	111.789
2872.78	117.167
2874.98	106.919
2877.18	117.536
2879.39	102.033
2881.59	110.945
2883.79	116.394
2885.99	111.347
2888.19	115.054
2890.39	109.97
2892.59	104.865
2894.78	126.223
2896.98	112.311
2899.18	112.524
2901.37	114.502
2903.57	125.349
2905.76	118.417
2907.95	115.028
2910.15	102.692
2912.34	113.536
2914.53	102.923
2916.72	106.617
2918.91	110.336
2921.09	124.844
2923.28	116.007
2925.47	114.367
2927.65	118.141
2929.84	109.283
2932.02	113.066
2934.21	122.267
2936.39	113.341
2938.57	111.639
2940.75	126.275
2942.94	113.666
2945.12	119.223
2947.29	119.3
2949.47	110.271
2951.65	115.826
2953.83	123.21
2956	123.297
2958.18	116.07
2960.36	123.471
2962.53	116.243
2964.7	110.838
2966.88	116.436
2969.05	116.541
2971.22	107.464
2973.39	114.92
2975.56	120.55
2977.73	109.61
2979.9	117.088
2982.06	117.211
2984.23	113.655
2986.4	106.395
2988.56	119.505
2990.73	115.957
2992.89	101.261
2995.05	112.564
2997.21	120.187
2999.38	122.241
3001.54	122.438
3003.7	107.665
3005.86	120.98
3008.01	109.91
3010.17	117.617
3012.33	119.671
3014.49	108.548
3016.64	116.304
3018.8	112.729
3020.95	122.424
3023.1	116.926
3025.26	119.009
3027.41	121.077
3029.56	117.415
3031.71	113.735
3033.86	117.684
3036.01	108.219
3038.16	104.47
3040.31	112.275
3042.45	106.623
3044.6	108.643
3046.74	110.662
3048.89	120.388
3051.03	120.49
3053.18	126.38
3055.32	118.772
3057.46	115.016
3059.6	115.117
3061.74	109.409
3063.88	111.443
3066.02	127.06
3068.16	113.58
3070.3	125.339
3072.43	125.449
3074.57	111.937
3076.7	123.732
3078.84	119.948
3080.97	125.915
3083.1	118.216
3085.24	132.044
3087.37	112.612
3089.5	124.53
3091.63	112.926
3093.76	128.834
3095.89	119.197
3098.02	133.205
3100.14	125.514
3102.27	119.788
3104.4	123.971
3106.52	132.152
3108.65	126.429
3110.77	134.658
3112.89	132.93
3115.01	135.187
3117.14	119.401
3119.26	127.678
3121.38	125.933
3123.5	128.222
3125.62	136.6
3127.73	134.883
3129.85	141.302
3131.97	131.463
3134.08	133.826
3136.2	134.15
3138.31	134.465
3140.43	136.824
3142.54	128.872
3144.65	137.402
3146.76	139.744
3148.87	137.943
3150.98	131.951
3153.09	138.396
3155.2	149.028
3157.31	132.546
3159.42	147.374
3161.52	126.659
3163.63	145.719
3165.73	141.719
3167.84	144.006
3169.94	142.078
3172.05	142.299
3174.15	153.03
3176.25	142.618
3178.35	140.629
3180.45	136.507
3182.55	145.074
3184.65	164.243
3186.75	157.982
3188.84	151.673
3190.94	162.402
3193.04	151.914
3195.13	147.795
3197.23	164.996
3199.32	141.784
3201.41	171.959
3203.51	152.996
3205.6	161.853
3207.69	168.627
3209.78	162.505
3211.87	149.896
3213.96	156.697
3216.05	165.71
3218.13	166.059
3220.22	155.511
3222.31	140.568
3224.39	153.949
3226.48	156.453
3228.56	161.147
3230.64	161.453
3232.73	139.765
3234.81	151.029
3236.89	146.876
3238.97	144.941
3241.05	143.019
3243.13	152.199
3245.21	145.874
3247.29	143.91
3249.36	137.48
3251.44	137.672
3253.52	142.353
3255.59	129.046
3257.66	138.18
3259.74	138.413
3261.81	149.911
3263.88	141.149
3265.95	125.602
3268.03	130.555
3270.1	126.171
3272.17	137.914
3274.23	124.411
3276.3	133.658
3278.37	126.942
3280.44	133.937
3282.5	134.074
3284.57	131.917
3286.63	134.346
3288.7	118.386
3290.76	123.1
3292.82	130.119
3294.88	116.403
3296.94	137.266
3299	123.537
3301.06	112.123
3303.12	123.795
3305.18	123.919
3307.24	119.404
3309.3	121.837
3311.35	124.267
3313.41	124.368
3315.46	122.164
3317.52	131.586
3319.57	120.068
3321.63	120.196
3323.68	118.012
3325.73	122.834
3327.78	130.031
3329.83	113.78
3331.88	116.332
3333.93	125.965
3335.98	123.826
3338.02	131.135
3340.07	124.207
3342.12	121.984
3344.16	107.881
3346.21	126.979
3348.25	119.942
3350.3	115.306
3352.34	122.544
3354.38	115.502
3356.42	118.021
3358.46	118.153
3360.5	123.063
3362.54	118.424
3364.58	128.129
3366.62	128.261
3368.66	101.998
3370.69	111.72
3372.73	119.039
3374.76	121.548
3376.8	107.187
3378.83	116.905
3380.87	121.811
3382.9	121.891
3384.93	107.477
3386.96	112.376
3388.99	117.278
3391.02	110.08
3393.05	134.344
3395.08	117.477
3397.11	117.565
3399.14	124.932
3401.16	115.303
3403.19	110.5
3405.21	115.409
3407.24	125.191
3409.26	115.522
3411.29	108.263
3413.31	122.909
3415.33	122.957
3417.35	110.829
3419.37	110.872
3421.39	123.099
3423.41	115.823
3425.43	132.941
3427.45	118.364
3429.46	118.43
3431.48	123.391
3433.5	108.805
3435.51	103.994
3437.53	116.325
3439.54	140.941
3441.55	106.721
3443.57	104.371
3445.58	109.41
3447.59	112.014
3449.6	114.618
3451.61	119.697
3453.62	105.037
3455.63	117.573
3457.64	117.772
3459.64	115.492
3461.65	118.183
3463.66	108.422
3465.66	116.104
3467.67	123.813
3469.67	108.988
3471.67	116.696
3473.68	119.335
3475.68	117.004
3477.68	99.5413
3479.68	107.264
3481.68	125.117
3483.68	105.048
3485.68	110.268
3487.68	130.73
3489.67	108.031
3491.67	110.723
3493.67	110.867
3495.66	113.549
3497.66	113.676
3499.65	103.567
3501.64	106.227
3503.64	111.437
3505.63	98.7122
3507.62	106.472
3509.61	109.086
3511.6	111.69
3513.59	119.432
3515.58	93.7767
3517.57	109.223
3519.56	114.397
3521.54	101.571
3523.53	109.318
3525.52	96.4941
3527.5	104.256
3529.49	106.849
3531.47	99.1807
3533.45	109.577
3535.43	99.3589
3537.42	112.39
3539.4	102.183
3541.38	102.288
3543.36	110.16
3545.34	107.659
3547.32	102.552
3549.29	84.4366
3551.27	100.077
3553.25	110.471
3555.22	107.914
3557.2	105.367
3559.17	100.222
3561.15	95.0777
3563.12	100.362
3565.09	110.88
3567.07	100.541
3569.04	82.3635
3571.01	85.0602
3572.98	98.2478
3574.95	90.4906
3576.92	87.9759
3578.88	103.873
3580.85	101.388
3582.82	85.7146
3584.79	99.05
3586.75	93.9066
3588.72	94.0439
3590.68	102.14
3592.64	96.9742
3594.61	97.1146
3596.57	105.25
3598.53	97.3906
3600.49	92.169
3602.45	94.9618
3604.41	92.4016
3606.37	92.5075
3608.33	84.5551
3610.29	92.701
3612.25	98.174
3614.2	98.2835
3616.16	109.153
3618.12	90.3763
3620.07	95.8498
3622.02	85.0977
3623.98	93.2356
3625.93	90.5618
3627.88	79.7747
3629.84	96.0257
3631.79	96.0374
3633.74	96.0583
3635.69	85.2632
3637.64	85.3043
3639.58	93.4901
3641.53	88.1484
3643.48	90.9492
3645.43	91.0398
3647.37	93.874
3649.32	107.486
3651.26	85.7648
3653.21	93.9875
3655.15	94.0291
3657.09	88.6193
3659.03	99.5695
3660.98	80.5074
3662.92	94.1838
3664.86	86.0312
3666.8	91.5413
3668.74	97.0591
3670.67	83.4279
3672.61	97.1523
3674.55	91.7453
3676.49	86.338
3678.42	80.9318
3680.36	83.7616
3682.29	89.3571
3684.23	89.4706
3686.16	89.5962
3688.09	86.9604
3690.02	84.3186
3691.96	89.9773
3693.89	70.6889
3695.82	98.526
3697.75	90.3259
3699.68	87.6629
3701.61	96.1447
3703.53	82.3069
3705.46	88.0112
3707.39	82.5393
3709.31	91.0596
3711.24	85.5722
3713.16	94.117
3715.09	82.9783
3717.01	83.0713
3718.93	88.7969
3720.86	88.887
3722.78	91.7972
3724.7	91.8798
3726.62	86.2983
3728.54	83.5418
3730.46	89.2841
3732.38	86.5348
3734.29	72.4176
3736.21	81.015
3738.13	98.1603
3740.04	81.1595
3741.96	81.2248
3743.87	92.7
3745.79	87.0613
3747.7	84.266
3749.62	75.7445
3751.53	84.3653
3753.44	81.5445
3755.35	90.1645
3757.26	90.1944
3759.17	84.4915
3761.08	98.8353
3762.99	70.2043
3764.9	84.5486
3766.81	84.5685
3768.71	67.3913
3770.62	87.5009
3772.52	93.2807
3774.43	87.5782
3776.33	81.8708
3778.24	87.6619
3780.14	81.9636
3782.04	90.6547
3783.95	84.9664
3785.85	85.0334
3787.75	105.287
3789.65	82.2649
3791.55	76.5446
3793.45	82.3885
3795.34	82.4651
3797.24	94.1332
3799.14	82.6304
3801.04	74.0098
3802.93	76.9942
3804.83	77.0806
3806.72	82.9947
3808.62	71.4292
3810.51	80.2634
3812.4	71.5807
3814.29	86.2761
3816.19	77.5789
3818.08	89.3779
3819.97	77.7303
3821.86	80.737
3823.75	86.6826
3825.64	77.9249
3827.52	86.8169
3829.41	75.1101
3831.3	89.9238
3833.18	75.2542
3835.07	78.2764
3836.95	87.2119
3838.84	78.4055
3840.72	87.3656
3842.61	87.4563
3844.49	78.617
3846.37	93.4965
3848.25	81.6455
3850.13	81.6757
3852.01	81.7041
3853.89	81.7179
3855.77	72.8241
3857.65	72.8276
3859.53	87.6871
3861.41	81.7544
3863.28	78.8003
3865.16	84.8127
3867.03	81.926
3868.91	79.0541
3870.78	88.0883
3872.66	82.1267
3874.53	73.1899
3876.4	79.1895
3878.27	76.2244
3880.14	94.1897
3882.01	82.2577
3883.89	61.3438
3885.75	88.3147
3887.62	64.3966
3889.49	79.4138
3891.36	88.4556
3893.23	73.5173
3895.09	79.6014
3896.96	64.6328
3898.82	82.7328
3900.69	79.7881
3902.55	85.8761
3904.42	82.9182
3906.28	79.9644
3908.14	83.0334
3910	67.9878
3911.87	80.1456
3913.73	86.2653
3915.59	71.1975
3917.45	71.2699
3919.3	80.4574
3921.16	71.4379
3923.02	80.6565
3924.88	68.5609
3926.73	74.7374
3928.59	80.923
3930.45	77.9486
3932.3	81.077
3934.15	81.1358
3936.01	68.9402
3937.86	81.2512
3939.71	78.2528
3941.56	72.1827
3943.42	75.3374
3945.27	78.4861
3947.12	66.2385
3948.97	81.7154
3950.81	78.6919
3952.66	84.9246
3954.51	75.7096
3956.36	69.5749
3958.2	81.9872
3960.05	75.8293
3961.9	82.0519
3963.74	78.986
3965.58	72.8118
3967.43	72.826
3969.27	69.7328
3971.11	72.8426
3972.96	79.0556
3974.8	72.8686
3976.64	75.981
3978.48	69.7855
3980.32	72.8866
3982.16	72.8812
3984	75.9796
3985.83	79.0805
3987.67	72.8734
3989.51	72.8754
3991.34	79.0882
3993.18	76.0048
3995.01	79.131
3996.85	60.5388
3998.68	72.9923
