#Acq. time (s)=	45
#Accumulations=	2
#Range (cm-¹)=	1200...2380
#Windows=	6
#Auto scanning=	Off
#Autofocus=	Off
#Macrospot=	Off
#AutoExposure=	Off
#Spike filter=	Multiple accum.
#Delay time (s)=	2
#Binning=	1
#Readout mode=	Signal
#DeNoise=	Off
#ICS correction=	On
#Dark correction=	Off
#Inst. Process=	Off
#Detector Gain=	Best Dynamic
#Detector ADC=	50 kHz EM
#Detector EM gain=	100
#Detector temperature (°C)=	-60.09
#Instrument=	LabRAM HR Evol
#Detector=	SIN-EM FIVIS
#Objective=	x100_VIS_LWD
#Grating=	1800 (450-850nm)
#ND Filter=	100%
#Laser=	633nm_Edge
#Hole=	49.98
#Temperature=	0
#Range=	Visible
#StageXY=	75x50mm Scan+
#StageZ=	Z motor
#X (µm)=	0
#Y (µm)=	0
#Z (µm)=	16.9
#Full time(mm:ss)=	9:36
#Project=	21_11_22
#Sample=	BU04w
#Site=	
#Title=	BU04w-A-FF3-FI05-V_1800 (450-850nm)_633nm_Edge_100%_x100_VIS_LWD_H50um_45sX2
#Remark=	
#Date=	22.11.2021 11:27
#Acquired=	22.11.2021 11:27:50
1200.03	305.294
1200.21	301.284
1200.38	296.175
1200.55	301.718
1200.72	305.903
1200.89	297.268
1201.07	299.42
1201.24	299.081
1201.41	298.561
1201.58	292.341
1201.76	305.269
1201.93	295.535
1202.1	301.536
1202.27	304.46
1202.44	295.563
1202.62	301.076
1202.79	297.757
1202.96	303.496
1203.13	296.575
1203.3	295.787
1203.48	295.15
1203.65	307.391
1203.82	301.231
1203.99	302.141
1204.16	299.635
1204.34	299.164
1204.51	296.511
1204.68	296.413
1204.85	298.851
1205.02	299.978
1205.2	299.55
1205.37	300.213
1205.54	297.295
1205.71	301.994
1205.88	303.92
1206.06	294.201
1206.23	297.222
1206.4	294.806
1206.57	297.215
1206.74	299.626
1206.92	297.812
1207.09	293.145
1207.26	304.667
1207.43	298.289
1207.6	298.468
1207.77	301.916
1207.95	301.192
1208.12	301.023
1208.29	300.661
1208.46	302.884
1208.63	301.042
1208.8	298.816
1208.98	301.653
1209.15	293.968
1209.32	298.675
1209.49	297.854
1209.66	301.477
1209.84	294.882
1210.01	296.192
1210.18	297.053
1210.35	302.895
1210.52	299.886
1210.69	302.072
1210.87	300.872
1211.04	297.775
1211.21	292.529
1211.38	297.571
1211.55	295.026
1211.72	299.619
1211.9	299.644
1212.07	297.263
1212.24	303.926
1212.41	302.353
1212.58	304.307
1212.75	298.358
1212.93	305.59
1213.1	298.961
1213.27	300.647
1213.44	298.786
1213.61	300.286
1213.78	300.535
1213.95	300.088
1214.13	300.437
1214.3	296.841
1214.47	297.917
1214.64	299.061
1214.81	306.372
1214.98	299.56
1215.16	301.066
1215.33	298.766
1215.5	302.143
1215.67	301.12
1215.84	297.842
1216.01	300.3
1216.18	299.807
1216.36	301.116
1216.53	298.729
1216.7	301.175
1216.87	296.857
1217.04	300.729
1217.21	304.552
1217.38	303.644
1217.56	296.246
1217.73	306.129
1217.9	298.48
1218.07	304.477
1218.24	303.608
1218.41	306.149
1218.58	303.02
1218.76	302.851
1218.93	298.146
1219.1	301.593
1219.27	297.018
1219.44	305.112
1219.61	298.914
1219.78	301.424
1219.96	298.725
1220.13	306.426
1220.3	302.566
1220.47	300.777
1220.64	304.691
1220.81	300.932
1220.98	307.172
1221.15	295.991
1221.33	304.291
1221.5	300.375
1221.67	302.308
1221.84	303.71
1222.01	305.163
1222.18	299.228
1222.35	301.97
1222.53	303.225
1222.7	298.58
1222.87	303.466
1223.04	305.089
1223.21	297.978
1223.38	302.046
1223.55	306.329
1223.72	303.336
1223.89	305.296
1224.07	300.962
1224.24	305.625
1224.41	303.228
1224.58	303.951
1224.75	299.133
1224.92	303.575
1225.09	303.037
1225.26	298.281
1225.43	301.405
1225.6	307.279
1225.78	298.68
1225.95	302.315
1226.12	302.495
1226.29	305.114
1226.46	304.165
1226.63	300.819
1226.8	319.037
1226.97	306.568
1227.14	305.474
1227.32	305.568
1227.49	303.876
1227.66	303.171
1227.83	306.974
1228	307.316
1228.17	306.117
1228.34	308.346
1228.51	301.693
1228.68	300.434
1228.85	302.327
1229.03	305.344
1229.2	299.84
1229.37	302.137
1229.54	311.453
1229.71	299.735
1229.88	306.98
1230.05	307.737
1230.22	308.076
1230.39	299.93
1230.56	304.987
1230.73	301.393
1230.91	304.444
1231.08	301.999
1231.25	306.079
1231.42	303.303
1231.59	305.312
1231.76	305.796
1231.93	305.526
1232.1	317.334
1232.27	298.453
1232.44	301.079
1232.61	302.202
1232.78	305.597
1232.96	306.313
1233.13	307.971
1233.3	302.065
1233.47	303.967
1233.64	299.471
1233.81	307.42
1233.98	301.932
1234.15	306.852
1234.32	301.383
1234.49	309.082
1234.66	306.942
1234.83	303.174
1235	301.558
1235.17	303.789
1235.35	305.458
1235.52	300.683
1235.69	305.02
1235.86	311.61
1236.03	304.563
1236.2	308.955
1236.37	303.997
1236.54	303.878
1236.71	304.687
1236.88	307.597
1237.05	304.063
1237.22	310.524
1237.39	306.764
1237.56	304.658
1237.73	301.744
1237.9	305.26
1238.07	307.656
1238.25	311.455
1238.42	309.858
1238.59	301.594
1238.76	309.477
1238.93	310.333
1239.1	303.061
1239.27	313.529
1239.44	298.707
1239.61	314.663
1239.78	306.636
1239.95	301.129
1240.12	301.818
1240.29	307.192
1240.46	303.686
1240.63	310.969
1240.8	307.603
1240.97	303.458
1241.14	305.667
1241.31	304.847
1241.48	307.914
1241.66	300.066
1241.83	306.484
1242	307.887
1242.17	305.594
1242.34	312.082
1242.51	312.847
1242.68	310.636
1242.85	300.63
1243.02	312.073
1243.19	307.972
1243.36	309.92
1243.53	305.601
1243.7	308.427
1243.87	304.526
1244.04	306.839
1244.21	308.484
1244.38	308.812
1244.55	313.665
1244.72	302.911
1244.89	308.576
1245.06	305.799
1245.23	304.373
1245.4	312.439
1245.57	304.964
1245.74	305.886
1245.91	306.831
1246.08	305.924
1246.25	305.426
1246.42	313.332
1246.59	317.824
1246.76	308.093
1246.93	314.466
1247.1	304.2
1247.27	301.262
1247.44	305.712
1247.61	312.088
1247.79	304.738
1247.96	306.536
1248.13	308.638
1248.3	307.804
1248.47	304.72
1248.64	305.938
1248.81	304.138
1248.98	304.492
1249.15	306.011
1249.32	307.877
1249.49	311.077
1249.66	306.76
1249.83	309.971
1250	314.233
1250.17	310.151
1250.34	307.338
1250.51	308.681
1250.68	307.73
1250.85	308.34
1251.02	309.172
1251.19	306.673
1251.36	311.638
1251.53	308.655
1251.7	309.148
1251.87	310.33
1252.04	304.174
1252.21	309.173
1252.38	312.256
1252.55	309.8
1252.72	312.326
1252.89	307.245
1253.06	308.127
1253.23	308.626
1253.4	304.646
1253.57	302.295
1253.74	304.913
1253.91	306.487
1254.08	309.053
1254.25	305.024
1254.42	311.343
1254.59	305.977
1254.75	306.154
1254.93	312.64
1255.09	312.12
1255.27	315.038
1255.43	305.812
1255.6	304.938
1255.77	315.127
1255.94	309.405
1256.11	312.825
1256.28	311.392
1256.45	312.946
1256.62	307.596
1256.79	309.007
1256.96	304.001
1257.13	311.442
1257.3	305.682
1257.47	315.792
1257.64	310.547
1257.81	306.859
1257.98	309.647
1258.15	307.541
1258.32	311.354
1258.49	308.168
1258.66	312.332
1258.83	310.967
1259	308.961
1259.17	303.133
1259.34	313.482
1259.51	309.934
1259.68	310.538
1259.85	314.534
1260.02	309.371
1260.19	312.88
1260.36	306.984
1260.53	310.161
1260.7	306.044
1260.87	315.12
1261.03	306.758
1261.2	303.002
1261.37	313.814
1261.54	310.647
1261.71	307.033
1261.88	308.703
1262.05	302.367
1262.22	304.518
1262.39	308.175
1262.56	310.79
1262.73	309.219
1262.9	313.117
1263.07	307.972
1263.24	304.919
1263.41	309.653
1263.58	312.578
1263.75	310.726
1263.92	312.628
1264.09	311.189
1264.26	313.528
1264.43	306.507
1264.59	315.253
1264.76	310.304
1264.93	315.694
1265.1	311.681
1265.27	312.422
1265.44	305.346
1265.61	313.531
1265.78	313.491
1265.95	308.497
1266.12	320.92
1266.29	310.885
1266.46	304.292
1266.63	315.108
1266.8	310.021
1266.97	310.102
1267.14	314.684
1267.3	310.35
1267.47	308.741
1267.64	310.139
1267.81	315.364
1267.98	309.056
1268.15	313.126
1268.32	313.088
1268.49	307.973
1268.66	317.076
1268.83	309.778
1269	310.025
1269.17	309.612
1269.34	306.523
1269.51	308.481
1269.67	309.436
1269.84	308.761
1270.01	305.543
1270.18	306.293
1270.35	309.4
1270.52	308.379
1270.69	315.933
1270.86	315.977
1271.03	311.62
1271.2	305.819
1271.37	312.589
1271.53	310.373
1271.7	310.6
1271.87	308.128
1272.04	308.384
1272.21	307.502
1272.38	312.112
1272.55	311.439
1272.72	306.591
1272.89	310.976
1273.06	313.63
1273.23	312.163
1273.4	315.874
1273.56	312.174
1273.73	306.274
1273.9	310.775
1274.07	306.122
1274.24	308.497
1274.41	308.672
1274.58	307.167
1274.75	313.813
1274.92	308.922
1275.09	312.256
1275.26	310.752
1275.42	317.918
1275.59	314.413
1275.76	309.1
1275.93	307.987
1276.1	312.301
1276.27	306.998
1276.44	307.168
1276.61	309.041
1276.77	310.586
1276.94	305.821
1277.11	306.958
1277.28	308.977
1277.45	308.936
1277.62	311.32
1277.79	310.567
1277.96	309.323
1278.13	310.03
1278.3	308.937
1278.46	308.162
1278.63	309.191
1278.8	310.091
1278.97	311.155
1279.14	311.766
1279.31	309.523
1279.48	315.452
1279.65	304.226
1279.82	305.31
1279.98	303.217
1280.15	311.512
1280.32	308.951
1280.49	310.718
1280.66	307.578
1280.83	307.212
1281	312.976
1281.17	312.398
1281.33	302.61
1281.5	309.671
1281.67	303.078
1281.84	311.766
1282.01	314.065
1282.18	313.501
1282.35	312.883
1282.51	319.19
1282.68	317.619
1282.85	308.844
1283.02	312.561
1283.19	311.72
1283.36	314.092
1283.53	320.409
1283.7	328.322
1283.86	325.039
1284.03	334.788
1284.2	338.92
1284.37	331.677
1284.54	315.522
1284.71	328.495
1284.88	318.639
1285.04	316.532
1285.21	317.16
1285.38	308.658
1285.55	312.712
1285.72	309.723
1285.89	307.737
1286.06	312.067
1286.22	314.898
1286.39	309.494
1286.56	313.732
1286.73	307.026
1286.9	306.247
1287.07	311.196
1287.23	310.963
1287.4	310.568
1287.57	309.588
1287.74	305.95
1287.91	306.373
1288.08	307.339
1288.25	311.177
1288.41	311.701
1288.58	308.521
1288.75	306.566
1288.92	305.086
1289.09	302.639
1289.26	304.966
1289.42	312.372
1289.59	303.939
1289.76	311.856
1289.93	305.771
1290.1	306.878
1290.27	309.12
1290.44	309.976
1290.6	305.046
1290.77	310.364
1290.94	306.633
1291.11	306.317
1291.28	309.217
1291.44	306.102
1291.61	307.268
1291.78	309.005
1291.95	306.169
1292.12	308.662
1292.29	306.541
1292.45	303.86
1292.62	307.169
1292.79	302.619
1292.96	307.951
1293.13	305.309
1293.3	307.165
1293.46	307.205
1293.63	308.619
1293.8	303.451
1293.97	304.089
1294.14	310.551
1294.3	301.65
1294.47	308.382
1294.64	308.284
1294.81	309.241
1294.98	305.693
1295.15	304.519
1295.31	310.969
1295.48	302.479
1295.65	307.551
1295.82	304.177
1295.99	310.85
1296.15	307.725
1296.32	304.405
1296.49	304.715
1296.66	303.251
1296.83	308.788
1296.99	306.143
1297.16	302.004
1297.33	305.596
1297.5	309.219
1297.67	307.959
1297.83	306.105
1298	304.308
1298.17	309.864
1298.34	306.983
1298.51	307.219
1298.67	308.633
1298.84	311.554
1299.01	306.303
1299.18	309.748
1299.35	304.868
1299.52	307.001
1299.68	303.719
1299.85	304.175
1300.02	308.6
1300.19	301.334
1300.36	304.099
1300.52	306.689
1300.69	304.452
1300.86	308.011
1301.03	304.336
1301.19	306.378
1301.36	302.976
1301.53	305.263
1301.7	300.202
1301.87	304.055
1302.03	306.387
1302.2	311.114
1302.37	308.044
1302.54	304.367
1302.71	306.786
1302.87	303.309
1303.04	309.19
1303.21	305.12
1303.38	308.218
1303.54	303.488
1303.71	303.964
1303.88	301.132
1304.05	306.716
1304.21	304.817
1304.38	309.606
1304.55	302.351
1304.72	308.162
1304.89	305.727
1305.05	299.781
1305.22	311.467
1305.39	304.495
1305.56	303.288
1305.72	306.94
1305.89	305.887
1306.06	312.195
1306.23	301.208
1306.4	299.898
1306.56	303.896
1306.73	305.19
1306.9	304.067
1307.07	305.922
1307.23	305.135
1307.4	303.068
1307.57	305.913
1307.74	307.967
1307.9	303.579
1308.07	309.294
1308.24	307.947
1308.41	307.644
1308.57	309.5
1308.74	304.755
1308.91	304.634
1309.08	303.996
1309.24	309.161
1309.41	305.216
1309.58	311.488
1309.75	311.988
1309.91	300.267
1310.08	306.122
1310.25	305.134
1310.42	301.002
1310.58	304.371
1310.75	305.701
1310.92	305.682
1311.09	301.003
1311.25	305.342
1311.42	309.597
1311.59	302.749
1311.76	302.862
1311.92	303.926
1312.09	301.546
1312.26	307.63
1312.43	304.589
1312.59	302.117
1312.76	304.425
1312.93	307.679
1313.1	309.547
1313.26	301.201
1313.43	306.583
1313.6	303.279
1313.77	303.161
1313.93	307.694
1314.1	308.065
1314.27	303.93
1314.43	305.665
1314.6	307.884
1314.77	303.693
1314.94	306.805
1315.1	310.312
1315.27	307.574
1315.44	305.39
1315.61	307.294
1315.77	305.724
1315.94	305.262
1316.11	303.863
1316.28	310.494
1316.44	301.591
1316.61	306.02
1316.78	305.078
1316.94	311.605
1317.11	307.184
1317.28	304.974
1317.45	300.702
1317.61	306.624
1317.78	306.784
1317.95	307.714
1318.12	306.558
1318.28	305.507
1318.45	306.777
1318.62	306.246
1318.78	314.441
1318.95	307.503
1319.12	303.524
1319.28	307.74
1319.45	305.324
1319.62	307.879
1319.79	308.167
1319.95	308.04
1320.12	306.003
1320.29	307.358
1320.45	310.843
1320.62	304.076
1320.79	312.294
1320.95	302.936
1321.12	308.756
1321.29	301.544
1321.46	311.507
1321.62	308.644
1321.79	308.225
1321.96	306.918
1322.12	304.3
1322.29	305.471
1322.46	303.514
1322.63	303.602
1322.79	304.736
1322.96	308.901
1323.13	302.757
1323.29	307.634
1323.46	307.551
1323.63	304.491
1323.79	312.092
1323.96	314.55
1324.13	300.991
1324.3	307.172
1324.46	310.394
1324.63	305.134
1324.8	305.486
1324.96	309.122
1325.13	309.893
1325.3	307.66
1325.46	302.473
1325.63	305.54
1325.8	310.975
1325.96	307.275
1326.13	301.633
1326.3	308.988
1326.46	303.888
1326.63	312.013
1326.8	311.224
1326.96	306.932
1327.13	306.103
1327.3	313.647
1327.47	314.002
1327.63	305.025
1327.8	306.479
1327.97	302.738
1328.13	307.207
1328.3	316.336
1328.47	308.051
1328.63	314.737
1328.8	308.488
1328.97	308.472
1329.13	305.683
1329.3	310.357
1329.47	307.742
1329.63	311.367
1329.8	309.983
1329.97	308.425
1330.13	310.89
1330.3	307.396
1330.47	310.694
1330.63	315.011
1330.8	309.431
1330.97	312.034
1331.13	306.044
1331.3	308.551
1331.46	310.93
1331.63	308.883
1331.8	315.684
1331.96	311.679
1332.13	308.143
1332.3	310.163
1332.46	305.502
1332.63	307.868
1332.8	311.379
1332.96	307.794
1333.13	307.491
1333.3	309.316
1333.46	315.569
1333.63	304.53
1333.8	312.175
1333.96	312.316
1334.13	316.104
1334.3	312.17
1334.46	312.584
1334.63	309.772
1334.8	306.93
1334.96	313.028
1335.13	311.208
1335.29	312.185
1335.46	316.586
1335.63	307.991
1335.79	311.462
1335.96	313.58
1336.13	314.455
1336.29	307.25
1336.46	313.173
1336.63	307.123
1336.79	314.775
1336.96	307.382
1337.13	314.754
1337.29	314.893
1337.46	307.559
1337.62	303.207
1337.79	312.651
1337.96	312.218
1338.12	318.092
1338.29	306.284
1338.46	311.832
1338.62	305.913
1338.79	311.06
1338.96	308.053
1339.12	311.095
1339.29	312.579
1339.45	309.607
1339.62	307.133
1339.79	311.284
1339.95	314.641
1340.12	307.578
1340.28	311.354
1340.45	308.089
1340.62	313.898
1340.78	312.674
1340.95	308.567
1341.12	310.108
1341.28	309.411
1341.45	313.201
1341.61	310.834
1341.78	310.001
1341.95	312.332
1342.11	316.795
1342.28	309.78
1342.44	312.821
1342.61	311.476
1342.78	310.508
1342.94	316.828
1343.11	306.556
1343.28	312.887
1343.44	309.894
1343.61	312.873
1343.77	310.725
1343.94	312.855
1344.11	316.151
1344.27	313.22
1344.44	311.092
1344.6	305.99
1344.77	312.422
1344.94	311.254
1345.1	310.24
1345.27	320.956
1345.43	309.605
1345.6	313.867
1345.77	312.061
1345.93	311.614
1346.1	312.468
1346.27	313.84
1346.43	313.505
1346.6	309.863
1346.76	311.169
1346.93	309.112
1347.09	309.032
1347.26	306.939
1347.43	308.464
1347.59	312.312
1347.76	314.389
1347.92	319.816
1348.09	310.018
1348.26	307.797
1348.42	307.791
1348.59	314.07
1348.75	308.423
1348.92	316.589
1349.08	314.091
1349.25	318.455
1349.42	313.721
1349.58	312.841
1349.75	309.126
1349.91	308.872
1350.08	308.554
1350.25	312.04
1350.41	313.618
1350.58	310.912
1350.74	317.639
1350.91	316.548
1351.07	311.798
1351.24	317.402
1351.41	316.218
1351.57	319.208
1351.74	314.837
1351.9	317.884
1352.07	314.212
1352.24	315.761
1352.4	315.953
1352.57	316.087
1352.73	315.218
1352.9	315.998
1353.06	310.237
1353.23	311.112
1353.4	315.843
1353.56	316.563
1353.73	316.016
1353.89	315.515
1354.06	313.32
1354.22	314.578
1354.39	318.196
1354.55	310.881
1354.72	313.03
1354.88	310.406
1355.05	316.869
1355.22	312.554
1355.38	307.95
1355.55	311.145
1355.71	310.561
1355.88	309.615
1356.04	318.978
1356.21	319.637
1356.38	314.587
1356.54	312.063
1356.71	313.791
1356.87	316.032
1357.04	313.539
1357.2	312.108
1357.37	316.96
1357.53	321.222
1357.7	310.992
1357.86	315.584
1358.03	316.325
1358.2	321.624
1358.36	319.919
1358.53	314.248
1358.69	312.068
1358.86	314.63
1359.02	316.63
1359.19	316.365
1359.35	315.702
1359.52	316.832
1359.69	321.072
1359.85	315.939
1360.02	321.315
1360.18	309.663
1360.35	319.935
1360.51	312.964
1360.68	314.548
1360.84	320.405
1361.01	313.48
1361.17	315.874
1361.34	313.003
1361.5	317.743
1361.67	316.642
1361.83	311.992
1362	316.699
1362.17	314.97
1362.33	319.166
1362.49	311.229
1362.66	317.337
1362.83	315.601
1362.99	313.718
1363.16	318.006
1363.32	314.314
1363.49	308.6
1363.65	316.451
1363.82	311.941
1363.98	308.601
1364.15	312.666
1364.31	311.107
1364.48	313.309
1364.64	311.689
1364.81	316.023
1364.97	319.2
1365.14	317.508
1365.3	308.171
1365.47	315.084
1365.63	317.774
1365.8	316.653
1365.97	317.576
1366.13	314.534
1366.29	313.143
1366.46	312.423
1366.63	314.11
1366.79	315.006
1366.95	315.063
1367.12	312.433
1367.29	315.895
1367.45	311.12
1367.61	317.548
1367.78	311.635
1367.95	315.847
1368.11	315.241
1368.28	306.493
1368.44	318.311
1368.61	318.472
1368.77	313.329
1368.94	316.792
1369.1	308.77
1369.27	314.879
1369.43	316.271
1369.6	314.813
1369.76	318.712
1369.93	315.461
1370.09	314.116
1370.25	318.508
1370.42	316.022
1370.59	316.327
1370.75	316.167
1370.91	312.529
1371.08	317.576
1371.25	318.428
1371.41	327.374
1371.57	312.058
1371.74	315.987
1371.91	312.864
1372.07	312.067
1372.23	318.943
1372.4	319.078
1372.56	317.133
1372.73	309.804
1372.89	312.008
1373.06	318.743
1373.22	316.786
1373.39	321.345
1373.55	311.997
1373.72	314.149
1373.88	322.469
1374.05	318.874
1374.21	311.631
1374.38	312.168
1374.54	320.536
1374.71	317.316
1374.87	319.036
1375.04	318.582
1375.2	317.614
1375.37	315.722
1375.53	320.317
1375.69	313.769
1375.86	319.197
1376.02	319.733
1376.19	322.138
1376.35	315.92
1376.52	320.608
1376.68	322.9
1376.85	319.624
1377.01	318.788
1377.18	316.516
1377.34	317.294
1377.51	315.868
1377.67	319.204
1377.84	326.238
1378	316.334
1378.17	317.387
1378.33	319.248
1378.49	319.837
1378.66	319.588
1378.82	319.694
1378.99	321.113
1379.15	318.145
1379.32	321.67
1379.48	321.716
1379.65	319.253
1379.81	311.662
1379.97	325.608
1380.14	318.539
1380.3	318.309
1380.47	313.654
1380.63	320.148
1380.8	316.476
1380.96	317.003
1381.13	324.267
1381.29	320.455
1381.46	317.159
1381.62	326.169
1381.78	317.47
1381.95	315.552
1382.11	311.69
1382.28	317.106
1382.44	318.003
1382.61	324.572
1382.77	323.728
1382.94	319.286
1383.1	318.724
1383.26	320.847
1383.43	322.422
1383.59	319.252
1383.76	320.051
1383.92	320.261
1384.09	316.906
1384.25	329.469
1384.42	317.699
1384.58	318.69
1384.74	319.07
1384.91	318.389
1385.07	328.546
1385.24	326.033
1385.4	318.858
1385.56	317.644
1385.73	319.134
1385.89	324.911
1386.06	326.07
1386.22	322.067
1386.39	329.861
1386.55	330.117
1386.72	333.065
1386.88	337.018
1387.04	344.239
1387.21	348.098
1387.37	367.028
1387.54	382.505
1387.7	369.793
1387.86	345.992
1388.03	338.153
1388.19	333.953
1388.36	324.939
1388.52	324.413
1388.68	323.552
1388.85	319.336
1389.01	320.117
1389.18	314.007
1389.34	311.134
1389.51	312.295
1389.67	317.687
1389.83	315.861
1390	316.202
1390.16	323.253
1390.33	313.554
1390.49	311.626
1390.65	316.941
1390.82	322.082
1390.98	318.207
1391.15	314.376
1391.31	316.638
1391.47	320.07
1391.64	320.952
1391.8	317.73
1391.97	316.811
1392.13	315.953
1392.29	314.872
1392.46	318.724
1392.62	311.393
1392.79	314.779
1392.95	315.812
1393.11	318.57
1393.28	319.432
1393.44	315.644
1393.61	322.141
1393.77	316.326
1393.93	317.282
1394.1	311.092
1394.26	313.602
1394.43	318.286
1394.59	321.464
1394.75	314.78
1394.92	316.023
1395.08	315.213
1395.24	321.952
1395.41	313.56
1395.57	317.612
1395.74	321.934
1395.9	315.702
1396.06	310.858
1396.23	315.33
1396.39	315.959
1396.56	317.395
1396.72	309.277
1396.88	313.549
1397.05	313.737
1397.21	313.078
1397.38	314.168
1397.54	320.324
1397.7	316.881
1397.87	319.719
1398.03	315.41
1398.19	312.744
1398.36	320.829
1398.52	309.42
1398.69	313.828
1398.85	315.765
1399.01	318.763
1399.18	312.628
1399.34	313.562
1399.5	311.819
1399.67	316.33
1399.83	307.885
1399.99	310.882
1400.16	320.183
1400.32	315.144
1400.49	313.162
1400.65	318.759
1400.81	314.867
1400.98	318.686
1401.14	309.31
1401.3	318.567
1401.47	317.514
1401.63	310.313
1401.8	313.74
1401.96	315.919
1402.12	319.069
1402.28	314.809
1402.45	314.872
1402.61	315.938
1402.78	312.155
1402.94	309.966
1403.1	315.74
1403.27	314.137
1403.43	317.206
1403.59	307.456
1403.76	316.793
1403.92	315.625
1404.08	312.367
1404.25	315.541
1404.41	313.361
1404.57	315.549
1404.74	313.535
1404.9	310.121
1405.07	315.136
1405.23	312.223
1405.39	312.311
1405.56	312.303
1405.72	316.705
1405.88	310.576
1406.05	311.311
1406.21	315.446
1406.37	314.833
1406.54	311.892
1406.7	314.649
1406.86	311.461
1407.03	315.584
1407.19	314.394
1407.35	315.191
1407.52	314.2
1407.68	314.755
1407.84	317.887
1408.01	310.5
1408.17	312.663
1408.33	315.619
1408.5	315.454
1408.66	318.685
1408.82	319.088
1408.99	317.495
1409.15	316.367
1409.31	308.678
1409.48	315.981
1409.64	316.404
1409.8	326.125
1409.97	314.394
1410.13	312.65
1410.29	318.724
1410.45	309.554
1410.62	309.694
1410.78	308.926
1410.94	309.924
1411.11	316.108
1411.27	313.991
1411.43	313.877
1411.6	313.226
1411.76	314.522
1411.92	314.96
1412.09	321.107
1412.25	309.615
1412.41	317.877
1412.58	311.834
1412.74	310.966
1412.9	317.605
1413.07	317.103
1413.23	312.541
1413.39	312.85
1413.55	309.987
1413.72	311.263
1413.88	316.572
1414.04	312.608
1414.21	315.523
1414.37	314.006
1414.53	315.072
1414.7	312.026
1414.86	312.079
1415.02	314.614
1415.19	316.349
1415.35	317.38
1415.51	312.462
1415.67	322.795
1415.84	320.398
1416	311.043
1416.16	315.793
1416.33	317.269
1416.49	312.537
1416.65	314.738
1416.82	316.474
1416.98	313.091
1417.14	312.65
1417.3	316.092
1417.47	313.647
1417.63	318.091
1417.79	314.433
1417.96	312.071
1418.12	311.503
1418.28	314.58
1418.44	316.478
1418.61	310.337
1418.77	313.953
1418.93	312.461
1419.1	315.895
1419.26	318.044
1419.42	316.264
1419.58	313.944
1419.75	312.036
1419.91	316.084
1420.07	315.026
1420.24	313.937
1420.4	317.809
1420.56	312.555
1420.72	319.267
1420.89	318.832
1421.05	317.52
1421.21	311.268
1421.37	320.452
1421.54	317.399
1421.7	320.179
1421.86	313.021
1422.03	315.901
1422.19	315.979
1422.35	318.263
1422.51	313.458
1422.68	312.857
1422.84	313.116
1423	316.657
1423.16	317.318
1423.33	314.984
1423.49	317.384
1423.65	314.345
1423.82	312.206
1423.98	317.064
1424.14	316.495
1424.3	316.206
1424.47	317.023
1424.63	319.35
1424.79	312.405
1424.95	313.044
1425.12	313.212
1425.28	317.171
1425.44	318.203
1425.6	315.766
1425.77	310.819
1425.93	314.03
1426.09	313.291
1426.25	320.578
1426.42	315.152
1426.58	317.323
1426.74	317.314
1426.9	318.507
1427.07	323.875
1427.23	318.794
1427.39	323.264
1427.55	320.021
1427.72	321.034
1427.88	313.733
1428.04	315.561
1428.2	318.403
1428.37	316.77
1428.53	318.906
1428.69	321.093
1428.85	318.208
1429.02	323.599
1429.18	314.67
1429.34	316.191
1429.5	317.485
1429.67	325.415
1429.83	316.555
1429.99	317.536
1430.15	318.892
1430.32	311.369
1430.48	315.29
1430.64	319.626
1430.8	317.693
1430.97	318.972
1431.13	320.321
1431.29	324.441
1431.45	311.8
1431.61	322.148
1431.78	313.683
1431.94	320.411
1432.1	318.204
1432.26	318.167
1432.42	318.991
1432.59	315.177
1432.75	317.151
1432.91	321.685
1433.07	320.149
1433.24	313.846
1433.4	321.392
1433.56	319.298
1433.72	314.234
1433.89	320.182
1434.05	318.832
1434.21	316.933
1434.37	316.346
1434.53	319.361
1434.7	317.264
1434.86	319.074
1435.02	316.874
1435.18	312.979
1435.34	320.466
1435.51	318.886
1435.67	319.345
1435.83	315.639
1435.99	320.795
1436.16	318.357
1436.32	318.246
1436.48	314.767
1436.64	318.094
1436.8	320.173
1436.97	319.874
1437.13	320.888
1437.29	321.246
1437.45	317.454
1437.62	317.434
1437.78	319.011
1437.94	317.297
1438.1	317.887
1438.26	317.648
1438.43	315.63
1438.59	315.262
1438.75	318.434
1438.91	321.683
1439.07	318.04
1439.23	322.117
1439.4	323.391
1439.56	322.16
1439.72	319.096
1439.88	318.833
1440.04	313.386
1440.21	319.781
1440.37	322.316
1440.53	314.558
1440.69	319.412
1440.85	312.37
1441.02	313.379
1441.18	320.981
1441.34	316.857
1441.5	321.427
1441.66	320.841
1441.83	318.364
1441.99	314.848
1442.15	315.336
1442.31	321.637
1442.47	317.707
1442.64	313.377
1442.8	324.087
1442.96	315.516
1443.12	316.722
1443.28	316.65
1443.44	319.469
1443.61	316.091
1443.77	316.752
1443.93	315.562
1444.09	321.887
1444.25	325.234
1444.42	314.987
1444.58	316.145
1444.74	320.817
1444.9	323.298
1445.06	325.455
1445.22	327.518
1445.39	320.817
1445.55	317.096
1445.71	316.193
1445.87	320.549
1446.03	318.732
1446.19	320.033
1446.36	316.321
1446.52	321.365
1446.68	320.422
1446.84	320.543
1447	316.322
1447.16	314.6
1447.33	319.322
1447.49	313.415
1447.65	320.923
1447.81	320.853
1447.97	316.264
1448.13	318.032
1448.29	325.657
1448.46	313.015
1448.62	316.685
1448.78	315.709
1448.94	313.55
1449.1	316.705
1449.26	315.936
1449.43	315.161
1449.59	322.294
1449.75	325.619
1449.91	317.139
1450.07	319.71
1450.23	318.168
1450.39	313.553
1450.56	316.833
1450.72	322.767
1450.88	316.796
1451.04	317.357
1451.2	320.214
1451.36	319.49
1451.53	320.76
1451.69	319.536
1451.85	319.782
1452.01	319.965
1452.17	323.896
1452.33	319.438
1452.49	319.04
1452.66	318.336
1452.82	319.947
1452.98	318.42
1453.14	321.4
1453.3	316.717
1453.46	317.256
1453.62	320.101
1453.78	323.251
1453.95	318.199
1454.11	318.247
1454.27	317.785
1454.43	313.56
1454.59	317.361
1454.75	319.071
1454.91	318.913
1455.07	321.495
1455.24	321.378
1455.4	317.745
1455.56	320.209
1455.72	317.407
1455.88	318.225
1456.04	322.108
1456.2	320.138
1456.36	321.837
1456.53	316.197
1456.69	316.435
1456.85	314.728
1457.01	319.671
1457.17	319.294
1457.33	320.86
1457.49	319.823
1457.66	316.159
1457.82	320.283
1457.98	324.968
1458.14	319.175
1458.3	317.688
1458.46	317.914
1458.62	318.525
1458.78	317.124
1458.94	317.383
1459.11	320.014
1459.27	318.775
1459.43	321.406
1459.59	316.013
1459.75	315.766
1459.91	319.428
1460.07	318.798
1460.23	317.082
1460.39	317.126
1460.55	318.84
1460.72	320.085
1460.88	313.994
1461.04	320.507
1461.2	320.242
1461.36	322.342
1461.52	317.585
1461.68	318.723
1461.84	319.418
1462	317.544
1462.17	321.341
1462.33	316.662
1462.49	316.446
1462.65	318.408
1462.81	315.571
1462.97	322.648
1463.13	316.761
1463.29	318.732
1463.45	320.24
1463.61	321.636
1463.77	315.395
1463.94	316.109
1464.1	316.441
1464.26	317.094
1464.42	314.885
1464.58	317.985
1464.74	318.005
1464.79	317.252
1464.95	313.692
1465.12	317.75
1465.28	319.308
1465.44	316.609
1465.61	319.822
1465.77	315.342
1465.93	321.8
1466.1	315.377
1466.26	321.551
1466.42	316.162
1466.59	317.964
1466.75	317.546
1466.92	319.239
1467.08	318.444
1467.24	314.678
1467.41	312.754
1467.57	315.349
1467.73	318.591
1467.9	318.624
1468.06	319.323
1468.22	316.772
1468.39	313.834
1468.55	315.731
1468.71	314.518
1468.88	320.424
1469.04	317.662
1469.2	315.224
1469.37	314.336
1469.53	314.091
1469.69	314.453
1469.86	315.885
1470.02	317.774
1470.18	318.763
1470.35	319.855
1470.51	312.971
1470.67	321.358
1470.84	315.652
1471	316.618
1471.16	317.044
1471.33	314.611
1471.49	317.06
1471.65	321.009
1471.81	317.038
1471.98	316.373
1472.14	315.447
1472.3	315.998
1472.47	318.426
1472.63	316.891
1472.79	317.001
1472.96	317.732
1473.12	316.621
1473.28	318.861
1473.45	321.986
1473.61	316.87
1473.77	319.211
1473.94	315.607
1474.1	316.954
1474.26	315.431
1474.43	319.605
1474.59	317.886
1474.75	317.954
1474.92	319.215
1475.08	317.65
1475.24	317.639
1475.4	317.19
1475.57	313.703
1475.73	317.653
1475.89	313.538
1476.06	315.839
1476.22	320.509
1476.38	321.916
1476.55	317.47
1476.71	315.941
1476.87	320.114
1477.04	317.032
1477.2	328.099
1477.36	317.578
1477.52	320.955
1477.69	318.774
1477.85	318.015
1478.01	319.972
1478.18	313.698
1478.34	312.566
1478.5	318.813
1478.66	313.692
1478.83	322.401
1478.99	318.328
1479.15	322.277
1479.32	321.994
1479.48	315.86
1479.64	316.248
1479.8	316.644
1479.97	316.883
1480.13	315.553
1480.29	318.968
1480.46	318.832
1480.62	318.381
1480.78	322.728
1480.95	316.123
1481.11	318.342
1481.27	321.537
1481.43	315.867
1481.6	319.936
1481.76	314.825
1481.92	314.857
1482.08	316.653
1482.25	324.955
1482.41	318.47
1482.57	314.553
1482.74	315.723
1482.9	321.74
1483.06	323.71
1483.22	317.205
1483.39	318.744
1483.55	318.1
1483.71	314.596
1483.88	316.267
1484.04	323.588
1484.2	319.902
1484.36	319.163
1484.53	319.539
1484.69	312.835
1484.85	321.731
1485.01	315.7
1485.18	318.38
1485.34	315.789
1485.5	317.486
1485.66	322.254
1485.83	318.318
1485.99	316.137
1486.15	316.758
1486.32	318.95
1486.48	312.506
1486.64	318.407
1486.8	320.402
1486.96	314.919
1487.13	317.138
1487.29	316.184
1487.45	319.647
1487.62	314.892
1487.78	320.118
1487.94	316.996
1488.1	317.755
1488.27	316.669
1488.43	314.475
1488.59	315.545
1488.75	318.134
1488.92	318.629
1489.08	321.553
1489.24	317.849
1489.4	318.504
1489.57	320.743
1489.73	313.707
1489.89	316.087
1490.05	318.593
1490.22	318.862
1490.38	320.787
1490.54	317.382
1490.7	319.695
1490.87	323.343
1491.03	318.802
1491.19	319.524
1491.35	315.381
1491.52	314.487
1491.68	312.593
1491.84	317.912
1492	320.869
1492.16	314.832
1492.33	316.14
1492.49	318.039
1492.65	321.938
1492.81	320.174
1492.98	316.364
1493.14	317.521
1493.3	315.578
1493.46	316.893
1493.63	319.076
1493.79	320.97
1493.95	319.074
1494.11	325.938
1494.28	317.838
1494.44	315.063
1494.6	321.105
1494.76	313.288
1494.92	317.475
1495.09	319.644
1495.25	316.323
1495.41	317.931
1495.57	318.395
1495.73	317.126
1495.9	321.165
1496.06	321.425
1496.22	318.719
1496.38	316.555
1496.55	320.026
1496.71	320.007
1496.87	321.549
1497.03	319.76
1497.2	318.924
1497.36	320.352
1497.52	315.937
1497.68	315.279
1497.84	318.6
1498.01	318.768
1498.17	318.841
1498.33	317.72
1498.49	317.83
1498.65	320.937
1498.82	316.908
1498.98	319.245
1499.14	315.032
1499.3	319.204
1499.46	316.581
1499.63	317.421
1499.79	317.128
1499.95	315.838
1500.11	320.143
1500.28	318.162
1500.44	318.302
1500.6	318.24
1500.76	317.187
1500.92	322.172
1501.09	319.875
1501.25	316.318
1501.41	319.554
1501.57	321.211
1501.73	318.211
1501.89	314.318
1502.06	317.129
1502.22	318.488
1502.38	318.663
1502.54	314.974
1502.7	320.262
1502.87	322.982
1503.03	319.712
1503.19	316.02
1503.35	318.499
1503.51	317.305
1503.68	319.977
1503.84	317.902
1504	322
1504.16	322.443
1504.32	319.795
1504.49	317.371
1504.65	316.884
1504.81	329.202
1504.97	321.473
1505.13	319.033
1505.29	322.235
1505.46	316.967
1505.62	316.672
1505.78	316.824
1505.94	314.402
1506.1	322.177
1506.26	319.916
1506.43	319.06
1506.59	317.744
1506.75	322.552
1506.91	317.237
1507.07	322.968
1507.24	319.563
1507.4	317.479
1507.56	318.576
1507.72	318.044
1507.88	319.795
1508.04	317.882
1508.21	318.694
1508.37	319.687
1508.53	319.45
1508.69	317.285
1508.85	322.982
1509.02	319.685
1509.18	325.063
1509.34	317.89
1509.5	320.8
1509.66	322.095
1509.82	321.499
1509.98	320.743
1510.15	317.784
1510.31	323.003
1510.47	322.122
1510.63	320.064
1510.79	320.159
1510.95	318.963
1511.12	321.408
1511.28	318.173
1511.44	317.784
1511.6	322.361
1511.76	318.351
1511.92	317.584
1512.08	322.439
1512.25	319.782
1512.41	315.72
1512.57	322.885
1512.73	320.518
1512.89	321.465
1513.05	323.288
1513.22	315.311
1513.38	323.372
1513.54	316.25
1513.7	318.511
1513.86	320.538
1514.02	321.759
1514.18	319.736
1514.35	319.935
1514.51	319.066
1514.67	327.709
1514.83	321.329
1514.99	321.309
1515.15	320.431
1515.31	315.3
1515.48	317.68
1515.64	321.856
1515.8	322.292
1515.96	322.235
1516.12	319.27
1516.28	322.899
1516.44	324.105
1516.6	322.449
1516.77	316.687
1516.93	321.934
1517.09	324.327
1517.25	320.273
1517.41	321.052
1517.57	323.379
1517.73	323.004
1517.9	319.265
1518.06	318.234
1518.22	324.872
1518.38	319.504
1518.54	321.378
1518.7	324.972
1518.86	329.46
1519.02	318.132
1519.19	318.354
1519.35	319.551
1519.51	323.849
1519.67	327.244
1519.83	317.852
1519.99	322.191
1520.15	322.233
1520.32	320.542
1520.48	320.427
1520.64	323.991
1520.8	323.02
1520.96	317.243
1521.12	327.52
1521.28	323.846
1521.44	318.737
1521.6	317.496
1521.76	316.827
1521.93	322.123
1522.09	323.872
1522.25	323.242
1522.41	324.767
1522.57	325.617
1522.73	321.465
1522.89	321.271
1523.05	321.657
1523.21	319.218
1523.38	323.846
1523.54	328.408
1523.7	319.395
1523.86	315.496
1524.02	321.058
1524.18	325.053
1524.34	324.208
1524.5	322.003
1524.66	319.834
1524.82	322.38
1524.99	322.995
1525.15	325.306
1525.31	326.847
1525.47	326.481
1525.63	322.112
1525.79	324.68
1525.95	321.222
1526.11	326.093
1526.27	324.213
1526.43	325.61
1526.6	321.359
1526.76	318.378
1526.92	320.56
1527.08	325.85
1527.24	323.473
1527.4	326.32
1527.56	319.789
1527.72	326.435
1527.88	323.723
1528.04	324.923
1528.2	319.645
1528.37	320.672
1528.53	318.654
1528.69	327.479
1528.85	321.325
1529.01	323.438
1529.17	320.239
1529.33	324.943
1529.49	321.379
1529.65	321.108
1529.81	323.387
1529.97	323.004
1530.13	323.386
1530.3	323.507
1530.46	324.053
1530.62	322.878
1530.78	322.577
1530.94	319.373
1531.1	322.276
1531.26	322.392
1531.42	322.056
1531.58	324.078
1531.74	321.835
1531.9	323.932
1532.06	328.18
1532.22	320.612
1532.38	321.725
1532.55	326.618
1532.71	323.946
1532.87	323.596
1533.03	323.678
1533.19	327.702
1533.35	324.924
1533.51	330.409
1533.67	326.034
1533.83	325.116
1533.99	324.487
1534.15	324.177
1534.31	325.148
1534.47	320.332
1534.63	323.342
1534.79	320.099
1534.95	322.193
1535.12	326.72
1535.28	323.993
1535.44	326.135
1535.6	325.858
1535.76	322.817
1535.92	324.497
1536.08	325.683
1536.24	322.281
1536.4	322.915
1536.56	323.275
1536.72	322.202
1536.88	326.065
1537.04	325.186
1537.2	326.903
1537.36	324.369
1537.52	323.787
1537.68	324.218
1537.84	328.142
1538	321.205
1538.16	328.195
1538.32	326.04
1538.49	324.016
1538.65	325.391
1538.81	329.098
1538.97	325.858
1539.13	325.037
1539.29	326.112
1539.45	327.16
1539.61	327.754
1539.77	324.585
1539.93	323.389
1540.09	325.17
1540.25	320.661
1540.41	324.038
1540.57	327.493
1540.73	323.739
1540.89	322.506
1541.05	328.47
1541.21	321.36
1541.37	323.024
1541.53	320.657
1541.69	326.728
1541.85	322.43
1542.01	328.691
1542.17	323.155
1542.33	327.01
1542.49	324.844
1542.65	326.721
1542.81	328.096
1542.97	325.418
1543.13	327.543
1543.29	325.974
1543.46	323.449
1543.62	325.778
1543.78	322.892
1543.94	328.325
1544.1	326.076
1544.26	325.868
1544.42	321.133
1544.58	326.27
1544.74	331.658
1544.9	323.484
1545.06	329.14
1545.22	329.075
1545.38	327.061
1545.54	328.047
1545.7	327.763
1545.86	326.393
1546.02	331.977
1546.18	326.234
1546.34	326.493
1546.5	327.254
1546.66	324.759
1546.82	323.348
1546.98	325.441
1547.14	325.146
1547.3	322.284
1547.46	324.042
1547.62	323.439
1547.78	326.356
1547.94	326.02
1548.1	330.398
1548.26	326.859
1548.42	327.135
1548.58	321.072
1548.74	326.8
1548.9	331.267
1549.06	324.611
1549.22	329.123
1549.38	330.779
1549.54	324.39
1549.7	328.043
1549.86	323.913
1550.02	325.058
1550.18	331.639
1550.34	330.702
1550.5	325.593
1550.66	324.482
1550.82	324.61
1550.98	327.137
1551.14	328.115
1551.3	327.369
1551.46	327.018
1551.62	326.135
1551.78	326.759
1551.94	323.97
1552.1	332.396
1552.26	330.756
1552.42	330.176
1552.58	331.164
1552.74	330.256
1552.9	322.373
1553.06	325.833
1553.22	329.109
1553.38	325.48
1553.54	322.644
1553.69	327.456
1553.85	328.114
1554.01	323.544
1554.17	326.022
1554.33	325.999
1554.49	324.176
1554.65	333.17
1554.81	334.264
1554.97	324.622
1555.13	333.419
1555.29	328.892
1555.45	325.736
1555.61	333.769
1555.77	326.4
1555.93	325.335
1556.09	328.214
1556.25	328.944
1556.41	326.352
1556.57	323.488
1556.73	331.615
1556.89	328.847
1557.05	332.302
1557.21	326.682
1557.37	326.214
1557.53	323.32
1557.69	325.636
1557.85	328.029
1558.01	324.914
1558.17	333.937
1558.33	330.5
1558.48	324.877
1558.64	331.66
1558.8	330.486
1558.96	331.637
1559.12	325.234
1559.28	328.868
1559.44	332.729
1559.6	329.087
1559.76	329.327
1559.92	329.205
1560.08	325.139
1560.24	334.867
1560.4	327.4
1560.56	326.482
1560.72	325.048
1560.88	326.91
1561.04	327.64
1561.2	323.795
1561.36	330.499
1561.52	328.369
1561.68	329.429
1561.84	326.659
1561.99	330.853
1562.15	328.074
1562.31	326.679
1562.47	332.876
1562.63	331.678
1562.79	326.146
1562.95	326.08
1563.11	325.962
1563.27	325.909
1563.43	324.224
1563.59	325.939
1563.75	322.072
1563.91	326.017
1564.07	332.152
1564.23	326.987
1564.38	323.483
1564.54	328.253
1564.7	328.129
1564.86	335.019
1565.02	328.446
1565.18	330.538
1565.34	328.811
1565.5	329.589
1565.66	326.794
1565.82	328.186
1565.98	326.38
1566.14	327.656
1566.3	325.439
1566.46	326.58
1566.61	325.048
1566.77	326.586
1566.93	327.494
1567.09	323.045
1567.25	329.506
1567.41	338.212
1567.57	326.989
1567.73	326.943
1567.89	330.073
1568.05	326.976
1568.21	331.198
1568.37	326.318
1568.53	333.83
1568.68	325.95
1568.84	331.538
1569	328.411
1569.16	325.889
1569.32	325.239
1569.48	326.695
1569.64	330.51
1569.8	327.449
1569.96	330.336
1570.12	326.904
1570.28	332.105
1570.43	325.068
1570.59	332.041
1570.75	323.463
1570.91	326.062
1571.07	330.061
1571.23	328.335
1571.39	321.236
1571.55	329.387
1571.71	330.816
1571.86	329.769
1572.02	323.718
1572.18	327.284
1572.34	334.388
1572.5	329.249
1572.66	328.089
1572.82	328.448
1572.98	327.73
1573.14	330.847
1573.3	326.04
1573.46	332.753
1573.61	329.423
1573.77	323.845
1573.93	327.052
1574.09	326.962
1574.25	332.105
1574.41	332.648
1574.57	335.526
1574.73	322.828
1574.89	327.928
1575.04	325.544
1575.2	322.868
1575.36	329.899
1575.52	324.23
1575.68	326.306
1575.84	324.172
1576	324.283
1576.16	330.322
1576.31	331.17
1576.47	330.041
1576.63	324.447
1576.79	325.378
1576.95	323.972
1577.11	327.899
1577.27	325.08
1577.43	324.201
1577.58	327.248
1577.74	332.759
1577.9	326.815
1578.06	322.428
1578.22	330.433
1578.38	332.024
1578.54	325.259
1578.7	328.551
1578.86	325.472
1579.01	326.735
1579.17	333.286
1579.33	329.398
1579.49	328.403
1579.65	324.599
1579.81	331.571
1579.97	329.898
1580.13	326.96
1580.28	333.189
1580.44	328.904
1580.6	329.125
1580.76	327.846
1580.92	329.04
1581.08	330.066
1581.24	326.193
1581.39	325.659
1581.55	327.192
1581.71	329.098
1581.87	326.966
1582.03	330.118
1582.19	326.19
1582.34	324.329
1582.5	325.432
1582.66	323.991
1582.82	326.551
1582.98	327.336
1583.14	329.51
1583.3	333.419
1583.46	325.246
1583.61	330.29
1583.77	328.584
1583.93	331.742
1584.09	327.25
1584.25	330.804
1584.41	331.934
1584.57	325.559
1584.72	327.806
1584.88	327.563
1585.04	325.917
1585.2	332.437
1585.36	330.463
1585.52	326.256
1585.67	329.407
1585.83	325.105
1585.99	327.569
1586.15	327.209
1586.31	328.229
1586.47	327.283
1586.62	328.497
1586.78	326.323
1586.94	328.554
1587.1	326.139
1587.26	328.762
1587.42	325.571
1587.57	329.642
1587.73	328.427
1587.89	327.758
1588.05	327.923
1588.21	331.864
1588.37	325.388
1588.52	327.492
1588.68	325.038
1588.84	325.331
1589	326.02
1589.16	326.058
1589.32	328.537
1589.47	329.053
1589.63	328.874
1589.79	324.575
1589.95	328.835
1590.11	347.682
1590.26	329.16
1590.42	330.902
1590.58	322.499
1590.74	327.511
1590.9	330.679
1591.06	327.495
1591.21	328.689
1591.37	327.191
1591.53	328.932
1591.69	329.971
1591.85	325.448
1592.01	323.381
1592.16	329.675
1592.32	328.484
1592.48	332.756
1592.64	329.242
1592.8	327.407
1592.95	329.044
1593.11	320.83
1593.27	330.71
1593.43	328.005
1593.59	323.944
1593.74	328.081
1593.9	328.26
1594.06	332.883
1594.22	330.794
1594.38	327.396
1594.53	328.974
1594.69	325.772
1594.85	331.149
1595.01	327.997
1595.17	330.752
1595.32	330.19
1595.48	331.192
1595.64	327.092
1595.8	329.405
1595.96	326.925
1596.12	324.642
1596.27	328.597
1596.43	325.496
1596.59	335.444
1596.75	330.911
1596.91	337.165
1597.06	333.065
1597.22	326.999
1597.38	334.288
1597.54	327.903
1597.69	324.041
1597.85	328.369
1598.01	326.458
1598.17	327.228
1598.33	327.195
1598.48	326.814
1598.64	335.123
1598.8	328.251
1598.96	330.052
1599.12	327.972
1599.27	332.875
1599.43	323.362
1599.59	330.4
1599.75	327.843
1599.9	332.492
1600.06	333.711
1600.22	328.311
1600.38	328.471
1600.54	327.184
1600.69	329.302
1600.85	335.351
1601.01	327.729
1601.17	325.32
1601.32	327.315
1601.48	330.396
1601.64	327.387
1601.8	328.131
1601.95	327.196
1602.11	329.562
1602.27	329.372
1602.43	328.897
1602.59	328.881
1602.74	330.53
1602.9	326.84
1603.06	332.876
1603.22	329.606
1603.38	331.927
1603.53	330.29
1603.69	332.449
1603.85	328.799
1604.01	328.784
1604.16	328.102
1604.32	328.804
1604.48	327.461
1604.64	326.487
1604.79	334.843
1604.95	326.688
1605.11	322.328
1605.27	326.756
1605.42	326.868
1605.58	326.023
1605.74	324.69
1605.9	323.796
1606.05	327.425
1606.21	332.902
1606.37	327.218
1606.53	324.736
1606.68	322.088
1606.84	328.799
1607	328.973
1607.16	330.146
1607.31	330.905
1607.47	328.736
1607.63	334.56
1607.79	330.824
1607.94	331.949
1608.1	326.123
1608.26	332.519
1608.42	327.9
1608.57	326.92
1608.73	328.121
1608.89	328.004
1609.05	331.659
1609.2	325.612
1609.36	329.086
1609.52	328.839
1609.68	330.325
1609.83	328.343
1609.99	328.16
1610.15	331.442
1610.31	331.871
1610.46	332.908
1610.62	327.765
1610.78	334.463
1610.94	330.055
1611.09	331.313
1611.25	330.055
1611.41	329.961
1611.56	328.775
1611.72	331.851
1611.88	325.505
1612.04	329.176
1612.19	330.825
1612.35	329.58
1612.51	328.122
1612.67	330.447
1612.82	329.943
1612.98	331.004
1613.14	326.257
1613.29	336.332
1613.45	337.001
1613.61	337.862
1613.77	329.052
1613.92	326.911
1614.08	329.496
1614.24	331.919
1614.4	329.684
1614.55	328.725
1614.71	329.485
1614.87	329.511
1615.02	332.051
1615.18	331.255
1615.34	333.698
1615.49	327.189
1615.65	330.426
1615.81	333.255
1615.97	329.772
1616.12	328.612
1616.28	333.703
1616.44	327.979
1616.6	328.177
1616.75	333.139
1616.91	338.74
1617.07	333.714
1617.22	330.316
1617.38	330.141
1617.54	330.192
1617.69	328.009
1617.85	333.572
1618.01	332.741
1618.17	330.778
1618.32	328.062
1618.48	342.63
1618.64	329.342
1618.79	335.769
1618.95	332.513
1619.11	328.563
1619.27	336.374
1619.42	331.144
1619.58	329.147
1619.74	335.355
1619.89	333.162
1620.05	335.186
1620.21	335.051
1620.36	332.496
1620.52	337.665
1620.68	329.853
1620.83	329.193
1620.99	335.1
1621.15	333.22
1621.3	337.105
1621.46	333.641
1621.62	330.838
1621.78	329.278
1621.93	337.166
1622.09	333.748
1622.25	332.229
1622.4	335.12
1622.56	333.826
1622.72	333.522
1622.87	335.532
1623.03	334.427
1623.19	335.869
1623.34	332.255
1623.5	336.841
1623.66	331.345
1623.81	339.075
1623.97	343.661
1624.13	333.161
1624.28	332.537
1624.44	331.948
1624.6	331.502
1624.76	331.496
1624.91	332.54
1625.07	335.733
1625.23	336.523
1625.38	336.702
1625.54	334.459
1625.7	336.633
1625.85	329.935
1626.01	333.041
1626.17	338.32
1626.32	332.855
1626.48	331.358
1626.64	335.214
1626.79	334.45
1626.95	330.103
1627.11	331.797
1627.26	330.523
1627.42	341.67
1627.58	336.328
1627.73	332.675
1627.89	330.67
1628.05	330.776
1628.2	334.742
1628.36	331.486
1628.52	341.215
1628.67	334.417
1628.83	336.907
1628.99	332.983
1629.14	330.328
1629.3	333.8
1629.46	335.056
1629.61	335.363
1629.77	329.89
1629.92	336.428
1630.08	334.835
1630.24	336.031
1630.39	335.199
1630.55	332.17
1630.71	332.085
1630.86	338.539
1631.02	331.501
1631.18	333.128
1631.33	336.388
1631.49	331.056
1631.65	336.268
1631.8	330.846
1631.96	336.951
1632.12	335.957
1632.27	339.826
1632.43	331.661
1632.58	334.55
1632.74	336.368
1632.9	335.18
1633.05	333.682
1633.21	338.587
1633.37	342.131
1633.52	335.566
1633.68	336.211
1633.84	334.66
1633.99	339.439
1634.15	338.523
1634.31	330.749
1634.46	334.008
1634.62	335.829
1634.77	337.872
1634.93	338.368
1635.09	338.803
1635.24	342.164
1635.4	336.445
1635.56	335.017
1635.71	331.754
1635.87	332.744
1636.02	335.406
1636.18	334.404
1636.34	335.407
1636.49	333.712
1636.65	338.567
1636.81	338.972
1636.96	333.012
1637.12	332.462
1637.27	337.479
1637.43	338.031
1637.59	341.602
1637.74	336.438
1637.9	332.027
1638.06	343.259
1638.21	330.084
1638.37	333.933
1638.52	336.248
1638.68	337.711
1638.84	334.529
1638.99	337.949
1639.15	336.552
1639.31	332.256
1639.46	336.934
1639.62	336.236
1639.77	338.707
1639.93	333.618
1640.09	336.619
1640.24	336.938
1640.4	338.188
1640.55	340.26
1640.71	340.076
1640.87	335.671
1641.02	332.464
1641.18	337.338
1641.33	336.004
1641.49	335.056
1641.65	335.408
1641.8	334.151
1641.96	342.274
1642.11	339.182
1642.27	334.883
1642.43	336.793
1642.58	336.844
1642.74	338.686
1642.89	337.087
1643.05	337.46
1643.21	333.229
1643.36	337.094
1643.52	334.376
1643.67	335.201
1643.83	337.148
1643.99	333.802
1644.14	338.556
1644.3	336.417
1644.45	336.675
1644.61	336.591
1644.77	334.369
1644.92	342.238
1645.08	336.46
1645.23	332.171
1645.39	339.195
1645.55	339.561
1645.7	338.571
1645.86	341.882
1646.01	334.046
1646.17	337.23
1646.32	340.573
1646.48	340.516
1646.64	338.166
1646.79	340.58
1646.95	337.44
1647.1	338.409
1647.26	338.134
1647.42	340.4
1647.57	336.932
1647.73	342.547
1647.88	336.162
1648.04	337.435
1648.19	333.856
1648.35	338.253
1648.51	338.408
1648.66	339.211
1648.82	337.707
1648.97	339.127
1649.13	337.234
1649.28	333.818
1649.44	352.187
1649.59	338.788
1649.75	336.122
1649.91	341.715
1650.06	334.992
1650.22	337.242
1650.37	345.545
1650.53	339.297
1650.69	344.948
1650.84	340.077
1651	339.538
1651.15	340.164
1651.31	339.532
1651.46	339.874
1651.62	348.257
1651.77	338.415
1651.93	342.712
1652.08	337.296
1652.24	339.99
1652.4	341.26
1652.55	334.805
1652.71	337.58
1652.86	336.794
1653.02	337.635
1653.17	339.614
1653.33	343.334
1653.49	335.828
1653.64	333.582
1653.8	343.404
1653.95	344.907
1654.11	341.827
1654.26	337.788
1654.42	344.258
1654.57	337.512
1654.73	345.889
1654.88	343.936
1655.04	340.267
1655.2	335.199
1655.35	334.888
1655.51	342.239
1655.66	336.506
1655.82	339.544
1655.97	338.671
1656.13	338.633
1656.28	333.774
1656.44	335.107
1656.59	345.273
1656.75	339.391
1656.91	341.798
1657.06	342.855
1657.22	347.555
1657.37	349.079
1657.53	337.279
1657.68	335.845
1657.84	336.964
1657.99	337.277
1658.15	342.809
1658.3	346.303
1658.46	336.518
1658.61	340.828
1658.77	337.927
1658.92	341.571
1659.08	338.74
1659.24	342.253
1659.39	337.667
1659.55	336.704
1659.7	335.318
1659.86	339.761
1660.01	339.583
1660.17	337.681
1660.32	338.46
1660.48	342.39
1660.63	348.578
1660.79	338.812
1660.94	340.761
1661.1	336.638
1661.25	344.665
1661.41	337.331
1661.56	339.829
1661.72	339.115
1661.87	343.607
1662.03	340.197
1662.18	335.206
1662.34	340.496
1662.49	339.783
1662.65	335.455
1662.8	338.791
1662.96	339.665
1663.12	343.188
1663.27	334.454
1663.43	336.807
1663.58	338.663
1663.74	337.292
1663.89	342.277
1664.05	337.224
1664.2	339.074
1664.36	338.492
1664.51	338.324
1664.67	350.993
1664.82	338.264
1664.98	339.666
1665.13	342.323
1665.29	342.024
1665.44	341.066
1665.6	339.073
1665.75	335.728
1665.91	343.662
1666.06	342.427
1666.22	337.222
1666.37	333.529
1666.53	342.449
1666.68	340.349
1666.84	341.13
1666.99	336.919
1667.15	337.701
1667.3	340.392
1667.46	339.254
1667.61	341.051
1667.77	338.894
1667.92	336.485
1668.07	340.794
1668.23	344.459
1668.39	338.664
1668.54	339.16
1668.7	334.846
1668.85	339.458
1669.01	342.091
1669.16	337.081
1669.31	339.135
1669.47	340.52
1669.62	341.896
1669.78	338.66
1669.93	341.001
1670.09	339.352
1670.24	341.177
1670.4	337.511
1670.55	341.884
1670.71	337.498
1670.86	338.435
1671.02	339.959
1671.17	334.97
1671.33	341.778
1671.48	337.4
1671.64	344.321
1671.79	343.288
1671.95	342.899
1672.1	343.244
1672.26	342.439
1672.41	338.292
1672.56	344.824
1672.72	341.433
1672.87	333.352
1673.03	338.718
1673.18	340.639
1673.34	336.48
1673.49	337.392
1673.65	339.635
1673.8	338.345
1673.96	335.778
1674.11	338.97
1674.27	337.712
1674.42	342.306
1674.58	343.02
1674.73	341.111
1674.88	341.923
1675.04	341.897
1675.19	335.865
1675.35	342.329
1675.5	339.968
1675.66	336.781
1675.81	338.612
1675.97	338.15
1676.12	339.249
1676.28	338.516
1676.43	335.964
1676.58	336.825
1676.74	344.551
1676.89	343.56
1677.05	343.791
1677.2	341.478
1677.36	342.956
1677.51	341.422
1677.67	339.295
1677.82	344.131
1677.98	340.446
1678.13	344.484
1678.28	338.63
1678.44	343.877
1678.59	340.836
1678.75	334.777
1678.9	340.636
1679.06	337.505
1679.21	334.097
1679.37	343.721
1679.52	338.964
1679.67	339.267
1679.83	338.229
1679.98	336.503
1680.14	341.133
1680.29	334.4
1680.45	337.926
1680.6	339.187
1680.75	335.694
1680.91	345.792
1681.06	336.02
1681.22	336.136
1681.37	337.208
1681.53	336.693
1681.68	339.63
1681.83	337.706
1681.99	339.485
1682.14	336.206
1682.3	335.429
1682.45	337.53
1682.61	335.791
1682.76	337.166
1682.92	342.133
1683.07	340.052
1683.22	341.037
1683.38	340.654
1683.53	337.113
1683.69	338.623
1683.84	340.96
1683.99	334.106
1684.15	336.406
1684.3	336.226
1684.46	344.909
1684.61	338.383
1684.77	340.475
1684.92	339.634
1685.07	338.648
1685.23	343.012
1685.38	345.058
1685.54	339.921
1685.69	338.87
1685.84	342.462
1686	337.823
1686.15	335.565
1686.31	344.608
1686.46	339.655
1686.61	344.14
1686.77	336.234
1686.92	341.288
1687.08	339.711
1687.23	337.642
1687.39	339.271
1687.54	341.348
1687.69	340.019
1687.85	335.527
1688	339.257
1688.16	342.435
1688.31	341.341
1688.46	338.245
1688.62	339.463
1688.77	337.079
1688.93	339.69
1689.08	340.728
1689.23	339.597
1689.39	338.305
1689.54	339.559
1689.7	339.987
1689.85	338.329
1690	334.56
1690.16	336.599
1690.31	341.243
1690.47	334.931
1690.62	342.477
1690.77	339.441
1690.93	337.563
1691.08	336.265
1691.24	336.531
1691.39	339.027
1691.54	337.817
1691.7	340.817
1691.85	341.608
1692	342.706
1692.16	340.096
1692.31	340.191
1692.47	335.904
1692.62	339.18
1692.77	336.036
1692.93	339.894
1693.08	339.828
1693.24	341.668
1693.39	342.145
1693.54	341.261
1693.7	338.949
1693.85	340.721
1694.01	337.487
1694.16	336.38
1694.31	336.685
1694.47	338.225
1694.62	335.332
1694.77	338.121
1694.93	338.645
1695.08	340.921
1695.23	339.651
1695.39	340.644
1695.54	342.111
1695.7	336.652
1695.85	336.666
1696	337.345
1696.16	337.286
1696.31	333.584
1696.46	338.644
1696.62	336.572
1696.77	336.715
1696.93	340.193
1697.08	335.014
1697.23	337.751
1697.39	337.946
1697.54	335.633
1697.69	335.502
1697.85	337.738
1698	335.949
1698.15	338.286
1698.31	339.055
1698.46	337.724
1698.61	337.688
1698.77	337.672
1698.92	336.439
1699.08	339.994
1699.23	337.757
1699.38	337.465
1699.54	334.618
1699.69	337.83
1699.84	338.254
1700	338.95
1700.15	338.828
1700.3	338.003
1700.46	334.799
1700.61	334.553
1700.76	337.866
1700.92	337.761
1701.07	338.204
1701.22	339.599
1701.38	340.977
1701.53	338.862
1701.68	336.007
1701.84	337.076
1701.99	334.885
1702.15	336.219
1702.3	336.887
1702.45	335.574
1702.61	339.499
1702.76	339.913
1702.91	335.894
1703.07	336.543
1703.22	337.591
1703.37	333.765
1703.53	333.864
1703.68	338.429
1703.83	339.838
1703.99	340.062
1704.11	337.353
1704.26	337.419
1704.42	335.206
1704.58	341.284
1704.73	335.813
1704.89	344.419
1705.04	339.899
1705.2	340.242
1705.36	335.383
1705.51	338.392
1705.67	344.15
1705.82	338.069
1705.98	343.775
1706.14	337.086
1706.29	345.249
1706.45	344.951
1706.6	339.079
1706.76	341.452
1706.92	341.596
1707.07	339.135
1707.23	346.925
1707.38	341.112
1707.54	338.996
1707.69	336.151
1707.85	336.762
1708.01	340.108
1708.16	339.82
1708.32	336.689
1708.47	337.101
1708.63	335.8
1708.78	342.234
1708.94	336.605
1709.1	340.205
1709.25	336.309
1709.41	337.454
1709.56	335.683
1709.72	336.999
1709.87	338.221
1710.03	334.545
1710.19	340.089
1710.34	338.919
1710.5	338.798
1710.65	341.376
1710.81	335.442
1710.96	338.005
1711.12	337.932
1711.28	338.582
1711.43	339.31
1711.59	334.599
1711.74	339.239
1711.9	335.843
1712.05	334.752
1712.21	338.921
1712.36	339.129
1712.52	336.136
1712.67	335.101
1712.83	335.36
1712.99	337.095
1713.14	339.324
1713.3	332.729
1713.45	333.432
1713.61	335.659
1713.76	336.625
1713.92	338.506
1714.08	341.873
1714.23	337.916
1714.39	339.015
1714.54	341.081
1714.7	354.322
1714.85	337.275
1715.01	340.564
1715.16	343.373
1715.32	342.561
1715.47	334.664
1715.63	342.603
1715.79	340.828
1715.94	340.982
1716.1	340.14
1716.25	343.425
1716.41	342.68
1716.56	336.589
1716.72	336.937
1716.87	334.931
1717.03	335.967
1717.19	334.925
1717.34	336.647
1717.49	340.835
1717.65	343.201
1717.81	337.919
1717.96	338.288
1718.12	337.578
1718.27	339.666
1718.43	335.526
1718.58	342.611
1718.74	340.919
1718.89	340.895
1719.05	347.02
1719.2	336.622
1719.36	341.371
1719.51	345.515
1719.67	342.518
1719.82	340.972
1719.98	340.357
1720.14	337.859
1720.29	341.595
1720.45	334.996
1720.6	341.796
1720.76	339.723
1720.91	339.779
1721.07	346.524
1721.22	340.663
1721.38	338.536
1721.53	335.063
1721.69	336.541
1721.84	336.322
1722	337.621
1722.15	339.718
1722.31	341.842
1722.46	341.484
1722.62	341.437
1722.77	338.061
1722.93	337.26
1723.08	341.013
1723.24	340.53
1723.39	338.687
1723.55	338.467
1723.7	337.281
1723.86	343.665
1724.02	342.916
1724.17	339.014
1724.33	338.613
1724.48	338.197
1724.64	340.392
1724.79	340.429
1724.95	338.44
1725.1	341.453
1725.26	336.093
1725.41	344.142
1725.57	341.668
1725.72	337.759
1725.88	339.881
1726.03	341.006
1726.19	339.395
1726.34	339.577
1726.5	337.808
1726.65	341.06
1726.81	335.977
1726.96	337.2
1727.12	333.967
1727.27	341.783
1727.43	339.742
1727.58	342.665
1727.74	341.414
1727.89	337.433
1728.05	335.819
1728.2	343.649
1728.36	337.262
1728.51	341.031
1728.66	342.24
1728.82	338.034
1728.98	344.132
1729.13	340.581
1729.29	339.446
1729.44	340.497
1729.59	340.155
1729.75	338.092
1729.9	341.005
1730.06	341.812
1730.21	338.106
1730.37	335.954
1730.52	343.624
1730.68	339.495
1730.83	341.944
1730.99	340.843
1731.14	340.993
1731.3	346.611
1731.45	339.56
1731.61	340.46
1731.76	338.619
1731.92	340.554
1732.07	334.84
1732.23	342.059
1732.38	340.895
1732.54	339.732
1732.69	339.921
1732.85	337.055
1733	342.71
1733.16	344.068
1733.31	343.117
1733.46	343.396
1733.62	342.739
1733.77	340.403
1733.93	343.011
1734.08	338.909
1734.24	337.029
1734.39	336.038
1734.55	341.037
1734.7	343.85
1734.86	338.368
1735.01	339.289
1735.17	342.9
1735.32	341.039
1735.47	343.415
1735.63	342.095
1735.78	340.022
1735.94	338.072
1736.09	339.003
1736.25	344.567
1736.4	343.636
1736.56	342.27
1736.71	338.22
1736.87	341.556
1737.02	343.419
1737.18	344.768
1737.33	344.539
1737.48	342.068
1737.64	343.291
1737.79	338.829
1737.95	341.762
1738.1	337.91
1738.26	342.399
1738.41	339.591
1738.57	343.164
1738.72	340.601
1738.88	339.49
1739.03	341.93
1739.18	341.362
1739.34	340.89
1739.49	342.789
1739.65	341.657
1739.8	341.394
1739.96	337.092
1740.11	345.485
1740.26	340.323
1740.42	341.501
1740.57	345.586
1740.73	339.339
1740.88	343.702
1741.04	353.239
1741.19	346.724
1741.35	338.899
1741.5	337.728
1741.66	338.36
1741.81	340.238
1741.96	341.079
1742.12	341.321
1742.27	343.18
1742.43	344.537
1742.58	340.725
1742.74	338.88
1742.89	344.948
1743.04	340.565
1743.2	339.152
1743.35	342.915
1743.51	337.802
1743.66	342.126
1743.82	340.778
1743.97	343.373
1744.12	342.459
1744.28	342.763
1744.43	346.316
1744.59	342.57
1744.74	337.545
1744.89	339.629
1745.05	343.947
1745.2	343.389
1745.36	341.85
1745.51	343.462
1745.67	340.603
1745.82	339.832
1745.97	341.978
1746.13	345.978
1746.28	343.991
1746.44	341.972
1746.59	343.691
1746.75	342.934
1746.9	344.715
1747.05	339.708
1747.21	340.198
1747.36	340.005
1747.52	343.618
1747.67	341.959
1747.82	342.785
1747.98	342.476
1748.13	343.498
1748.29	338.366
1748.44	342.646
1748.59	340.026
1748.75	343.974
1748.9	344.846
1749.06	341.361
1749.21	344.706
1749.37	341.631
1749.52	344.757
1749.67	338.549
1749.83	345.705
1749.98	344.295
1750.14	342.853
1750.29	344.735
1750.44	351.488
1750.6	339.745
1750.75	346.95
1750.9	348.699
1751.06	346.278
1751.21	348.287
1751.37	342.234
1751.52	339.721
1751.67	340.166
1751.83	345.918
1751.98	343.676
1752.14	344.815
1752.29	346.115
1752.44	340.649
1752.6	343.145
1752.75	341.177
1752.91	342.714
1753.06	343.091
1753.21	344.092
1753.37	345.576
1753.52	342.792
1753.68	341.094
1753.83	343.113
1753.98	344.116
1754.14	341.01
1754.29	347.113
1754.44	341.001
1754.6	341.891
1754.75	343.639
1754.91	343.928
1755.06	345.293
1755.21	341.375
1755.37	344.153
1755.52	344.401
1755.68	344
1755.83	341.808
1755.98	343.804
1756.14	341.099
1756.29	344.707
1756.44	341.741
1756.6	341.922
1756.75	340.075
1756.91	340.683
1757.06	343.499
1757.21	343.122
1757.37	343.159
1757.52	346.356
1757.67	344.775
1757.83	345.606
1757.98	342.636
1758.13	346.303
1758.29	347.52
1758.44	346.381
1758.6	344.905
1758.75	349.449
1758.9	348.521
1759.06	347.208
1759.21	342.677
1759.36	345.142
1759.52	346.298
1759.67	346.473
1759.82	344.015
1759.98	343.363
1760.13	344.218
1760.29	344.343
1760.44	342.901
1760.59	343.745
1760.75	342.823
1760.9	341.37
1761.05	341.885
1761.21	344.365
1761.36	340.913
1761.51	342.461
1761.67	343.447
1761.82	343.453
1761.97	344.365
1762.13	343.446
1762.28	343.723
1762.44	342.225
1762.59	343.432
1762.74	344.525
1762.89	342.075
1763.05	343.45
1763.2	343.737
1763.36	344.004
1763.51	345.353
1763.66	346.292
1763.82	346.061
1763.97	346.925
1764.12	347.541
1764.28	345.588
1764.43	346.244
1764.58	342.987
1764.74	345.294
1764.89	343.126
1765.04	344.042
1765.2	343.781
1765.35	347.422
1765.5	342.584
1765.66	344.006
1765.81	347.38
1765.96	343.355
1766.12	343.567
1766.27	344.856
1766.42	342.763
1766.58	341.094
1766.73	345.905
1766.88	344.671
1767.04	344.798
1767.19	351.218
1767.34	344.958
1767.5	341.431
1767.65	347.283
1767.8	345.468
1767.96	342.544
1768.11	344.835
1768.26	346.405
1768.42	347.134
1768.57	343.577
1768.72	342.977
1768.88	342.492
1769.03	344.461
1769.18	348.762
1769.34	350.298
1769.49	345.664
1769.64	345.358
1769.8	342.361
1769.95	344.558
1770.1	341.378
1770.25	346.503
1770.41	344.908
1770.56	345.734
1770.71	344.323
1770.87	344.858
1771.02	343.738
1771.17	345.947
1771.33	343.565
1771.48	345.177
1771.63	341.37
1771.79	345.343
1771.94	343.63
1772.09	347.327
1772.24	344.419
1772.4	345.444
1772.55	346.759
1772.7	344.534
1772.86	346.472
1773.01	341.064
1773.16	343.875
1773.32	349.525
1773.47	344.59
1773.62	348.506
1773.78	352.859
1773.93	342.399
1774.08	344.223
1774.23	345.101
1774.39	346.448
1774.54	345.056
1774.69	341.594
1774.85	343.983
1775	343.369
1775.15	346.927
1775.31	343.912
1775.46	341.543
1775.61	348.953
1775.76	341.953
1775.92	345.524
1776.07	348.089
1776.22	351.14
1776.38	342.227
1776.53	343.262
1776.68	351.609
1776.83	346.021
1776.99	347.211
1777.14	343.425
1777.29	345.631
1777.45	343.533
1777.6	344.485
1777.75	348.981
1777.9	343.155
1778.06	346.757
1778.21	346.598
1778.36	344.374
1778.52	343.278
1778.67	344.378
1778.82	347.686
1778.97	342.914
1779.13	353.855
1779.28	346.766
1779.43	346.639
1779.59	345.562
1779.74	347.197
1779.89	347.987
1780.04	347.836
1780.2	353.381
1780.35	343.802
1780.5	349.638
1780.65	344.953
1780.81	347.53
1780.96	346.134
1781.11	347.396
1781.27	342.283
1781.42	347.119
1781.57	346.716
1781.72	344.579
1781.88	344.833
1782.03	344.15
1782.18	343.18
1782.33	347.762
1782.49	343.636
1782.64	345.042
1782.79	344.253
1782.95	345.223
1783.1	345.971
1783.25	346.196
1783.4	348.245
1783.56	346.907
1783.71	347.386
1783.86	345.846
1784.01	349.89
1784.17	346.922
1784.32	345.195
1784.47	341.175
1784.62	348.349
1784.78	346.544
1784.93	346.287
1785.08	344.702
1785.23	349.782
1785.39	343.044
1785.54	347.199
1785.69	340.668
1785.84	347.399
1786	352.583
1786.15	345.32
1786.3	344.541
1786.45	344.778
1786.61	345.054
1786.76	343.488
1786.91	343.928
1787.06	350.314
1787.22	347.693
1787.37	349.995
1787.52	343.73
1787.67	345.247
1787.83	344.663
1787.98	345.162
1788.13	344.15
1788.28	346.653
1788.44	351.064
1788.59	348.246
1788.74	347.608
1788.89	344.347
1789.04	353.583
1789.2	343.267
1789.35	345.228
1789.5	353.861
1789.65	345.299
1789.81	341.363
1789.96	343.771
1790.11	344.739
1790.26	346.444
1790.42	347.145
1790.57	344.661
1790.72	351.918
1790.87	343.001
1791.02	347.035
1791.18	349.322
1791.33	347.289
1791.48	346.978
1791.63	346.734
1791.79	348.301
1791.94	347.187
1792.09	345.751
1792.24	350.054
1792.4	345.21
1792.55	343.423
1792.7	345.891
1792.85	345.92
1793	346.068
1793.16	345.828
1793.31	342.455
1793.46	346.013
1793.61	342.139
1793.76	347.62
1793.92	343.964
1794.07	347.234
1794.22	350.261
1794.37	343.454
1794.53	345.005
1794.68	345.51
1794.83	346.934
1794.98	350.866
1795.14	347.478
1795.29	348.526
1795.44	348.688
1795.59	347.466
1795.74	347.472
1795.9	348.614
1796.05	351.882
1796.2	348.471
1796.35	343.367
1796.5	353.852
1796.66	347.236
1796.81	345.31
1796.96	345.165
1797.11	342.386
1797.26	349.319
1797.42	344.754
1797.57	345.93
1797.72	348.007
1797.87	348.111
1798.02	344.755
1798.18	345.033
1798.33	351.827
1798.48	349.295
1798.63	345.486
1798.78	340.982
1798.94	350.677
1799.09	343.965
1799.24	344.285
1799.39	342.891
1799.54	351.609
1799.7	345.192
1799.85	347.038
1800	344.414
1800.15	348.558
1800.3	353.246
1800.45	350.808
1800.61	343.61
1800.76	351.667
1800.91	347.951
1801.06	345.549
1801.21	345.549
1801.37	350.459
1801.52	352.494
1801.67	349.197
1801.82	346.715
1801.97	345.627
1802.12	348.336
1802.28	346.872
1802.43	346.082
1802.58	345.308
1802.73	346.83
1802.88	349.478
1803.04	346.499
1803.19	350.939
1803.34	346.172
1803.49	352.758
1803.64	348.596
1803.79	344.666
1803.95	350.693
1804.1	347.339
1804.25	349.102
1804.4	348.659
1804.55	346.232
1804.71	347.626
1804.86	348.349
1805.01	353.023
1805.16	352.483
1805.31	349.499
1805.46	347.629
1805.62	348.905
1805.77	349.019
1805.92	347.775
1806.07	340.887
1806.22	348.391
1806.37	348.477
1806.53	347.451
1806.68	347.899
1806.83	350.55
1806.98	348.209
1807.13	347.985
1807.28	347.443
1807.44	351.179
1807.59	351.572
1807.74	345.784
1807.89	347.033
1808.04	345.989
1808.19	348.292
1808.34	349.084
1808.5	349.196
1808.65	347.959
1808.8	345.696
1808.95	349.799
1809.1	348.384
1809.25	352.467
1809.41	349.058
1809.56	352.854
1809.71	354.617
1809.86	354.271
1810.01	349.894
1810.16	348.342
1810.31	353.277
1810.47	349.819
1810.62	350.911
1810.77	356.114
1810.92	345.999
1811.07	351.077
1811.22	343.812
1811.37	348.569
1811.53	342.324
1811.68	348.941
1811.83	343.072
1811.98	350.004
1812.13	348.206
1812.28	350.304
1812.43	351.856
1812.59	349.639
1812.74	344.095
1812.89	353.431
1813.04	347.954
1813.19	348.522
1813.34	350.635
1813.49	352.673
1813.64	348.767
1813.8	348.71
1813.95	352.386
1814.1	348.029
1814.25	350.333
1814.4	349.139
1814.55	351.986
1814.7	348.061
1814.85	344.142
1815.01	350.043
1815.16	348.965
1815.31	350.438
1815.46	351.604
1815.61	353.047
1815.76	353.135
1815.91	357.765
1816.07	348.278
1816.22	350.203
1816.37	350.073
1816.52	348.416
1816.67	348.802
1816.82	347.609
1816.97	349.905
1817.12	354.412
1817.28	353.559
1817.43	348.987
1817.58	350.81
1817.73	347.337
1817.88	354.175
1818.03	347.754
1818.18	347.201
1818.33	351.777
1818.48	348.278
1818.63	346.827
1818.79	347.848
1818.94	353.827
1819.09	350.827
1819.24	349.793
1819.39	351.735
1819.54	352.018
1819.69	350.838
1819.84	355.409
1819.99	348.642
1820.15	349.172
1820.3	351.409
1820.45	349.367
1820.6	353.933
1820.75	348.403
1820.9	354.95
1821.05	349.024
1821.2	352.559
1821.35	349.132
1821.51	346.686
1821.66	352.422
1821.81	350.198
1821.96	353.659
1822.11	347.93
1822.26	352.157
1822.41	374.479
1822.56	352.595
1822.71	351.564
1822.86	349.438
1823.01	355.264
1823.17	351.611
1823.32	346.893
1823.47	357.899
1823.62	352.083
1823.77	352.896
1823.92	352.676
1824.07	348.945
1824.22	350.111
1824.37	347.824
1824.52	351.777
1824.67	355.71
1824.83	348.55
1824.98	349.937
1825.13	348.734
1825.28	347.313
1825.43	353.061
1825.58	349.972
1825.73	354.047
1825.88	354.191
1826.03	358.011
1826.18	349.017
1826.33	349.837
1826.48	351.598
1826.64	350.936
1826.79	349.613
1826.94	351.663
1827.09	349.745
1827.24	353.459
1827.39	356.34
1827.54	355.287
1827.69	352.807
1827.84	347.72
1827.99	352.291
1828.14	353.241
1828.29	350.264
1828.44	357.266
1828.59	348.753
1828.74	350.524
1828.9	355.04
1829.05	356.008
1829.2	353.261
1829.35	350.79
1829.5	353.327
1829.65	352.623
1829.8	352.437
1829.95	352.011
1830.1	350.772
1830.25	351.047
1830.4	352.403
1830.55	355.181
1830.7	358.617
1830.85	352.872
1831	355.31
1831.16	349.981
1831.31	349.781
1831.46	356.294
1831.61	350.918
1831.76	349.665
1831.91	356.832
1832.06	351.472
1832.21	352.842
1832.36	354.622
1832.51	355.276
1832.66	355.535
1832.81	352.916
1832.96	352.09
1833.11	349.731
1833.26	351.743
1833.41	354.482
1833.56	353.849
1833.71	358.209
1833.86	356.689
1834.02	356.001
1834.17	352.478
1834.32	347.581
1834.47	353.832
1834.62	355.555
1834.77	355.71
1834.92	349.575
1835.07	355.758
1835.22	355.754
1835.37	358.193
1835.52	350.418
1835.67	352.431
1835.82	353.455
1835.97	352.292
1836.12	352.766
1836.27	356.124
1836.42	358.573
1836.57	351.392
1836.72	352.007
1836.87	355.434
1837.02	350.591
1837.17	358.169
1837.32	352.651
1837.48	352.263
1837.63	355.642
1837.78	352.997
1837.93	354.931
1838.08	353.684
1838.23	354.231
1838.38	351.241
1838.53	352.106
1838.68	353.709
1838.83	356.725
1838.98	350.274
1839.13	358.784
1839.28	354.932
1839.43	359.116
1839.58	358.499
1839.73	354.886
1839.88	359.444
1840.03	354.338
1840.18	353.005
1840.33	358.909
1840.48	357.94
1840.63	355.875
1840.78	356.499
1840.93	356.668
1841.08	353.3
1841.23	353.147
1841.38	356.652
1841.53	354.08
1841.68	354.023
1841.83	351.541
1841.98	355.149
1842.13	349.295
1842.28	356.389
1842.43	356.416
1842.58	352.372
1842.73	351.794
1842.88	354.528
1843.03	354.646
1843.18	355.787
1843.33	351.913
1843.48	360.264
1843.63	351.673
1843.78	355.163
1843.93	358.607
1844.08	359.772
1844.23	356.488
1844.38	357.312
1844.53	352.592
1844.68	362.897
1844.83	356.484
1844.98	357.199
1845.13	356.531
1845.28	354.574
1845.43	360.05
1845.58	360.073
1845.73	358.318
1845.88	355.825
1846.03	360.557
1846.18	357.315
1846.33	354.426
1846.48	354.781
1846.63	354.593
1846.78	349.905
1846.93	352.037
1847.08	359.849
1847.23	355.445
1847.38	357.544
1847.53	358.624
1847.68	358.089
1847.83	353.922
1847.98	360.585
1848.13	355.89
1848.28	355.457
1848.43	356.632
1848.58	357.287
1848.73	356.644
1848.88	360.69
1849.03	354.979
1849.18	356.749
1849.33	354.731
1849.48	364.703
1849.63	355.054
1849.78	353.223
1849.93	357.478
1850.08	356.635
1850.23	357.69
1850.38	357.694
1850.53	356.156
1850.68	358.784
1850.83	359.959
1850.98	358.602
1851.13	359.664
1851.28	357.7
1851.43	356.539
1851.58	368.054
1851.73	358.843
1851.88	359.902
1852.03	364.169
1852.18	360.851
1852.32	357.248
1852.47	355.034
1852.62	358.472
1852.77	357.451
1852.92	357.453
1853.07	355.738
1853.22	359.977
1853.37	361.803
1853.52	355.667
1853.67	357.512
1853.82	360.263
1853.97	357.831
1854.12	358.515
1854.27	357.261
1854.42	357.009
1854.57	361.428
1854.72	361.327
1854.87	357.079
1855.02	360.945
1855.17	355.224
1855.32	357.425
1855.47	356.38
1855.62	360.075
1855.77	356.188
1855.92	357.41
1856.07	357.56
1856.21	357.891
1856.36	359.38
1856.51	358.283
1856.66	357.581
1856.81	354.948
1856.96	357.118
1857.11	355.15
1857.26	367.968
1857.41	355.316
1857.56	358.038
1857.71	358.866
1857.86	358.442
1858.01	358.222
1858.16	356.52
1858.31	367.172
1858.46	359.847
1858.61	356.891
1858.76	358.928
1858.91	356.702
1859.05	357.793
1859.2	358.08
1859.35	356.276
1859.5	360.278
1859.65	364.987
1859.8	364.22
1859.95	360.184
1860.1	359.499
1860.25	364.437
1860.4	357.266
1860.55	357.918
1860.7	362.926
1860.85	359.035
1861	356.621
1861.15	355.235
1861.29	355.166
1861.44	359.105
1861.59	355.78
1861.74	363.565
1861.89	357.61
1862.04	358.187
1862.19	359.937
1862.34	357.021
1862.49	358.414
1862.64	360.342
1862.79	357.231
1862.94	359.885
1863.09	359.65
1863.24	360.723
1863.38	363.3
1863.53	359.051
1863.68	364.596
1863.83	359.185
1863.98	358.996
1864.13	357.96
1864.28	358.512
1864.43	360.447
1864.58	356.28
1864.73	355.32
1864.88	360.444
1865.03	359.227
1865.17	359.358
1865.32	356.903
1865.47	360.823
1865.62	359.696
1865.77	357.816
1865.92	358.53
1866.07	355.465
1866.22	354.356
1866.37	366.25
1866.52	360.853
1866.67	356.519
1866.81	357.511
1866.96	362.214
1867.11	361.092
1867.26	358.09
1867.41	358.346
1867.56	361.07
1867.71	357.471
1867.86	355.945
1868.01	357.858
1868.16	357.457
1868.31	359.371
1868.45	357.777
1868.6	360.807
1868.75	362.915
1868.9	360.305
1869.05	358.22
1869.2	357.834
1869.35	360.68
1869.5	357.889
1869.65	359.158
1869.79	359.309
1869.94	356.628
1870.09	358.999
1870.24	361.287
1870.39	358.236
1870.54	358.354
1870.69	359.319
1870.84	359.458
1870.99	359.606
1871.14	359.669
1871.28	361.18
1871.43	360.034
1871.58	361.807
1871.73	360.81
1871.88	359.782
1872.03	355.829
1872.18	356.089
1872.33	361.093
1872.47	360.124
1872.62	358.288
1872.77	358.969
1872.92	356.686
1873.07	360.664
1873.22	360.684
1873.37	360.859
1873.52	358.442
1873.67	359.731
1873.81	365.947
1873.96	358.08
1874.11	356.475
1874.26	359.329
1874.41	357.728
1874.56	361.431
1874.71	362.38
1874.86	358.952
1875	357.895
1875.15	359.462
1875.3	361.985
1875.45	360.995
1875.6	363.155
1875.75	363.687
1875.9	361.427
1876.04	358.137
1876.19	357.701
1876.34	357.747
1876.49	363.709
1876.64	356.607
1876.79	363.117
1876.94	357.436
1877.08	359.487
1877.23	361.416
1877.38	358.869
1877.53	359.232
1877.68	360.989
1877.83	360.187
1877.98	363.24
1878.12	359.212
1878.27	360.544
1878.42	359.01
1878.57	362.446
1878.72	360.712
1878.87	359.042
1879.02	362.408
1879.17	360.097
1879.31	359.092
1879.46	357.715
1879.61	358.485
1879.76	360.625
1879.91	359.967
1880.06	357.884
1880.21	361.748
1880.35	365.614
1880.5	362.816
1880.65	366.067
1880.8	362.081
1880.95	355.815
1881.1	375.403
1881.24	357.802
1881.39	364.449
1881.54	362.036
1881.69	362.752
1881.84	367.269
1881.99	364.486
1882.13	358.496
1882.28	358.836
1882.43	363.546
1882.58	358.04
1882.73	364.943
1882.88	356.756
1883.03	359.961
1883.17	363.332
1883.32	360.41
1883.47	360.717
1883.62	361.95
1883.77	365.402
1883.91	366.164
1884.06	363.53
1884.21	360.416
1884.36	366.515
1884.51	364.507
1884.66	367.189
1884.81	365.258
1884.95	360.64
1885.1	358.826
1885.25	361.547
1885.4	364.198
1885.55	359.277
1885.7	361.607
1885.84	361.211
1885.99	367.261
1886.14	362.268
1886.29	353.916
1886.44	362.46
1886.58	360.923
1886.73	356.167
1886.88	364.97
1887.03	365.847
1887.18	366.395
1887.33	360.986
1887.47	365.48
1887.62	365.802
1887.77	360.791
1887.92	363.428
1888.07	363.139
1888.21	361.375
1888.36	360.132
1888.51	356.566
1888.66	361.6
1888.81	360.186
1888.96	360.152
1889.1	363.412
1889.25	361.969
1889.4	365.387
1889.55	363.627
1889.69	363.408
1889.84	360.473
1889.99	365.776
1890.14	363.015
1890.29	365.601
1890.44	358.434
1890.58	369.061
1890.73	365.087
1890.88	361.053
1891.03	365.521
1891.18	366.684
1891.32	361.562
1891.47	357.703
1891.62	363.11
1891.77	358.279
1891.92	363.08
1892.06	363.642
1892.21	365.109
1892.36	362.928
1892.51	357.564
1892.66	361.616
1892.8	366.282
1892.95	361.751
1893.1	364.244
1893.25	364.025
1893.4	358.404
1893.54	367.175
1893.69	362.755
1893.84	362.89
1893.99	357.939
1894.14	360.726
1894.28	362.139
1894.43	361.093
1894.58	357.997
1894.73	360.076
1894.87	364.07
1895.02	360.846
1895.17	360.769
1895.32	364.247
1895.47	357.787
1895.61	362.242
1895.76	367.037
1895.91	368.568
1896.06	365.849
1896.2	359.111
1896.35	362.415
1896.5	364.408
1896.65	367.298
1896.8	362.241
1896.94	369.202
1897.09	360.972
1897.24	361.569
1897.39	362.55
1897.53	364.022
1897.68	361.329
1897.83	362.25
1897.98	367.291
1898.13	360.372
1898.27	362.611
1898.42	364.273
1898.57	362.265
1898.72	364.068
1898.86	365.323
1899.01	361.878
1899.16	368.224
1899.31	369.165
1899.46	362.265
1899.6	364.809
1899.75	361.126
1899.9	363.727
1900.05	361.543
1900.19	368.904
1900.34	361.116
1900.49	370.716
1900.64	359.458
1900.78	364.096
1900.93	361.01
1901.08	362.884
1901.23	360.895
1901.37	363.45
1901.52	361.63
1901.67	360.64
1901.82	363.117
1901.97	365.53
1902.11	363.884
1902.26	367.98
1902.41	364.911
1902.56	362.855
1902.7	359.658
1902.85	365.225
1903	360.288
1903.15	361.087
1903.29	361.531
1903.44	362.626
1903.59	366.878
1903.74	360.706
1903.88	361.524
1904.03	364.71
1904.18	362.338
1904.33	359.796
1904.47	365.563
1904.62	365.276
1904.77	361.776
1904.91	362.442
1905.06	366.736
1905.21	362.68
1905.36	361.081
1905.51	361.881
1905.65	362.265
1905.8	362.338
1905.95	368.004
1906.09	361.242
1906.24	366.158
1906.39	358.814
1906.54	364.325
1906.68	362.082
1906.83	361.869
1906.98	363.458
1907.13	359.409
1907.27	367.883
1907.42	359.035
1907.57	360.64
1907.72	365.93
1907.86	363.608
1908.01	365.379
1908.16	366.116
1908.3	366.517
1908.45	364.38
1908.6	362.416
1908.75	360.884
1908.89	362.042
1909.04	366.834
1909.19	367.254
1909.34	366.169
1909.48	364.035
1909.63	364.285
1909.78	361.995
1909.92	363.739
1910.07	369.245
1910.22	364.648
1910.37	363.212
1910.51	364.581
1910.66	364.575
1910.81	364.875
1910.95	366.134
1911.1	363.87
1911.25	364.356
1911.4	365.785
1911.54	366.943
1911.69	361.854
1911.84	361.345
1911.98	360.083
1912.13	362.567
1912.28	369.832
1912.43	370.651
1912.57	366.509
1912.72	362.707
1912.87	369.255
1913.01	367.836
1913.16	369.422
1913.31	369.32
1913.46	363.676
1913.6	365.086
1913.75	366.397
1913.9	365.51
1914.04	366.097
1914.19	365.245
1914.34	363.062
1914.48	375.421
1914.63	362.096
1914.78	364.202
1914.93	368.478
1915.07	365.742
1915.22	364.813
1915.37	367.885
1915.51	363.653
1915.66	365.417
1915.81	363.987
1915.96	370.093
1916.1	363.285
1916.25	365.819
1916.4	366.115
1916.54	367.152
1916.69	367.836
1916.84	365.626
1916.98	363.708
1917.13	367.307
1917.28	362.417
1917.42	364.79
1917.57	366.345
1917.72	363.417
1917.87	362.721
1918.01	360.747
1918.16	363.996
1918.31	372.18
1918.45	368.777
1918.6	364.785
1918.75	364.634
1918.89	367.159
1919.04	366.402
1919.19	364.348
1919.33	364.767
1919.48	370.2
1919.63	370.689
1919.77	364.088
1919.92	361.853
1920.07	365.366
1920.21	366.335
1920.36	361.906
1920.51	364.022
1920.65	364.089
1920.8	364.679
1920.95	365.452
1921.09	367.42
1921.24	368.587
1921.39	363.3
1921.53	365.836
1921.68	366.584
1921.83	365.077
1921.97	368.151
1922.12	369.09
1922.27	369.498
1922.41	369.619
1922.56	364.918
1922.71	369.463
1922.86	364.584
1923	367.401
1923.15	366.024
1923.3	367.235
1923.44	364.917
1923.59	363.406
1923.74	364.634
1923.88	366.372
1924.03	366.251
1924.17	369.086
1924.32	369.354
1924.47	368.539
1924.61	367.29
1924.76	367.089
1924.91	364.94
1925.05	368.179
1925.2	365.418
1925.35	366.21
1925.49	370.273
1925.64	367.132
1925.79	365.666
1925.93	367.446
1926.08	365.618
1926.23	368.364
1926.37	368.39
1926.52	368.314
1926.67	365.225
1926.81	365.771
1926.96	365.573
1927.11	364.234
1927.25	368.328
1927.4	366.035
1927.54	367.494
1927.69	366.01
1927.84	366.026
1927.98	367.663
1928.13	368.36
1928.28	368.963
1928.42	367.59
1928.57	367.939
1928.72	364.639
1928.86	370.528
1929.01	367.173
1929.16	365.425
1929.3	363.801
1929.45	366.218
1929.6	365.018
1929.74	365.006
1929.89	366.871
1930.03	366.452
1930.18	368.167
1930.33	366.717
1930.47	368.836
1930.62	364.177
1930.77	366.31
1930.91	366.679
1931.06	368.785
1931.1	369.674
1931.25	368.311
1931.4	364.785
1931.55	367.719
1931.69	371.957
1931.84	367.132
1931.99	367.848
1932.14	364.639
1932.29	367.325
1932.44	367.153
1932.59	369.535
1932.73	365.319
1932.88	365.892
1933.03	372.367
1933.18	365.042
1933.33	371.538
1933.48	366.049
1933.63	365.966
1933.78	366.536
1933.93	368.985
1934.07	371.733
1934.22	366.065
1934.37	372.64
1934.52	368.825
1934.67	368.757
1934.82	372.073
1934.97	365.784
1935.12	367.063
1935.26	366.084
1935.41	371.214
1935.56	369.737
1935.71	368.616
1935.86	366.519
1936.01	374.013
1936.16	371.207
1936.3	367.491
1936.45	367.421
1936.6	365.217
1936.75	365.281
1936.9	371.578
1937.05	371.826
1937.2	365.089
1937.34	367.36
1937.49	365.782
1937.64	364.058
1937.79	366.003
1937.94	369.897
1938.09	364.6
1938.24	368.507
1938.39	370.342
1938.53	367.591
1938.68	368.992
1938.83	367.831
1938.98	366.073
1939.13	365.434
1939.28	370.697
1939.42	370.113
1939.57	370.348
1939.72	370.03
1939.87	369.456
1940.02	370.306
1940.17	368.251
1940.32	367.81
1940.46	371.633
1940.61	369.269
1940.76	369.816
1940.91	373.206
1941.06	365.729
1941.21	368.41
1941.35	366.646
1941.5	368.541
1941.65	373.827
1941.8	368.53
1941.95	386.801
1942.1	367.739
1942.25	371.212
1942.39	367.617
1942.54	372.957
1942.69	365.926
1942.84	372.459
1942.99	367.718
1943.14	371.371
1943.28	376.053
1943.43	368.998
1943.58	368.283
1943.73	371.632
1943.88	375.49
1944.03	372.636
1944.17	368.602
1944.32	369.445
1944.47	369.326
1944.62	370.837
1944.77	368.061
1944.92	366.433
1945.06	366.839
1945.21	369.229
1945.36	363.423
1945.51	374.596
1945.66	370.187
1945.8	370.51
1945.95	369.548
1946.1	369.634
1946.25	366.6
1946.4	370.331
1946.55	375.503
1946.69	369.612
1946.84	373.954
1946.99	368.111
1947.14	369.965
1947.29	373.044
1947.44	374.591
1947.58	368.13
1947.73	370.036
1947.88	364.781
1948.03	369.428
1948.18	376.477
1948.32	370.902
1948.47	370.886
1948.62	367.26
1948.77	370.673
1948.92	378.387
1949.06	366.064
1949.21	373.752
1949.36	371.773
1949.51	372.313
1949.66	372.327
1949.81	369.344
1949.95	372.411
1950.1	369.878
1950.25	368.447
1950.4	370.632
1950.55	368.578
1950.69	367.923
1950.84	369.308
1950.99	369.527
1951.14	367.982
1951.29	371.469
1951.43	369.563
1951.58	371.206
1951.73	365.178
1951.88	373.486
1952.03	371.985
1952.17	370.367
1952.32	367.934
1952.47	370.186
1952.62	369.492
1952.77	368.514
1952.91	363.253
1953.06	367.667
1953.21	365.378
1953.36	367.819
1953.51	367.482
1953.65	365.822
1953.8	367.962
1953.95	370.117
1954.1	371.284
1954.25	372.414
1954.39	370.895
1954.54	374.504
1954.69	370.365
1954.84	367.448
1954.98	370.382
1955.13	365.123
1955.28	368.228
1955.43	369.535
1955.58	372.086
1955.72	370.598
1955.87	366.5
1956.02	372.612
1956.17	370.1
1956.31	371.99
1956.46	373.784
1956.61	367.618
1956.76	370.974
1956.91	371.094
1957.05	371.038
1957.2	370.399
1957.35	374.921
1957.5	376.554
1957.65	373.858
1957.79	370.24
1957.94	373.693
1958.09	371.155
1958.24	369.436
1958.38	370.098
1958.53	368.087
1958.68	372.563
1958.83	369.861
1958.97	369.457
1959.12	373.404
1959.27	368.969
1959.42	369.951
1959.57	366.139
1959.71	370.627
1959.86	369.589
1960.01	369.832
1960.16	369.657
1960.3	369.946
1960.45	371.219
1960.6	370.439
1960.75	372.174
1960.89	369.183
1961.04	372.379
1961.19	367.013
1961.34	370.583
1961.48	368.31
1961.63	370.808
1961.78	371.488
1961.93	373.687
1962.07	370.157
1962.22	372.441
1962.37	370.896
1962.52	371.517
1962.67	367.777
1962.81	370.964
1962.96	367.935
1963.11	366.906
1963.25	370.736
1963.4	373.655
1963.55	368.445
1963.7	366.122
1963.85	370.384
1963.99	367.798
1964.14	379.067
1964.29	371.287
1964.44	371.688
1964.58	366.75
1964.73	367.672
1964.88	374.862
1965.02	372.123
1965.17	368.437
1965.32	367.339
1965.47	371.093
1965.61	369.825
1965.76	367.655
1965.91	372.97
1966.06	373.045
1966.2	370.335
1966.35	371.323
1966.5	368.756
1966.65	370.11
1966.79	369.212
1966.94	369.625
1967.09	378.551
1967.24	369.084
1967.38	371.73
1967.53	373.46
1967.68	371.73
1967.83	371.638
1967.97	372.586
1968.12	370.637
1968.27	371.025
1968.41	371.93
1968.56	368.349
1968.71	378.113
1968.86	368.826
1969	370.623
1969.15	371.497
1969.3	372.854
1969.45	368.954
1969.59	370.461
1969.74	371.474
1969.89	369.503
1970.03	369.644
1970.18	371.158
1970.33	373.291
1970.48	376.274
1970.62	373.718
1970.77	371.152
1970.92	369.179
1971.06	368.644
1971.21	372.622
1971.36	365.266
1971.51	371.471
1971.65	376.476
1971.8	375.652
1971.95	368.758
1972.1	369.712
1972.24	367.743
1972.39	367.214
1972.54	368.741
1972.68	368.654
1972.83	372.374
1972.98	374.794
1973.13	375.095
1973.27	370.541
1973.42	369.146
1973.57	372.917
1973.71	367.538
1973.86	370.8
1974.01	375.805
1974.16	374.022
1974.3	369.76
1974.45	369.818
1974.6	368.393
1974.74	370.403
1974.89	371.226
1975.04	373.266
1975.18	370.926
1975.33	370.771
1975.48	371.731
1975.62	367.879
1975.77	371.692
1975.92	369.398
1976.07	383.82
1976.21	374.238
1976.36	371.299
1976.51	370.097
1976.65	371.513
1976.8	373.9
1976.95	367.971
1977.09	368.839
1977.24	371.422
1977.39	368.531
1977.54	372.438
1977.68	372.512
1977.83	371.4
1977.98	369.131
1978.12	370.032
1978.27	372.874
1978.42	374.722
1978.56	370.521
1978.71	377.963
1978.86	369.378
1979	371.595
1979.15	371.979
1979.3	370.827
1979.45	376.133
1979.59	369.574
1979.74	375.181
1979.89	373.444
1980.03	375.096
1980.18	372.722
1980.33	370.705
1980.47	373.279
1980.62	373.331
1980.77	374.799
1980.91	371.781
1981.06	369.477
1981.21	371.4
1981.35	372.326
1981.5	367.457
1981.65	367.962
1981.79	372.742
1981.94	368.417
1982.09	368.157
1982.23	371.532
1982.38	370.297
1982.53	371.394
1982.67	370.977
1982.82	373.829
1982.97	372.938
1983.11	369.028
1983.26	371.917
1983.41	369.692
1983.55	370.463
1983.7	371.755
1983.85	369.035
1983.99	372.003
1984.14	374.457
1984.29	372.407
1984.43	372.47
1984.58	370.019
1984.73	371.167
1984.87	371.281
1985.02	372.505
1985.17	372.222
1985.31	367.961
1985.46	365.55
1985.61	371.054
1985.75	372.475
1985.9	375.981
1986.05	368.473
1986.19	368.295
1986.34	371.858
1986.49	370.777
1986.63	368.718
1986.78	375.524
1986.93	370.855
1987.07	370.558
1987.22	367.999
1987.37	374.967
1987.51	369.776
1987.66	367.996
1987.8	371.885
1987.95	370.069
1988.1	371.68
1988.24	374.534
1988.39	377.623
1988.54	370.729
1988.68	367.933
1988.83	368.523
1988.98	374.193
1989.12	370.666
1989.27	369.659
1989.42	372.756
1989.56	369.633
1989.71	368.814
1989.86	373.652
1990	367.831
1990.15	371.237
1990.29	369.111
1990.44	375.967
1990.59	373.242
1990.73	369.609
1990.88	372.61
1991.03	369.638
1991.17	369.283
1991.32	369.893
1991.46	368.29
1991.61	375.513
1991.76	373.425
1991.9	373.894
1992.05	369.995
1992.2	377.888
1992.34	369.99
1992.49	373.427
1992.64	372.12
1992.78	371.977
1992.93	368.069
1993.07	379.896
1993.22	379.428
1993.37	370.442
1993.51	373.777
1993.66	369.611
1993.81	371.873
1993.95	368.125
1994.1	373.673
1994.24	369.091
1994.39	373.978
1994.54	369.949
1994.68	370.744
1994.83	368.999
1994.98	373.979
1995.12	375.366
1995.27	370.925
1995.41	367.931
1995.56	371.258
1995.71	367.367
1995.85	372.772
1996	371.865
1996.15	370.23
1996.29	372.323
1996.44	368.443
1996.58	372.301
1996.73	373.324
1996.88	369.584
1997.02	369.064
1997.17	371.078
1997.31	370.117
1997.46	368.237
1997.61	371.992
1997.75	370.68
1997.9	370.887
1998.04	373.55
1998.19	374.385
1998.34	372.738
1998.48	369.778
1998.63	372.605
1998.77	370.038
1998.92	369.635
1999.07	370.58
1999.21	367.514
1999.36	370.239
1999.5	371.61
1999.65	368.634
1999.8	371.103
1999.94	369.58
2000.09	371.506
2000.23	372.081
2000.38	369.688
2000.53	366.113
2000.67	375.667
2000.82	370.025
2000.96	368.068
2001.11	369.368
2001.26	369.519
2001.4	373.071
2001.55	378.18
2001.69	371.33
2001.84	371.701
2001.99	369.193
2002.13	374.403
2002.28	368.825
2002.42	369.728
2002.57	374.386
2002.71	368.188
2002.86	368.408
2003.01	369.604
2003.15	371.137
2003.3	373.828
2003.44	378.182
2003.59	373.687
2003.74	372.915
2003.88	364.743
2004.03	369.943
2004.17	370.651
2004.32	369.551
2004.47	376.601
2004.61	368.424
2004.76	368.099
2004.9	370.669
2005.05	368.117
2005.19	369.189
2005.34	369.174
2005.49	368.034
2005.63	370.79
2005.78	369.105
2005.92	367.611
2006.07	371.664
2006.21	372.053
2006.36	368.95
2006.51	373.26
2006.65	370.401
2006.8	370.919
2006.94	370.845
2007.09	365.228
2007.23	375.221
2007.38	373.359
2007.52	373.936
2007.67	372.683
2007.82	367.334
2007.96	369.225
2008.11	370.774
2008.25	367.811
2008.4	368.717
2008.54	372.208
2008.69	368.202
2008.84	371.123
2008.98	370.414
2009.13	371.188
2009.27	369.956
2009.42	371.863
2009.56	370.013
2009.71	370.358
2009.85	371.164
2010	370.734
2010.15	369.073
2010.29	372.332
2010.44	370.611
2010.58	366.623
2010.73	368.029
2010.87	371.355
2011.02	369.66
2011.16	372.839
2011.31	366.062
2011.46	373.947
2011.6	373.619
2011.75	373.881
2011.89	370.597
2012.04	373.993
2012.18	368.909
2012.33	372.129
2012.47	378.149
2012.62	374.426
2012.77	369.18
2012.91	379.11
2013.06	366.467
2013.2	371.692
2013.35	371.19
2013.49	371.185
2013.64	369.446
2013.78	372.299
2013.93	372.083
2014.07	369.735
2014.22	370.284
2014.36	373.9
2014.51	373.433
2014.65	369.382
2014.8	374.563
2014.95	372.196
2015.09	371.745
2015.24	367.603
2015.38	376.513
2015.53	376.611
2015.67	371.992
2015.82	370.982
2015.96	369.376
2016.11	377.268
2016.25	369.783
2016.4	370.582
2016.54	367.948
2016.69	368.979
2016.83	374.196
2016.98	373.221
2017.13	370.604
2017.27	375.105
2017.42	370.986
2017.56	370.643
2017.71	372.381
2017.85	370.02
2018	369.852
2018.14	368.049
2018.29	371.102
2018.43	370.3
2018.58	369.037
2018.72	370.926
2018.87	369.532
2019.01	371.874
2019.16	374.397
2019.3	369.397
2019.45	369.563
2019.59	368.672
2019.74	368.598
2019.88	374.585
2020.03	371.527
2020.17	368.981
2020.32	374.767
2020.46	370.821
2020.61	368.576
2020.75	373.149
2020.9	369.309
2021.05	370.164
2021.19	366.754
2021.34	371.071
2021.48	370.467
2021.63	369.29
2021.77	377.661
2021.92	370.449
2022.06	369.868
2022.21	377.313
2022.35	374.113
2022.5	369.226
2022.64	370.059
2022.79	372.044
2022.93	371.042
2023.08	369.456
2023.22	372.814
2023.37	370.816
2023.51	367.162
2023.66	369.602
2023.8	372.356
2023.95	369.777
2024.09	378.883
2024.24	369.715
2024.38	372.069
2024.53	372.439
2024.67	370.135
2024.81	369.797
2024.96	373.213
2025.11	374.171
2025.25	371.964
2025.4	374.473
2025.54	375.182
2025.68	372.728
2025.83	371.935
2025.97	372.458
2026.12	373.196
2026.26	368.23
2026.41	371.128
2026.55	371.106
2026.7	373.531
2026.84	371.92
2026.99	369.736
2027.13	371.322
2027.28	373.472
2027.42	369.967
2027.57	370.392
2027.71	369.05
2027.86	370.774
2028	370.229
2028.15	367.959
2028.29	369.27
2028.44	368.737
2028.58	368.73
2028.73	372.547
2028.87	370.392
2029.02	369.876
2029.16	369.565
2029.31	373.49
2029.45	369.754
2029.6	369.932
2029.74	371.352
2029.88	373.112
2030.03	374.403
2030.17	368.661
2030.32	365.451
2030.46	369.182
2030.61	371.384
2030.75	373.043
2030.9	372.714
2031.04	370.094
2031.19	371.366
2031.33	376.116
2031.48	373.843
2031.62	373.644
2031.76	367.072
2031.91	371.795
2032.05	370.591
2032.2	371.726
2032.34	372.662
2032.49	377.301
2032.63	372.667
2032.78	374.071
2032.92	374.591
2033.07	371.192
2033.21	372.44
2033.36	372.777
2033.5	375.573
2033.64	372.576
2033.79	377.629
2033.93	370.926
2034.08	375.507
2034.22	372.965
2034.37	372.496
2034.51	373.698
2034.66	373.622
2034.8	373.889
2034.95	371.609
2035.09	379.297
2035.23	369.284
2035.38	370.782
2035.52	369.915
2035.67	372.493
2035.81	373.252
2035.96	370.803
2036.1	377.293
2036.25	371.702
2036.39	373.936
2036.53	376.395
2036.68	369.076
2036.82	375.698
2036.97	371.459
2037.11	374.007
2037.26	377.537
2037.4	374.739
2037.55	376.471
2037.69	374.249
2037.83	371.55
2037.98	373.828
2038.12	373.968
2038.27	378.034
2038.41	374.302
2038.56	380.978
2038.7	372.471
2038.85	376.15
2038.99	373.381
2039.13	371.814
2039.28	372.117
2039.42	371.123
2039.57	376.338
2039.71	378.595
2039.85	371.93
2040	371.033
2040.14	370.928
2040.29	373.595
2040.43	373.41
2040.58	373.3
2040.72	377.548
2040.87	376.484
2041.01	374.034
2041.15	372.773
2041.3	376.113
2041.44	371.984
2041.59	374.163
2041.73	375.591
2041.87	372.556
2042.02	372.965
2042.16	374.385
2042.31	371.963
2042.45	374.709
2042.6	374.212
2042.74	372.144
2042.88	372.751
2043.03	372.382
2043.17	372.66
2043.32	373.037
2043.46	377.193
2043.6	372.201
2043.75	377.249
2043.89	370.707
2044.04	370.798
2044.18	374.293
2044.33	376.749
2044.47	369.808
2044.61	370.129
2044.76	386.156
2044.9	371.442
2045.05	375.492
2045.19	374.517
2045.33	376.39
2045.48	375.385
2045.62	380.466
2045.77	374.84
2045.91	375.683
2046.05	371.263
2046.2	373.425
2046.34	372.043
2046.49	374.332
2046.63	373.453
2046.77	374.583
2046.92	375.184
2047.06	374.147
2047.21	375.066
2047.35	373.392
2047.49	382.653
2047.64	377.611
2047.78	374.355
2047.93	374.464
2048.07	374.771
2048.21	381.136
2048.36	377.527
2048.5	374.314
2048.65	375.893
2048.79	376.179
2048.93	374.325
2049.08	378.005
2049.22	373.723
2049.36	376.286
2049.51	381.578
2049.65	375.332
2049.8	373.904
2049.94	377.643
2050.09	375.087
2050.23	378.823
2050.37	375.093
2050.52	374.014
2050.66	377.769
2050.8	374.218
2050.95	375.417
2051.09	374.565
2051.24	376.003
2051.38	375.133
2051.52	372.564
2051.67	375.15
2051.81	377.513
2051.95	379.573
2052.1	376.296
2052.24	374.484
2052.39	371.335
2052.53	374.345
2052.67	374.848
2052.82	375.432
2052.96	382.369
2053.1	373.202
2053.25	378.379
2053.39	375.61
2053.54	377.535
2053.68	375.267
2053.82	378.443
2053.97	370.991
2054.11	373.058
2054.25	382.331
2054.4	380.886
2054.54	376.838
2054.69	377.807
2054.83	373.899
2054.97	376.275
2055.12	372.496
2055.26	376.453
2055.4	380.655
2055.55	372.315
2055.69	374.256
2055.83	377.801
2055.98	375.535
2056.12	374.784
2056.26	377.717
2056.41	376.716
2056.55	379.209
2056.7	374.852
2056.84	375.739
2056.98	376.709
2057.13	379.451
2057.27	372.566
2057.41	375.645
2057.56	382.81
2057.7	372.911
2057.84	380.942
2057.99	377.446
2058.13	376.687
2058.28	376.839
2058.42	375.201
2058.56	377.361
2058.71	374.9
2058.85	377.713
2058.99	372.455
2059.14	374.974
2059.28	374.471
2059.42	377.146
2059.57	378.738
2059.71	382.197
2059.85	374.034
2060	375.375
2060.14	373.881
2060.28	375.395
2060.43	373.245
2060.57	375.391
2060.71	376.816
2060.86	377.551
2061	381.015
2061.14	379.518
2061.29	379.973
2061.43	377.803
2061.57	380.02
2061.72	379.816
2061.86	374.381
2062	375.778
2062.15	376.235
2062.29	377.612
2062.43	379.903
2062.58	378.829
2062.72	375.221
2062.86	376.304
2063.01	378.16
2063.15	378.648
2063.3	376.448
2063.44	379.451
2063.58	376.093
2063.72	381.241
2063.87	375.9
2064.01	379.598
2064.15	380.008
2064.3	379.309
2064.44	373.249
2064.58	377.766
2064.73	380.19
2064.87	379.267
2065.01	381.957
2065.16	381.244
2065.3	375.931
2065.44	382.325
2065.59	377.952
2065.73	377.871
2065.87	377.545
2066.02	380.895
2066.16	377.1
2066.3	378.524
2066.45	379.033
2066.59	373.756
2066.73	379.826
2066.88	374.991
2067.02	378.159
2067.16	378.055
2067.3	377.5
2067.45	389.58
2067.59	375.565
2067.73	378.263
2067.88	376.876
2068.02	376.685
2068.16	377.166
2068.31	376.073
2068.45	376.712
2068.59	374.779
2068.74	378.57
2068.88	378.941
2069.02	374.813
2069.16	382.347
2069.31	383.758
2069.45	372.768
2069.59	381.847
2069.74	379.181
2069.88	375.019
2070.02	377.253
2070.17	377.927
2070.31	380.693
2070.45	376.706
2070.6	397.602
2070.74	376.51
2070.88	380.952
2071.02	379.561
2071.17	380.801
2071.31	379.222
2071.45	379.763
2071.6	382.159
2071.74	382.933
2071.88	376.022
2072.02	380.461
2072.17	374.849
2072.31	377.72
2072.45	381.881
2072.6	390.674
2072.74	378.516
2072.88	375.845
2073.02	383.556
2073.17	376.904
2073.31	379.508
2073.45	377.849
2073.6	379.184
2073.74	384.752
2073.88	377.861
2074.02	376.665
2074.17	377.825
2074.31	375.254
2074.45	375.27
2074.6	377.46
2074.74	375.651
2074.88	382.43
2075.02	375.381
2075.17	378.486
2075.31	377.144
2075.45	380.523
2075.6	380.981
2075.74	378.195
2075.88	379.891
2076.02	381.444
2076.17	384.395
2076.31	379.654
2076.45	377.348
2076.6	379.388
2076.74	381.557
2076.88	375.285
2077.02	380.154
2077.17	378.557
2077.31	380.238
2077.45	379.1
2077.59	379.186
2077.74	378.251
2077.88	375.455
2078.02	375.193
2078.17	379.042
2078.31	383.492
2078.45	379.983
2078.59	376.946
2078.74	381.073
2078.88	381.559
2079.02	386.211
2079.16	382.006
2079.31	378.496
2079.45	380.967
2079.59	379.691
2079.73	379.108
2079.88	379.182
2080.02	376.423
2080.16	383.335
2080.3	380.615
2080.45	378.083
2080.59	377.137
2080.73	378.096
2080.87	380.142
2081.02	378.334
2081.16	376.864
2081.3	378.235
2081.44	380.181
2081.59	380.167
2081.73	380.218
2081.87	380.613
2082.01	379.436
2082.16	379.07
2082.3	378.706
2082.44	379.884
2082.58	381.711
2082.73	376.473
2082.87	377.154
2083.01	374.004
2083.15	374.542
2083.3	380.883
2083.44	376.948
2083.58	377.435
2083.72	383.992
2083.87	380.384
2084.01	382.903
2084.15	381.914
2084.29	379.359
2084.44	378.075
2084.58	382.702
2084.72	379.721
2084.86	377.966
2085.01	381.794
2085.15	379.18
2085.29	375.642
2085.43	382.856
2085.58	383.165
2085.72	379.445
2085.86	379.677
2086	381.922
2086.15	386.614
2086.29	384.687
2086.43	380.087
2086.57	382.388
2086.71	386.824
2086.86	379.326
2087	383.67
2087.14	382.492
2087.28	383.106
2087.43	378.855
2087.57	380.732
2087.71	379.926
2087.85	378.096
2087.99	378.939
2088.14	381.861
2088.28	382.957
2088.42	380.623
2088.56	382.5
2088.71	377.478
2088.85	379.728
2088.99	380.385
2089.13	383.171
2089.27	383.758
2089.42	383.17
2089.56	381.444
2089.7	380.288
2089.84	378.864
2089.99	386.098
2090.13	378.229
2090.27	384.807
2090.41	385.302
2090.55	387.921
2090.7	380.811
2090.84	381.782
2090.98	379.563
2091.12	382.435
2091.26	377.65
2091.41	387.087
2091.55	377.729
2091.69	382.953
2091.83	378.775
2091.98	383.385
2092.12	381.615
2092.26	381.337
2092.4	380.471
2092.54	380.847
2092.69	380.132
2092.83	382.555
2092.97	379.406
2093.11	383.475
2093.25	379.072
2093.4	382.537
2093.54	386.806
2093.68	384.779
2093.82	386.032
2093.96	384.091
2094.11	380.945
2094.25	389.981
2094.39	379.207
2094.53	382.344
2094.67	385.478
2094.82	379.141
2094.96	379.888
2095.1	384.768
2095.24	378.627
2095.38	385.969
2095.53	379.543
2095.67	381.882
2095.81	380.97
2095.95	381.717
2096.09	381.968
2096.24	384.816
2096.38	383.231
2096.52	386.325
2096.66	379.045
2096.8	380.785
2096.95	381.677
2097.09	380.502
2097.23	388.16
2097.37	378.788
2097.51	382.852
2097.65	380.85
2097.8	384.125
2097.94	381.982
2098.08	383.479
2098.22	381.314
2098.36	384.422
2098.5	380.846
2098.65	385.202
2098.79	385.101
2098.93	381.558
2099.07	382.878
2099.21	384.234
2099.36	382.647
2099.5	382.854
2099.64	383.806
2099.78	384.789
2099.92	384.783
2100.06	383.109
2100.21	379.917
2100.35	382.119
2100.49	380.308
2100.63	384.802
2100.77	396.665
2100.91	386.859
2101.06	381.733
2101.2	383.747
2101.34	384.037
2101.48	387.671
2101.62	386.117
2101.76	383.305
2101.91	380.397
2102.05	381.994
2102.19	385.461
2102.33	379.897
2102.47	383.939
2102.61	385.199
2102.76	385.456
2102.9	380.45
2103.04	380.248
2103.18	382.285
2103.32	391.147
2103.46	380.112
2103.61	389.359
2103.75	386.789
2103.89	384.654
2104.03	387.071
2104.17	382.872
2104.31	385.246
2104.45	381.133
2104.6	387.669
2104.74	385.207
2104.88	383.32
2105.02	380.816
2105.16	384.696
2105.3	385.825
2105.45	381.06
2105.59	391.587
2105.73	384.544
2105.87	392.068
2106.01	387.86
2106.15	382.263
2106.3	385.145
2106.44	386.278
2106.58	383.532
2106.72	382.132
2106.86	383.915
2107	384.833
2107.14	386.337
2107.28	379.118
2107.43	385.162
2107.57	386.451
2107.71	383.533
2107.85	386.32
2107.99	384.412
2108.13	381.521
2108.27	383.498
2108.42	381.87
2108.56	390.903
2108.7	385.653
2108.84	387.956
2108.98	389.928
2109.12	384.589
2109.26	385.442
2109.41	391.065
2109.55	385.243
2109.69	383.688
2109.83	387.517
2109.97	382.847
2110.11	382.544
2110.25	388.858
2110.39	391.122
2110.54	389.379
2110.68	384.684
2110.82	382.291
2110.96	386.242
2111.1	380.521
2111.24	386.63
2111.38	386.913
2111.52	392.201
2111.67	386.732
2111.81	384.942
2111.95	390.545
2112.09	385.259
2112.23	389.125
2112.37	387.838
2112.51	387.383
2112.65	393.581
2112.8	384.695
2112.94	384.824
2113.08	382.779
2113.22	389.478
2113.36	384.977
2113.5	385.3
2113.64	383.043
2113.78	383.778
2113.93	387.038
2114.07	383.119
2114.21	384.771
2114.35	382.378
2114.49	386.16
2114.63	387.507
2114.77	389.648
2114.91	389.487
2115.05	390.9
2115.2	384.106
2115.34	387.05
2115.48	384.981
2115.62	382.275
2115.76	392.77
2115.9	387.001
2116.04	388.761
2116.18	384.373
2116.32	382.203
2116.46	389.795
2116.61	385.356
2116.75	386.746
2116.89	386.74
2117.03	388.319
2117.17	390.03
2117.31	386.478
2117.45	388.502
2117.59	386.482
2117.73	389.102
2117.87	386.42
2118.02	391.923
2118.16	389.064
2118.3	386.884
2118.44	389.91
2118.58	385.586
2118.72	390.238
2118.86	383.465
2119	388.555
2119.14	387.325
2119.28	388.466
2119.43	389.455
2119.57	383.715
2119.71	388.671
2119.85	387.085
2119.99	385.894
2120.13	390.456
2120.27	387.578
2120.41	389.528
2120.55	391.632
2120.69	388.537
2120.83	390.576
2120.98	387.854
2121.12	386.996
2121.26	387.093
2121.4	396.26
2121.54	390.331
2121.68	390.977
2121.82	390.063
2121.96	388.634
2122.1	385.318
2122.24	390.066
2122.38	391.418
2122.52	389.379
2122.66	391.792
2122.81	388.8
2122.95	388.499
2123.09	388.992
2123.23	394.342
2123.37	386.943
2123.51	385.793
2123.65	390.043
2123.79	387.557
2123.93	387.745
2124.07	389.256
2124.21	389.388
2124.35	387.665
2124.49	386.583
2124.64	389.825
2124.78	390.602
2124.92	395.315
2125.06	391.276
2125.2	389.095
2125.34	387.253
2125.48	385.566
2125.62	390.599
2125.76	387.825
2125.9	387.238
2126.04	391.344
2126.18	392.045
2126.32	387.053
2126.46	390.246
2126.6	389.49
2126.74	384.849
2126.88	390.72
2127.02	387.704
2127.17	388.154
2127.31	390.046
2127.45	395.502
2127.59	391.013
2127.73	390.512
2127.87	390.562
2128.01	392.011
2128.15	389.597
2128.29	387.594
2128.43	390.612
2128.57	387.843
2128.71	390.384
2128.85	390.826
2128.99	392.586
2129.13	393.266
2129.27	391.683
2129.41	390.641
2129.56	389.451
2129.7	390.49
2129.84	389.257
2129.98	387.135
2130.12	392.63
2130.26	386.208
2130.4	389.107
2130.54	388.361
2130.68	388.856
2130.82	392.102
2130.96	389.15
2131.1	391.006
2131.24	390.029
2131.38	391.568
2131.52	402.334
2131.66	391.108
2131.8	387.467
2131.94	394.546
2132.08	390.985
2132.22	386.004
2132.36	393.192
2132.5	388.766
2132.64	400.169
2132.78	388.134
2132.92	391.134
2133.06	389.263
2133.21	388.861
2133.35	389.081
2133.49	390.696
2133.63	390.601
2133.77	390.933
2133.91	387.07
2134.05	388.67
2134.19	389.475
2134.33	390.771
2134.47	394.464
2134.61	392.42
2134.75	388.678
2134.89	389.491
2135.03	387.811
2135.17	389.365
2135.31	392.149
2135.45	391.178
2135.59	390.95
2135.73	390.964
2135.87	390.182
2136.01	392.27
2136.15	391.771
2136.29	394.896
2136.43	394.323
2136.57	392.409
2136.71	394.075
2136.85	391.855
2136.99	390.795
2137.13	389.47
2137.27	390.692
2137.41	390.94
2137.55	391.537
2137.69	390.541
2137.83	397.485
2137.97	392.964
2138.11	392.001
2138.25	391.232
2138.39	388.23
2138.53	390.316
2138.67	392.234
2138.81	389.64
2138.95	393.046
2139.09	393.152
2139.23	390.675
2139.37	389.634
2139.51	393.13
2139.65	395.188
2139.79	386.586
2139.93	390.161
2140.07	389.712
2140.21	392.46
2140.35	394.347
2140.49	390.85
2140.63	391.722
2140.77	390.786
2140.91	391.516
2141.05	393.282
2141.19	392.92
2141.33	394.325
2141.47	391.309
2141.61	390.304
2141.75	394.146
2141.89	392.072
2142.03	391.739
2142.17	393.216
2142.31	393.574
2142.45	393.828
2142.59	392.531
2142.73	392.063
2142.87	393.096
2143.01	393.726
2143.15	392.956
2143.29	390.185
2143.43	391.198
2143.57	392.648
2143.71	392.716
2143.85	391.85
2143.99	388.78
2144.13	391.316
2144.27	389.221
2144.41	392.856
2144.55	394.119
2144.69	394.644
2144.83	392.028
2144.97	395.917
2145.11	393.674
2145.25	388.477
2145.39	390.944
2145.53	393.169
2145.67	391.303
2145.81	391.626
2145.95	394.729
2146.09	393.002
2146.23	391.185
2146.37	390.986
2146.51	390.182
2146.65	392.406
2146.79	391.818
2146.93	393.803
2147.07	391.686
2147.21	390.251
2147.35	391.908
2147.49	393.92
2147.63	391.215
2147.76	392.74
2147.9	393.385
2148.04	393.887
2148.18	393.762
2148.32	394.913
2148.46	397.179
2148.52	398.143
2148.66	394.165
2148.8	393.695
2148.94	395.869
2149.09	393.669
2149.23	399.342
2149.37	393.01
2149.51	399.616
2149.65	392.212
2149.8	394.097
2149.94	396.049
2150.08	388.086
2150.22	390.846
2150.36	390.668
2150.51	392.351
2150.65	392.981
2150.79	395.784
2150.93	398.348
2151.07	395.645
2151.22	389.988
2151.36	392.228
2151.5	392.319
2151.64	398.758
2151.78	395.159
2151.93	394.343
2152.07	390.951
2152.21	394.732
2152.35	392.996
2152.5	390.877
2152.64	394.12
2152.78	397.219
2152.92	393.16
2153.06	391.031
2153.21	390.963
2153.35	396.212
2153.49	391.214
2153.63	392.341
2153.77	391.465
2153.91	390.17
2154.06	391.591
2154.2	392.173
2154.34	391.73
2154.48	394.43
2154.62	396.147
2154.77	394.34
2154.91	393.25
2155.05	396.402
2155.19	396.362
2155.33	397.332
2155.48	391.319
2155.62	393.032
2155.76	397.242
2155.9	395.679
2156.04	393.683
2156.19	389.824
2156.33	399.485
2156.47	391.994
2156.61	394.675
2156.75	394.162
2156.89	397.687
2157.04	395.847
2157.18	391.438
2157.32	396.013
2157.46	391.185
2157.6	397.103
2157.74	405.951
2157.89	396.172
2158.03	392.052
2158.17	391.737
2158.31	389.987
2158.45	390.78
2158.59	389.849
2158.74	391.017
2158.88	391.807
2159.02	398.471
2159.16	393.979
2159.3	391.344
2159.45	394.338
2159.59	397.403
2159.73	396.047
2159.87	392.007
2160.01	394.506
2160.15	392.902
2160.3	391.424
2160.44	394.883
2160.58	392.273
2160.72	396.987
2160.86	399.066
2161	394.176
2161.15	389.961
2161.29	398.076
2161.43	397.492
2161.57	391.049
2161.71	389.91
2161.85	395.453
2161.99	392.055
2162.14	398.343
2162.28	398.029
2162.42	397.986
2162.56	392.754
2162.7	393.698
2162.84	395.564
2162.99	395.353
2163.13	391.876
2163.27	392.485
2163.41	394.296
2163.55	390.103
2163.69	395.743
2163.84	395.617
2163.98	397.019
2164.12	397.283
2164.26	395.063
2164.4	397.606
2164.54	394.811
2164.68	393.537
2164.83	395.489
2164.97	390.67
2165.11	394.865
2165.25	397.345
2165.39	394.697
2165.53	397.829
2165.68	396.489
2165.82	394.977
2165.96	396.186
2166.1	397.452
2166.24	393.441
2166.38	391.795
2166.52	394.4
2166.66	398.488
2166.81	397.316
2166.95	391.894
2167.09	391.914
2167.23	395.573
2167.37	395.453
2167.51	392.793
2167.65	392.503
2167.8	389.048
2167.94	396.338
2168.08	395.202
2168.22	397.887
2168.36	392.276
2168.5	395.758
2168.64	398.186
2168.78	395.556
2168.93	397.244
2169.07	392.409
2169.21	394.499
2169.35	394.669
2169.49	395.323
2169.63	395.846
2169.77	395.732
2169.91	391.293
2170.06	396.298
2170.2	391.195
2170.34	392.565
2170.48	395.138
2170.62	397.516
2170.76	397.499
2170.9	390.333
2171.04	391.753
2171.19	391.21
2171.33	393.635
2171.47	399.501
2171.61	393.079
2171.75	395.428
2171.89	397.105
2172.03	397.342
2172.17	394.868
2172.32	395.001
2172.46	395.889
2172.6	397.01
2172.74	393.861
2172.88	397.231
2173.02	390.503
2173.16	396.842
2173.3	392.666
2173.45	391.782
2173.59	397.517
2173.73	396.715
2173.87	395.346
2174.01	397.858
2174.15	399.91
2174.29	396.938
2174.43	396.359
2174.57	399.17
2174.72	393.732
2174.86	399.02
2175	398.723
2175.14	394.073
2175.28	396.169
2175.42	398.42
2175.56	391.69
2175.7	393.538
2175.84	396.242
2175.98	398.747
2176.13	393.862
2176.27	396.353
2176.41	393.58
2176.55	394.547
2176.69	399.844
2176.83	392.881
2176.97	396.676
2177.11	405.107
2177.25	390.569
2177.39	393.345
2177.53	396.249
2177.68	392.919
2177.82	392.697
2177.96	395.11
2178.1	392.879
2178.24	394.11
2178.38	398.733
2178.52	394.33
2178.66	394.946
2178.8	393.926
2178.94	394.264
2179.08	395.745
2179.23	400.039
2179.37	395.966
2179.51	392.509
2179.65	396.222
2179.79	397.592
2179.93	396.157
2180.07	392.954
2180.21	388.301
2180.35	391.219
2180.49	397.942
2180.63	395.418
2180.78	392.407
2180.92	394.003
2181.06	399.877
2181.2	394.698
2181.34	390.015
2181.48	395.443
2181.62	394.75
2181.76	403.601
2181.9	394.087
2182.04	395.678
2182.18	398.513
2182.32	390.874
2182.46	393.585
2182.61	394.26
2182.75	398.066
2182.89	396.777
2183.03	397.39
2183.17	395.995
2183.31	401.553
2183.45	392.606
2183.59	395.631
2183.73	392.7
2183.87	397.178
2184.01	395.572
2184.15	401.072
2184.29	395.498
2184.43	396.731
2184.57	397.114
2184.72	393.597
2184.86	393.877
2185	396.715
2185.14	397.671
2185.28	396.69
2185.42	393.311
2185.56	391.846
2185.7	395.188
2185.84	393.659
2185.98	393.556
2186.12	399.606
2186.26	396.563
2186.4	392.804
2186.54	396.142
2186.68	399.866
2186.82	394.788
2186.96	397.453
2187.1	393.816
2187.25	395.097
2187.39	395.723
2187.53	395.452
2187.67	401.917
2187.81	395.096
2187.95	390.675
2188.09	394.726
2188.23	394.951
2188.37	393.731
2188.51	399.309
2188.65	393.958
2188.79	398.684
2188.93	393.138
2189.07	396.341
2189.21	398.01
2189.35	393.845
2189.49	400.397
2189.63	396.313
2189.77	400.133
2189.92	394.998
2190.06	396.57
2190.2	397.027
2190.34	402.231
2190.48	391.521
2190.62	396.262
2190.76	392.918
2190.9	394.488
2191.04	396.863
2191.18	395.16
2191.32	394.352
2191.46	395.075
2191.6	396.437
2191.74	399.874
2191.88	402.767
2192.02	394.623
2192.16	395.977
2192.3	390.76
2192.44	397.83
2192.58	398.914
2192.72	396.518
2192.86	392.389
2193	395.73
2193.14	401.46
2193.28	391.766
2193.42	396.682
2193.56	394.452
2193.7	392.525
2193.84	398.85
2193.98	397.01
2194.13	401.003
2194.27	393.766
2194.41	394.883
2194.55	393.32
2194.69	397.133
2194.83	394.12
2194.97	400.042
2195.11	401.968
2195.25	394.392
2195.39	391.99
2195.53	395.059
2195.67	399.514
2195.81	394.21
2195.95	400.488
2196.09	396.662
2196.23	395.59
2196.37	393.638
2196.51	394.384
2196.65	394.979
2196.79	398.615
2196.93	397.276
2197.07	398.156
2197.21	391.757
2197.35	399.408
2197.49	392.087
2197.63	393.757
2197.77	398.334
2197.91	394.811
2198.05	399.568
2198.19	397.938
2198.33	395.231
2198.47	398.078
2198.61	395.74
2198.75	395.819
2198.89	400.773
2199.03	398.552
2199.17	398.321
2199.31	401.835
2199.45	393.716
2199.59	398.188
2199.73	396.034
2199.87	398.45
2200.01	395.933
2200.15	393.899
2200.29	396.707
2200.43	396.278
2200.57	398.96
2200.71	401.953
2200.85	397.775
2200.99	390.521
2201.13	394.9
2201.27	396.495
2201.41	391.213
2201.55	394.936
2201.69	394.727
2201.83	396.508
2201.97	396.96
2202.11	395.62
2202.25	392.798
2202.39	396.756
2202.53	395.24
2202.67	397.692
2202.81	398.553
2202.95	393.86
2203.09	394.304
2203.23	394.94
2203.37	397.636
2203.51	395.569
2203.65	394.313
2203.79	394.311
2203.93	396.12
2204.07	394.466
2204.21	395.898
2204.35	393.17
2204.49	394.513
2204.63	395.79
2204.77	395.103
2204.91	393.413
2205.05	397.951
2205.19	395.762
2205.33	396.113
2205.47	394.438
2205.61	394.669
2205.75	394.737
2205.89	395.152
2206.02	395.695
2206.16	392.955
2206.3	401.013
2206.44	391.93
2206.58	397.038
2206.72	397.267
2206.86	398.477
2207	399.946
2207.14	397.344
2207.28	397.373
2207.42	396.014
2207.56	396.767
2207.7	393.552
2207.84	395.315
2207.98	394.589
2208.12	397.54
2208.26	394.774
2208.4	395.774
2208.54	400.173
2208.68	397.821
2208.82	398.079
2208.96	395.23
2209.1	394.394
2209.24	401.358
2209.38	393.692
2209.52	399.234
2209.66	397.63
2209.8	394.728
2209.94	396.46
2210.08	398.935
2210.22	395.639
2210.35	398.094
2210.49	397.383
2210.63	399.503
2210.77	396.784
2210.91	393.812
2211.05	396.41
2211.19	397.065
2211.33	397.836
2211.47	395.02
2211.61	395.531
2211.75	395.428
2211.89	395.434
2212.03	396.044
2212.17	394.254
2212.31	396.934
2212.45	392.902
2212.59	397.171
2212.73	400.836
2212.87	394.794
2213.01	396.924
2213.15	397.613
2213.28	394.812
2213.42	404.369
2213.56	397.304
2213.7	398.731
2213.84	397.113
2213.98	398.394
2214.12	394.271
2214.26	396.945
2214.4	395.31
2214.54	399.051
2214.68	399.487
2214.82	398.717
2214.96	402.265
2215.1	396.824
2215.24	400.783
2215.38	400.347
2215.52	394.543
2215.65	396.971
2215.79	394.842
2215.93	395.651
2216.07	394.833
2216.21	400.897
2216.35	396.156
2216.49	405.791
2216.63	395.37
2216.77	395.21
2216.91	395.517
2217.05	395.384
2217.19	392.661
2217.33	395.385
2217.47	400.991
2217.6	401.039
2217.74	395.839
2217.88	397.62
2218.02	393.822
2218.16	398.64
2218.3	397.341
2218.44	402
2218.58	398.039
2218.72	396.857
2218.86	395.656
2219	395.191
2219.14	393.847
2219.28	402.223
2219.41	400.37
2219.55	397.297
2219.69	395.922
2219.83	400.16
2219.97	396.384
2220.11	400.784
2220.25	399.588
2220.39	398.1
2220.53	396.005
2220.67	396.081
2220.81	400.889
2220.95	404.177
2221.08	400.161
2221.22	404.366
2221.36	399.432
2221.5	396.369
2221.64	402.045
2221.78	400.343
2221.92	396.77
2222.06	396.637
2222.2	399.206
2222.34	398.834
2222.48	397.734
2222.61	399.289
2222.75	401.454
2222.89	401.072
2223.03	395.486
2223.17	400.429
2223.31	398.104
2223.45	399.05
2223.59	396.023
2223.73	400.888
2223.87	401.076
2224	402.229
2224.14	396.46
2224.28	403.094
2224.42	400.739
2224.56	397.175
2224.7	398.999
2224.84	397.162
2224.98	403.852
2225.12	403.854
2225.26	400.969
2225.39	398.416
2225.53	410.035
2225.67	401.109
2225.81	398.43
2225.95	398.243
2226.09	401.528
2226.23	398.994
2226.37	399.323
2226.51	398.376
2226.64	396.01
2226.78	396.903
2226.92	400.435
2227.06	395.292
2227.2	399.578
2227.34	397.765
2227.48	398.342
2227.62	401.877
2227.76	396.546
2227.89	396.695
2228.03	405.306
2228.17	402.52
2228.31	405.621
2228.45	399.357
2228.59	401.777
2228.73	400.04
2228.87	402.408
2229	401.767
2229.14	398.986
2229.28	403.136
2229.42	399.015
2229.56	402.455
2229.7	402.416
2229.84	398.178
2229.98	406.49
2230.11	398.308
2230.25	400.439
2230.39	399.854
2230.53	402.322
2230.67	402.352
2230.81	400.271
2230.95	401.061
2231.09	395.964
2231.22	403.163
2231.36	399.362
2231.5	398.397
2231.64	396.8
2231.78	399.171
2231.92	399.356
2232.06	400.942
2232.2	402.046
2232.33	402.027
2232.47	403.511
2232.61	403.784
2232.75	400.02
2232.89	401.598
2233.03	400.935
2233.17	400.221
2233.3	401.877
2233.44	401.062
2233.58	403.57
2233.72	399.697
2233.86	400.217
2234	409.687
2234.14	398.221
2234.27	396.415
2234.41	405.271
2234.55	402.962
2234.69	403.251
2234.83	402.942
2234.97	404.088
2235.11	401.383
2235.24	401.268
2235.38	399.676
2235.52	403.408
2235.66	400.812
2235.8	399.791
2235.94	404.059
2236.08	402.847
2236.21	412.757
2236.35	399.004
2236.49	404.311
2236.63	404.173
2236.77	400.496
2236.91	400.81
2237.04	405.94
2237.18	405.942
2237.32	404.363
2237.46	401.393
2237.6	400.142
2237.74	404.312
2237.88	397.477
2238.01	407.048
2238.15	404.018
2238.29	406.538
2238.43	400.144
2238.57	404.448
2238.71	406.741
2238.84	403.498
2238.98	403.472
2239.12	406.977
2239.26	404.102
2239.4	408.148
2239.53	404.891
2239.67	400.711
2239.81	403.783
2239.95	403.798
2240.09	403.493
2240.23	404.791
2240.37	402.442
2240.5	402.926
2240.64	400.273
2240.78	405.945
2240.92	402.239
2241.06	404.564
2241.2	407.212
2241.33	401.767
2241.47	400.342
2241.61	405.065
2241.75	403.504
2241.89	403.595
2242.02	400.918
2242.16	404.49
2242.3	405.021
2242.44	403.28
2242.58	405.133
2242.72	398.838
2242.85	404.899
2242.99	399.827
2243.13	410.756
2243.27	401.586
2243.41	404.06
2243.54	405.202
2243.68	402.815
2243.82	400.128
2243.96	404.182
2244.1	404.725
2244.24	406.262
2244.37	402.055
2244.51	405.241
2244.65	402.056
2244.79	404.127
2244.93	407.312
2245.06	401.395
2245.2	411.304
2245.34	410.176
2245.48	404.973
2245.62	404.845
2245.76	406.071
2245.89	406.573
2246.03	407.864
2246.17	401.559
2246.31	404.378
2246.45	404.802
2246.58	407.754
2246.72	405.087
2246.86	404.884
2247	407.947
2247.13	408.459
2247.27	406.973
2247.41	400.555
2247.55	409.446
2247.69	403.42
2247.83	403.087
2247.96	402.872
2248.1	406.011
2248.24	404.922
2248.38	409.437
2248.52	402.687
2248.65	403.982
2248.79	403.452
2248.93	405.084
2249.07	408.847
2249.21	403.708
2249.34	406.597
2249.48	403.99
2249.62	409.136
2249.76	413.738
2249.89	409.18
2250.03	415.279
2250.17	405.149
2250.31	405.77
2250.45	403.227
2250.58	405.167
2250.72	406.644
2250.86	404.029
2251	406.016
2251.14	405.997
2251.27	408.451
2251.41	403.296
2251.55	407.154
2251.69	404.967
2251.82	407.339
2251.96	410.032
2252.1	405.922
2252.24	402.415
2252.38	407.83
2252.51	407.369
2252.65	406.354
2252.79	406.628
2252.93	406.721
2253.06	404.217
2253.2	404.057
2253.34	409.605
2253.48	402.549
2253.62	410.356
2253.75	407.838
2253.89	406.176
2254.03	406.861
2254.17	404.862
2254.3	410.593
2254.44	408.344
2254.58	404.553
2254.72	404.029
2254.86	408.183
2254.99	405.587
2255.13	407.106
2255.27	406.357
2255.41	403.298
2255.54	406.567
2255.68	407.203
2255.82	411.908
2255.96	426.689
2256.09	403.377
2256.23	404.985
2256.37	405.086
2256.51	402.574
2256.65	405.636
2256.78	406.373
2256.92	410.483
2257.06	408.968
2257.2	408.256
2257.33	408.466
2257.47	405.874
2257.61	404.139
2257.75	405.727
2257.88	407.709
2258.02	407.07
2258.16	408.682
2258.3	411.699
2258.43	403.233
2258.57	407.724
2258.71	405.219
2258.85	404.361
2258.98	406.138
2259.12	408.114
2259.26	415.8
2259.4	408.728
2259.53	408.97
2259.67	407.898
2259.81	409.58
2259.95	409.396
2260.08	407.216
2260.22	409.065
2260.36	413.19
2260.5	412.675
2260.63	411.35
2260.77	407.096
2260.91	406.938
2261.05	406.83
2261.18	412.493
2261.32	405.625
2261.46	408.732
2261.6	412.127
2261.73	410.218
2261.87	407.122
2262.01	405.588
2262.14	405.073
2262.28	406.77
2262.42	408.793
2262.56	410.066
2262.69	410.911
2262.83	409.991
2262.97	410.768
2263.11	409.032
2263.24	412.135
2263.38	407.691
2263.52	405.762
2263.66	406.105
2263.79	409.219
2263.93	409.112
2264.07	410.432
2264.2	409.952
2264.34	409.233
2264.48	407.598
2264.62	407.605
2264.75	407.499
2264.89	408.997
2265.03	412.899
2265.17	410.817
2265.3	408.24
2265.44	408.762
2265.58	406.647
2265.72	407.025
2265.85	408.803
2265.99	407.81
2266.13	408.788
2266.26	411.536
2266.4	408.051
2266.54	409.184
2266.68	410.359
2266.81	409.147
2266.95	407.902
2267.09	409.58
2267.22	409.654
2267.36	406.569
2267.5	413.527
2267.64	413.514
2267.77	409.738
2267.91	410.765
2268.05	411.488
2268.18	412.708
2268.32	413.652
2268.46	406.817
2268.6	413.542
2268.73	413.052
2268.87	409.632
2269.01	411.84
2269.14	410.107
2269.28	404.22
2269.42	407.735
2269.56	410.809
2269.69	414.504
2269.83	413.171
2269.97	408.68
2270.1	410.818
2270.24	410.74
2270.38	411.123
2270.51	412.94
2270.65	413.584
2270.79	411.945
2270.93	412.11
2271.06	412.339
2271.2	408.077
2271.34	413.524
2271.47	416.392
2271.61	413.766
2271.75	406.689
2271.88	418.667
2272.02	411.169
2272.16	414.16
2272.3	409.44
2272.43	414.465
2272.57	415.823
2272.71	409.667
2272.84	408.677
2272.98	412.194
2273.12	412.406
2273.25	413.929
2273.39	415.155
2273.53	412.176
2273.66	412.132
2273.8	410.609
2273.94	413.994
2274.08	409.92
2274.21	409.913
2274.35	409.188
2274.49	412.195
2274.62	411.733
2274.76	410.678
2274.9	409.199
2275.03	410.148
2275.17	411.939
2275.31	410.759
2275.44	414.121
2275.58	412.119
2275.72	414.394
2275.85	409.028
2275.99	412.768
2276.13	407.492
2276.26	415.346
2276.4	415.756
2276.54	415.378
2276.67	412.294
2276.81	409.336
2276.95	416.275
2277.09	415.639
2277.22	413.781
2277.36	404.055
2277.5	412.892
2277.63	423.108
2277.77	413.21
2277.91	409.409
2278.04	411.208
2278.18	411.913
2278.32	409.82
2278.45	413.549
2278.59	409.667
2278.73	413.32
2278.86	412.48
2279	412.377
2279.14	411.748
2279.27	413.915
2279.41	409.476
2279.55	409.579
2279.68	411.015
2279.82	410.161
2279.96	408.056
2280.09	411.409
2280.23	411.224
2280.37	413.567
2280.5	410.536
2280.64	421.53
2280.78	409.172
2280.91	411.883
2281.05	409.374
2281.19	413.669
2281.32	410.716
2281.46	410.488
2281.59	408.834
2281.73	414.972
2281.87	413.89
2282	412.688
2282.14	414.236
2282.28	411.887
2282.41	410.552
2282.55	429.518
2282.69	408.196
2282.82	413.686
2282.96	412.551
2283.1	416.682
2283.23	415.259
2283.37	415.676
2283.51	413.142
2283.64	417.098
2283.78	415.136
2283.92	408.685
2284.05	407.3
2284.19	414.743
2284.32	410.311
2284.46	415.006
2284.6	415.767
2284.73	414.438
2284.87	413.431
2285.01	412.087
2285.14	412.028
2285.28	411.612
2285.42	415.827
2285.55	408.853
2285.69	408.631
2285.83	410.607
2285.96	416.027
2286.1	409.46
2286.23	413.253
2286.37	411.053
2286.51	411.768
2286.64	413.357
2286.78	419.502
2286.92	414.164
2287.05	410.215
2287.19	411.045
2287.33	412.855
2287.46	410.195
2287.6	414.646
2287.73	407.094
2287.87	406.682
2288.01	415.662
2288.14	411.017
2288.28	412.732
2288.42	412.589
2288.55	414.871
2288.69	414.078
2288.82	411.447
2288.96	414.293
2289.1	410.101
2289.23	417.594
2289.37	411.438
2289.51	414.078
2289.64	415.107
2289.78	413.086
2289.91	411.565
2290.05	408.544
2290.19	411.729
2290.32	414.061
2290.46	414.728
2290.6	414.164
2290.73	413.338
2290.87	417.731
2291	413.174
2291.14	414.207
2291.28	412.989
2291.41	409.552
2291.55	411.928
2291.68	409.878
2291.82	412.478
2291.96	413.184
2292.09	418.513
2292.23	415.004
2292.36	408.98
2292.5	411.372
2292.64	412.398
2292.77	410.949
2292.91	411.58
2293.05	415.843
2293.18	411.789
2293.32	415.47
2293.45	415.732
2293.59	420.708
2293.73	416.682
2293.86	417.002
2294	411.831
2294.13	410.224
2294.27	412.463
2294.41	414.253
2294.54	409.754
2294.68	413.064
2294.81	409.939
2294.95	418.358
2295.09	414.348
2295.22	414.368
2295.36	410.433
2295.49	411.158
2295.63	410.473
2295.77	417.981
2295.9	415.528
2296.04	413.394
2296.17	411.039
2296.31	411.339
2296.45	411.352
2296.58	414.983
2296.72	410.975
2296.85	414.036
2296.99	411.518
2297.13	410.136
2297.26	413.473
2297.4	412.616
2297.53	411.437
2297.67	412.455
2297.8	414.375
2297.94	412.603
2298.08	415.778
2298.21	410.324
2298.35	412.364
2298.48	411.319
2298.62	410.443
2298.75	418.592
2298.89	412.084
2299.03	415.536
2299.16	415.457
2299.3	410.407
2299.44	409.645
2299.57	415.738
2299.71	411.527
2299.84	416.626
2299.98	414.978
2300.11	410.981
2300.25	411.698
2300.39	411.808
2300.52	416.495
2300.66	418.371
2300.79	413.087
2300.93	415.889
2301.06	412.145
2301.2	419.207
2301.33	411.932
2301.47	409.953
2301.61	407.9
2301.74	416.19
2301.88	416.999
2302.01	416.523
2302.15	413.927
2302.28	410.655
2302.42	411.038
2302.56	413.768
2302.69	408.187
2302.83	414.746
2302.96	416.787
2303.1	414.785
2303.23	413.237
2303.37	411.835
2303.51	414.648
2303.64	413.967
2303.78	410.909
2303.91	412.121
2304.05	411.336
2304.18	411.093
2304.32	413.251
2304.46	412.922
2304.59	414.948
2304.73	411.637
2304.86	409.869
2305	418.999
2305.13	413.725
2305.27	415.974
2305.4	410.963
2305.54	414.333
2305.68	418.849
2305.81	417.58
2305.95	415.626
2306.08	412.761
2306.22	415.675
2306.35	413.364
2306.49	415.136
2306.62	411.89
2306.76	417.084
2306.89	411.988
2307.03	412.857
2307.17	414.824
2307.3	415.481
2307.44	410.419
2307.57	414.315
2307.71	409.733
2307.84	409.39
2307.98	413.967
2308.11	417.654
2308.25	411.287
2308.38	412.199
2308.52	414.514
2308.66	409.879
2308.79	411.737
2308.93	411.327
2309.06	411.632
2309.2	411.4
2309.33	416.31
2309.47	436.41
2309.6	413.669
2309.74	413.978
2309.87	415.84
2310.01	414.392
2310.14	418.009
2310.28	414.927
2310.42	412.237
2310.55	413.206
2310.69	416.479
2310.82	411.465
2310.96	415.416
2311.09	414.006
2311.23	414.812
2311.36	416.892
2311.5	415.702
2311.63	416.956
2311.77	407.811
2311.9	413.027
2312.04	413.585
2312.17	413.992
2312.31	413.813
2312.44	418.384
2312.58	411.794
2312.72	414.223
2312.85	415.398
2312.99	413.669
2313.12	412.107
2313.26	410.24
2313.39	409.565
2313.53	414.107
2313.66	413.483
2313.8	421.741
2313.93	416.14
2314.07	416.285
2314.2	412.051
2314.34	418.529
2314.47	418.011
2314.61	416.311
2314.74	415.84
2314.88	411.091
2315.01	419.096
2315.15	416.673
2315.28	420.634
2315.42	414.466
2315.55	416.7
2315.69	411.75
2315.82	414.93
2315.96	413.877
2316.09	412.258
2316.23	417.322
2316.36	411.626
2316.5	412.228
2316.63	415.636
2316.77	413.68
2316.9	413.601
2317.04	413.009
2317.18	414.618
2317.31	419.144
2317.44	413.221
2317.58	414.374
2317.71	414.162
2317.85	414.56
2317.98	415.813
2318.12	415.695
2318.26	417.009
2318.39	417.043
2318.52	414.162
2318.66	411.073
2318.79	415.624
2318.93	415.867
2319.06	413.657
2319.2	416.176
2319.33	413.125
2319.47	414.49
2319.6	418.582
2319.74	415.372
2319.87	418.008
2320.01	411.124
2320.14	412.57
2320.28	408.58
2320.41	418.26
2320.55	416.254
2320.68	413.062
2320.82	422.469
2320.95	411.601
2321.09	414.225
2321.22	417.38
2321.36	411.287
2321.49	414.387
2321.63	419.337
2321.76	422.637
2321.9	418.176
2322.03	417.999
2322.17	416.552
2322.3	423.049
2322.44	417.039
2322.57	414.638
2322.71	417.573
2322.84	415.113
2322.98	417.072
2323.11	421.451
2323.25	416.848
2323.38	411.977
2323.52	418.637
2323.65	417.307
2323.78	417.628
2323.92	414.672
2324.05	418.131
2324.19	416.98
2324.32	419.563
2324.46	417.686
2324.59	413.76
2324.73	415.76
2324.86	415.038
2325	420.71
2325.13	419.492
2325.27	420.347
2325.4	419.086
2325.54	415.868
2325.67	417.912
2325.8	418.704
2325.94	416.817
2326.07	416.696
2326.21	419.442
2326.34	421.136
2326.48	417.267
2326.61	413.752
2326.75	420.718
2326.88	416.805
2327.02	416.61
2327.15	417.325
2327.29	418.397
2327.42	421.414
2327.56	420.662
2327.69	418.015
2327.82	411.259
2327.96	414.069
2328.09	422.95
2328.23	424.393
2328.36	415.226
2328.5	421.617
2328.63	421.356
2328.77	414.941
2328.9	419.809
2329.04	414.762
2329.17	415.073
2329.31	415.209
2329.44	419.645
2329.57	418.7
2329.71	423.131
2329.84	415.38
2329.98	416.71
2330.11	416.573
2330.25	420.735
2330.38	420.708
2330.52	419.745
2330.65	418.635
2330.78	416.436
2330.92	420.468
2331.05	411.595
2331.19	418.801
2331.32	417.592
2331.46	417.481
2331.59	419.133
2331.73	418.279
2331.86	415.148
2331.99	414.554
2332.13	417.195
2332.26	414.194
2332.4	415.867
2332.53	418.754
2332.67	416.214
2332.8	416.368
2332.94	417.711
2333.07	418.649
2333.2	417.664
2333.34	420.342
2333.47	417.732
2333.61	420.729
2333.74	420.209
2333.88	418.636
2334.01	416.986
2334.14	421.464
2334.28	422.77
2334.41	420.73
2334.55	421.706
2334.68	421.281
2334.82	419.446
2334.95	429.901
2335.08	417.395
2335.22	417.409
2335.35	422.146
2335.49	422.175
2335.62	417.399
2335.76	417.671
2335.89	419.337
2336.02	418.729
2336.16	418.048
2336.29	422.078
2336.43	426.507
2336.56	422.449
2336.7	422.993
2336.83	423.475
2336.96	419.192
2337.1	417.616
2337.23	418.772
2337.37	417.847
2337.5	421.974
2337.63	424.559
2337.77	423.643
2337.9	424.051
2338.04	432.006
2338.17	417.355
2338.3	417.918
2338.44	425.903
2338.57	423.568
2338.71	422.109
2338.84	427.113
2338.98	421.102
2339.11	421.91
2339.24	432.395
2339.38	423.359
2339.51	428.887
2339.65	431.793
2339.78	431.714
2339.91	433.176
2340.05	422.82
2340.18	423.285
2340.32	421.038
2340.45	425.804
2340.58	423.607
2340.72	430.05
2340.85	425.224
2340.99	420.61
2341.12	423.212
2341.25	426.627
2341.39	430.78
2341.52	421.252
2341.66	425.474
2341.79	421.004
2341.92	420.435
2342.06	426.076
2342.19	424.302
2342.33	420.206
2342.46	423.818
2342.59	424.696
2342.73	421.738
2342.86	422.102
2343	420.978
2343.13	420.271
2343.26	420.203
2343.4	423.976
2343.53	421.614
2343.67	420.083
2343.8	426.559
2343.93	424.142
2344.07	418.708
2344.2	424.074
2344.33	420.07
2344.47	426.285
2344.6	423.946
2344.74	423.785
2344.87	422.439
2345	426.337
2345.14	425.189
2345.27	422.973
2345.41	427.066
2345.54	420.638
2345.67	425.15
2345.81	423.486
2345.94	424.865
2346.07	426.771
2346.21	424.239
2346.34	422.584
2346.48	421.313
2346.61	424.009
2346.74	422.512
2346.88	426.494
2347.01	420.846
2347.14	427.346
2347.28	421.476
2347.41	425.373
2347.55	423.015
2347.68	422.085
2347.81	424.003
2347.95	421.606
2348.08	426.179
2348.22	422.847
2348.35	424.842
2348.48	422.3
2348.62	421.594
2348.75	422.306
2348.88	424.137
2349.02	424.646
2349.15	420.778
2349.29	424.708
2349.42	424.196
2349.55	423.644
2349.69	425.063
2349.82	424.7
2349.95	421.505
2350.09	421.234
2350.22	422.753
2350.35	423.156
2350.49	425.28
2350.62	429.513
2350.75	422.18
2350.89	421.016
2351.02	422.947
2351.16	424.256
2351.29	424.072
2351.42	422.675
2351.56	426.588
2351.69	424.798
2351.82	425.164
2351.96	421.322
2352.09	423.503
2352.22	419.783
2352.36	423.374
2352.49	426.054
2352.62	421.848
2352.76	421.469
2352.89	426.927
2353.02	422.102
2353.16	423.39
2353.29	420.922
2353.43	422.284
2353.56	422.635
2353.69	423.254
2353.83	423.751
2353.96	422.661
2354.09	430.114
2354.23	422.172
2354.36	423.491
2354.49	425.293
2354.63	420.258
2354.76	424.843
2354.89	425.236
2355.03	426.798
2355.04	426.949
2355.17	424.135
2355.31	424.423
2355.44	426.086
2355.58	427.344
2355.72	424.055
2355.85	423.489
2355.99	420.8
2356.12	427.422
2356.26	423.486
2356.4	427.822
2356.53	421.908
2356.67	423.017
2356.8	431.413
2356.94	422.215
2357.07	423.751
2357.21	419.902
2357.35	425.967
2357.48	423.922
2357.62	431.531
2357.75	424.065
2357.89	428.302
2358.03	424.998
2358.16	424.628
2358.3	426.846
2358.43	424.321
2358.57	427.98
2358.7	426.866
2358.84	427.146
2358.98	421.11
2359.11	428.83
2359.25	420.501
2359.38	422.715
2359.52	424.4
2359.65	426.015
2359.79	427.031
2359.93	427.312
2360.06	422.504
2360.2	424.072
2360.33	427.717
2360.47	418.298
2360.6	420.545
2360.74	424.481
2360.88	422.285
2361.01	420.883
2361.15	424.114
2361.28	423.032
2361.42	424.517
2361.55	424.371
2361.69	425.05
2361.83	424.758
2361.96	427.77
2362.1	428.139
2362.23	430.248
2362.37	422.467
2362.5	426.448
2362.64	425.806
2362.77	425.168
2362.91	424.974
2363.04	424.012
2363.18	422.285
2363.32	425.54
2363.45	424.105
2363.59	431.951
2363.72	430.914
2363.86	426.199
2363.99	428.046
2364.13	423.025
2364.26	425.045
2364.4	427.798
2364.54	440.057
2364.67	427.147
2364.81	423.709
2364.94	421.582
2365.08	424.132
2365.21	419.771
2365.35	424.285
2365.48	427.024
2365.62	423.53
2365.76	430.581
2365.89	423.227
2366.03	425.264
2366.16	427.835
2366.3	432.362
2366.43	427.823
2366.57	424.98
2366.7	427.825
2366.84	426.474
2366.97	424.995
2367.11	427.249
2367.24	426.452
2367.38	428.295
2367.52	429.846
2367.65	429.12
2367.79	426.786
2367.92	423.495
2368.06	434.466
2368.19	426.7
2368.33	423.252
2368.46	426.113
2368.6	422.432
2368.73	429.883
2368.87	429.141
2369	425.299
2369.14	425.897
2369.27	425.848
2369.41	428.724
2369.54	426.769
2369.68	424.057
2369.82	424.708
2369.95	421.89
2370.09	427.097
2370.22	428.983
2370.36	425.301
2370.49	429.144
2370.63	427.47
2370.76	429.39
2370.9	430.482
2371.03	426.747
2371.17	425.213
2371.3	433.25
2371.44	423.524
2371.57	430.938
2371.71	426.289
2371.84	423.934
2371.98	428.072
2372.11	425.56
2372.25	431.757
2372.38	427.123
2372.52	428.619
2372.66	432.078
2372.79	430.548
2372.92	426.777
2373.06	430.946
2373.2	428.159
2373.33	425.451
2373.47	428.629
2373.6	428.989
2373.74	434.639
2373.87	429.01
2374.01	429.848
2374.14	429.064
2374.28	425.853
2374.41	430.563
2374.55	424.658
2374.68	427.796
2374.82	427.28
2374.95	428.936
2375.09	427.981
2375.22	431.142
2375.36	429.543
2375.49	433.61
2375.63	429.421
2375.76	429.449
2375.9	427.819
2376.03	431.286
2376.17	431.958
2376.3	428.164
2376.44	431.211
2376.57	428.149
2376.71	433.295
2376.84	430.008
2376.98	427.152
2377.11	433.637
2377.25	429.266
2377.38	424.942
2377.52	428.888
2377.65	428.836
2377.79	429.536
2377.92	426.125
2378.06	431.842
2378.19	427.056
2378.33	432.034
2378.46	428.474
2378.6	439.414
2378.73	424.749
2378.86	429.324
2379	431.864
2379.14	427.927
2379.27	426.241
2379.41	428.902
2379.54	427.836
2379.67	429.591
2379.81	428.054
2379.94	429.913
