#Acq. time (s)=	45
#Accumulations=	2
#Range (cm-¹)=	100...4000
#Windows=	1
#Auto scanning=	Off
#Autofocus=	Off
#Macrospot=	Off
#AutoExposure=	Off
#Spike filter=	Multiple accum.
#Delay time (s)=	2
#Binning=	1
#Readout mode=	Signal
#DeNoise=	Off
#ICS correction=	On
#Dark correction=	Off
#Inst. Process=	Off
#Detector Gain=	Best Dynamic
#Detector ADC=	50 kHz EM
#Detector EM gain=	100
#Detector temperature (°C)=	-60.09
#Instrument=	LabRAM HR Evol
#Detector=	SIN-EM FIVIS
#Objective=	x100_VIS_LWD
#Grating=	150 (500nm)
#ND Filter=	100%
#Laser=	633nm_Edge
#Hole=	49.98
#Temperature=	0
#Range=	Visible
#StageXY=	75x50mm Scan+
#StageZ=	Z motor
#X (µm)=	0
#Y (µm)=	0
#Z (µm)=	16.6
#Full time(mm:ss)=	1:34
#Project=	21_11_22
#Sample=	BU04w
#Site=	
#Title=	BU04w-A-FF3-FI05-L_150 (500nm)_633nm_Edge_100%_x100_VIS_LWD_H50um_45sX2
#Remark=	
#Date=	22.11.2021 11:45
#Acquired=	22.11.2021 11:45:51
100.177	1852.9
103.438	1803.01
106.695	1729.43
109.954	1696.93
113.209	1611.83
116.464	1680.41
119.717	1626.46
122.969	1544.9
126.219	1563.5
129.469	1526.74
132.716	1563.36
135.963	1582.73
139.208	1582.69
142.452	1723.41
145.694	1555.21
148.936	1511.3
152.175	1490.51
155.414	1570.42
158.651	1667.56
161.887	1844.38
165.121	1939.81
168.353	1852
171.586	1588.56
174.815	1334.46
178.045	1165.49
181.272	1122.03
184.5	1023.71
187.724	1059.42
190.947	1049.92
194.17	988.901
197.39	992.981
200.611	994.456
203.829	963.948
207.045	901.768
210.262	895.855
213.475	927.142
216.688	933.666
219.9	951.569
223.11	1024.7
226.32	1157.61
229.527	1288.04
232.733	1525.13
235.939	1860.97
239.142	1825.88
242.344	1597.99
245.546	1271.14
248.745	1125.53
251.943	1061.56
255.141	1076.36
258.336	1115
261.53	1068.28
264.723	1052.9
267.916	1001.56
271.106	975.891
274.294	989.144
277.483	1004.33
280.669	1054.48
283.854	1085.57
287.038	1060.67
290.221	1042.3
293.402	971.745
296.582	907.91
299.76	887.663
302.938	952.523
306.114	926.511
309.288	1026.25
312.461	1046.58
315.634	1235.93
318.805	1499.7
321.974	1977.87
325.142	2552.17
328.309	2943.24
331.475	2687.46
334.639	2218.4
337.802	1751.31
340.963	1469.17
344.123	1224.77
347.282	1081.16
350.441	1015.91
353.597	1015.53
356.752	980.259
359.906	1040.03
363.058	1131.7
366.209	1131.1
369.36	1102.34
372.509	1028.53
375.656	965.041
378.802	918.589
381.947	861.842
385.09	866.352
388.232	775.553
391.373	798.412
394.512	854.33
397.652	830.62
400.789	874.985
403.925	890.928
407.059	898.498
410.192	957.932
413.324	964.405
416.455	1024.5
419.584	1057.49
422.712	1203.56
425.839	1335.84
428.964	1458.24
432.089	1691.65
435.212	1730.22
438.333	1668.77
441.454	1472.04
444.573	1301.04
447.691	1259.78
450.807	1222.28
453.923	1232.75
457.037	1295.66
460.15	1310.21
463.261	1141.39
466.371	1001.09
469.48	914.889
472.588	850.422
475.695	828.084
478.8	836.617
481.904	851.563
485.007	835.763
488.108	877.733
491.208	846.129
494.307	849.061
497.405	875.21
500.502	922.893
503.597	994.958
506.691	1080.06
509.784	1108.37
512.874	1212.41
515.964	1208.24
519.053	1215.56
522.141	1145.51
525.227	1080.1
528.312	1037.23
531.396	1032.9
534.479	986.431
537.559	984.971
540.639	941.793
543.718	939.874
546.796	934.898
549.873	849.248
552.948	780.762
556.022	796.116
559.093	765.756
562.165	809.594
565.235	758.059
568.304	713.916
571.372	764.721
574.437	716.6
577.503	706.018
580.567	675.861
583.63	680.583
586.691	678.785
589.75	687.434
592.81	756.001
595.868	842.24
598.924	886.896
601.98	919.96
605.033	895.467
608.086	870.96
611.138	824.18
614.188	782.986
617.236	830.085
620.285	836.888
623.332	786.589
626.376	767.288
629.42	763.388
632.464	736.558
635.506	739.538
638.545	745.979
641.585	738.035
644.623	740.066
647.659	693.458
650.695	733.299
653.73	769.013
656.762	831.745
659.794	825.016
662.825	808.917
665.854	800.454
668.883	670.728
671.91	661.937
674.935	612.717
677.96	612.691
680.982	577.238
684.005	556.018
687.027	553.521
690.045	565.26
693.064	533.159
696.082	559.989
699.097	564.356
702.113	573.391
705.126	574.882
708.139	537.727
711.149	546.457
714.16	542.376
717.169	545.084
720.176	522.309
723.183	508.146
726.187	535.971
729.192	553.322
732.194	537.835
735.196	522.374
738.196	511.607
741.196	527.055
744.193	538.766
747.19	528.157
750.185	510.115
753.18	525.869
756.173	496.791
759.165	523.096
762.155	518.873
765.146	512.974
768.133	515.583
771.121	502.257
774.107	495.495
777.092	517.744
780.075	510.768
783.058	525.312
786.039	530.364
789.02	485.424
791.998	499.772
794.975	519.689
797.952	502.726
800.927	525.223
803.902	516.523
806.874	521.877
809.845	515.93
812.817	535.23
815.786	508.384
818.755	532.212
821.721	536.275
824.686	539.353
827.652	537.736
830.615	532.586
833.576	530.627
836.538	512.93
839.498	531.914
842.458	514.718
845.415	554.447
848.37	550.314
851.327	534.975
854.28	540.318
857.233	554.191
860.184	524.799
863.135	564.206
866.084	544.2
869.032	573.326
871.98	599.519
874.925	609.44
877.87	616.377
880.813	585.336
883.756	626.288
886.697	624.421
889.636	634.781
892.576	627.972
895.513	598.35
898.45	609.259
901.385	651.162
904.318	608.776
907.253	602.364
910.184	613.8
913.114	638.428
916.044	643.27
918.973	634.366
921.9	659.397
924.826	704.447
927.75	718.628
930.674	737.043
933.596	807.986
936.519	888.157
939.439	951.961
942.357	1005.68
945.275	1136.33
948.192	1296.18
951.107	1402.39
954.023	1457.4
956.936	1496.16
959.848	1438.16
962.759	1308.04
965.669	1293.07
968.577	1176.48
971.485	1209.93
974.391	1208.57
977.296	1389.09
980.201	1493.06
983.104	1611.99
986.006	1854.14
988.907	1940.69
991.806	2026.01
994.704	1865.46
997.602	1736.91
1000.5	1592.55
1003.39	1543.91
1006.29	1453.73
1009.18	1429.73
1012.07	1471.42
1014.96	1486.47
1017.85	1699
1020.74	1868.07
1023.63	1986.47
1026.51	2066.35
1029.4	1875.37
1032.28	1650.4
1035.16	1343.4
1038.04	1146.28
1040.92	1037.2
1043.8	995.336
1046.68	908.96
1049.56	869.424
1052.43	837.414
1055.31	787.767
1058.18	742.721
1061.05	770.27
1063.93	732.56
1066.8	721.668
1069.67	705.068
1072.53	735.058
1075.4	764.947
1078.26	823.814
1081.13	835.056
1083.99	910.274
1086.85	997.052
1089.72	1054.95
1092.58	1207.61
1095.44	1342.82
1098.29	1642.33
1101.15	1733.75
1104	1512.94
1106.86	1244.67
1109.71	1044.31
1112.56	938.624
1115.42	838.306
1118.27	766.87
1121.11	733.837
1123.96	686.914
1126.81	722.762
1129.65	733.484
1132.5	755.895
1135.34	809.748
1138.18	854.81
1141.03	924.662
1143.87	1027.79
1146.7	1150.37
1149.54	1384.57
1152.38	1772.12
1155.21	2025.42
1158.05	1842.94
1160.88	1344.2
1163.71	1070.51
1166.55	843.642
1169.37	729.041
1172.2	712.656
1175.03	661.992
1177.86	623.127
1180.68	615.768
1183.51	573.348
1186.33	547.855
1189.15	559.593
1191.98	563.562
1194.8	501.389
1197.61	531.046
1200.43	531.663
1203.25	504.067
1206.06	525.534
1208.88	509.817
1211.69	493.985
1214.51	508.872
1217.32	492.189
1220.13	477.468
1222.94	512.459
1225.74	500.731
1228.55	486.912
1231.36	490.976
1234.16	471.86
1236.97	484.774
1239.77	473.421
1242.57	494.12
1245.37	475.369
1248.17	479.687
1250.97	476.779
1253.77	474.897
1256.56	502.078
1259.36	490.759
1262.15	515.619
1264.94	496.114
1267.74	509.903
1270.53	480.275
1273.32	495.868
1276.11	480.272
1278.89	497.785
1281.68	477.191
1284.46	475.746
1287.25	490.382
1290.03	472.058
1292.81	466.83
1295.59	464.729
1298.38	473.686
1301.15	448.706
1303.93	466.883
1306.71	482.212
1309.48	449.66
1312.26	446.331
1315.03	468.121
1317.81	478.945
1320.58	469.701
1323.35	471.583
1326.12	459.375
1328.88	465.372
1331.65	437.873
1334.42	469.183
1337.18	468.978
1339.95	429.899
1342.71	461.095
1345.47	441.121
1348.23	446.672
1350.99	453.239
1353.75	459.765
1356.51	458.004
1359.26	467.471
1362.02	473.78
1364.77	472.79
1367.53	478.908
1370.28	484.995
1373.03	502.356
1375.78	549.526
1378.53	540.174
1381.28	541.08
1384.03	534.791
1386.77	462.828
1389.52	484.263
1392.26	481.201
1395	445.381
1397.74	470.436
1400.49	440.939
1403.23	443.303
1405.96	458.063
1408.7	471.854
1411.44	457.862
1414.17	455.24
1416.91	483.668
1419.64	415.922
1422.37	437.143
1425.11	448.08
1427.84	454.873
1430.56	435.724
1433.29	439.398
1436.02	469.147
1438.74	437.375
1441.47	462.95
1444.19	442.661
1446.92	446.303
1449.64	458.219
1452.36	436.465
1455.08	445.072
1457.8	453.583
1460.52	436.839
1463.23	449.433
1465.95	473.532
1468.66	433.564
1471.38	440.854
1474.09	443.97
1476.8	473.387
1479.51	440.948
1482.22	451.54
1484.93	455.893
1487.64	449.794
1490.34	464.782
1493.05	423.024
1495.75	447.63
1498.46	438.542
1501.16	446.394
1503.86	468.008
1506.56	451.645
1509.26	448.024
1511.96	434.85
1514.65	446.139
1517.35	448.978
1520.05	471.049
1522.74	447.283
1525.43	436.332
1528.13	438.132
1530.82	455.028
1533.51	475.284
1536.2	463.176
1538.88	465.967
1541.57	457.971
1544.25	459.482
1546.94	459.695
1549.62	444.613
1552.31	455.345
1554.99	478.852
1557.67	481.738
1560.35	469.628
1563.03	462.933
1565.71	465.934
1568.38	460.298
1571.06	474.055
1573.73	456.586
1576.41	460.721
1579.08	462.871
1581.75	462.876
1584.42	469.384
1587.09	441.472
1589.76	476.052
1592.43	473.007
1595.09	444.145
1597.76	467.101
1600.42	478.219
1603.09	467.85
1605.75	463.991
1608.41	481.904
1611.07	496.694
1613.73	481.24
1616.39	462.53
1619.05	478.695
1621.7	478.526
1624.36	476.152
1627.01	472.662
1629.67	460.363
1632.32	467.789
1634.97	518.105
1637.62	512.153
1640.27	473.724
1642.92	482.932
1645.57	513.188
1648.22	480.335
1650.86	483.938
1653.51	470.9
1656.15	462.2
1658.79	474.497
1661.43	506.726
1664.07	509.016
1666.71	514.581
1669.35	480.217
1671.99	486.875
1674.63	492.423
1677.26	470.167
1679.9	461.29
1682.53	487.742
1685.16	467.572
1687.79	457.392
1690.43	464.981
1693.05	475.963
1695.68	463.813
1698.31	495.007
1700.94	462.248
1703.56	470.278
1706.19	485.804
1708.81	480.177
1711.44	469.392
1714.06	477.195
1716.68	480.988
1719.3	480.781
1721.92	459.954
1724.53	478.151
1727.15	479.779
1729.77	466.81
1732.38	478.53
1735	472.263
1737.61	477.217
1740.22	458.524
1742.83	491.663
1745.44	469.559
1748.05	471.055
1750.66	453.285
1753.27	463.732
1755.87	473.024
1758.48	477.688
1761.08	480.024
1763.69	471.045
1766.29	466.621
1768.89	462.219
1771.49	468.028
1774.09	464.784
1776.69	476.347
1779.29	451.685
1781.88	440.672
1784.48	481.953
1787.07	478.976
1789.66	470.406
1792.26	460.661
1794.85	471.464
1797.44	472.03
1800.03	462.387
1802.62	469.891
1805.21	455.634
1807.79	473.446
1810.38	465.901
1812.96	468.705
1815.55	488.806
1818.13	469.736
1820.71	484.081
1823.29	470.752
1825.87	475.918
1828.45	501.971
1831.03	474.729
1833.61	471.804
1836.18	466.622
1838.76	470.592
1841.33	474.535
1843.91	469.124
1846.48	499.892
1849.05	462.881
1851.62	491.346
1854.19	450.608
1856.76	484.942
1859.33	458.383
1861.89	485.836
1864.46	472.199
1867.02	480.975
1869.59	477.891
1872.15	484.154
1874.71	480.932
1877.27	470.644
1879.83	433.142
1882.39	475.929
1884.95	478.505
1887.51	482.291
1890.06	487.074
1892.62	479.997
1895.17	490.643
1897.73	483.623
1900.28	499.174
1902.83	466.427
1905.38	464.513
1907.93	463.78
1910.48	490.535
1913.03	463.945
1915.57	483.823
1918.12	514.371
1920.66	465.515
1923.21	485.043
1925.75	491.497
1928.29	490.781
1930.83	475.679
1933.37	478.524
1935.91	490.935
1938.45	476.904
1940.99	492.859
1943.53	488.348
1946.06	483.791
1948.6	474.395
1951.13	491.408
1953.66	485.501
1956.19	469.928
1958.73	495.301
1961.26	497.764
1963.78	448.37
1966.31	480.915
1968.84	489.263
1971.36	481.904
1973.89	490.191
1976.41	493.673
1978.94	482.705
1981.46	476.544
1983.98	477.619
1986.5	481.113
1989.02	456.969
1991.54	485.745
1994.06	495.3
1996.58	467.614
1999.09	480.841
2001.61	462.839
2004.12	482.148
2006.63	488.299
2009.15	484.838
2011.66	479.036
2014.17	481.631
2016.68	493.879
2019.19	481.944
2021.69	484.518
2024.2	498.042
2026.71	511.629
2029.21	510.79
2031.72	484.643
2034.22	500.844
2036.72	490.418
2039.22	489.685
2041.72	470.764
2044.22	488.258
2046.72	480.281
2049.22	479.603
2051.71	513.021
2054.21	492.594
2056.71	496.775
2059.2	502.216
2061.69	489.321
2064.18	513.137
2066.68	490.438
2069.17	494.636
2071.66	524.647
2074.14	485.848
2076.63	513.422
2079.12	494.201
2081.6	506.989
2084.09	501.226
2086.57	501.582
2089.06	482.102
2091.54	528.297
2094.02	506.521
2096.5	498.433
2098.98	496.522
2101.46	533.159
2103.93	503.971
2106.41	505.884
2108.89	504.091
2111.36	493.578
2113.84	550.661
2116.31	506.394
2118.78	526.013
2121.25	511.731
2123.72	521.309
2126.19	509.459
2128.66	508.91
2131.13	514.647
2133.59	522.891
2136.06	493.091
2138.53	526.646
2140.99	524.68
2143.45	540.512
2145.92	516.846
2148.38	514.744
2150.84	524.033
2153.3	520.549
2155.76	525.948
2158.21	513.434
2160.67	509.806
2163.13	502.29
2165.58	511.333
2168.04	510.107
2170.49	503.824
2172.94	527.052
2175.39	497.818
2177.84	492.847
2180.29	491.597
2182.74	519.78
2185.19	540.179
2187.64	513.31
2190.08	510.818
2192.53	504.549
2194.98	518.78
2197.42	511.34
2199.86	519.344
2202.3	509.45
2204.74	522.709
2207.18	509.04
2209.62	528.857
2212.06	521.704
2214.5	513.252
2216.93	522.923
2219.37	505.485
2221.81	521.665
2224.24	527.514
2226.67	522.993
2229.11	509.366
2231.54	530.83
2233.97	518.478
2236.4	524.35
2238.83	504.116
2241.25	509.97
2243.68	515.863
2246.1	512.597
2248.53	531.631
2250.96	533.613
2253.38	502.68
2255.8	540.19
2258.22	535.631
2260.64	494.045
2263.06	531.656
2265.48	514.998
2267.9	522.108
2270.32	506.625
2272.73	537.523
2275.15	528.568
2277.56	520.902
2279.98	531.782
2282.39	518.653
2284.8	513.432
2287.21	521.462
2289.62	521.549
2292.03	520.276
2294.44	525.653
2296.85	509.79
2299.26	529.964
2301.66	534.184
2304.07	521.176
2306.47	517.58
2308.88	532.727
2311.28	530.604
2313.68	517.793
2316.08	538.511
2318.48	523.117
2320.88	530.488
2323.28	504.246
2325.68	523.786
2328.07	540.676
2330.47	558.982
2332.86	530.084
2335.26	549.857
2337.65	515.454
2340.04	571.968
2342.43	537.557
2344.82	594.377
2347.21	549.094
2349.6	544.557
2351.99	550.99
2354.38	547.748
2356.76	569.124
2359.15	547.862
2361.53	557.957
2363.92	553.055
2366.3	560.566
2368.68	548.735
2371.06	546.538
2373.44	526.312
2375.82	554.562
2378.2	549.569
2380.58	541.634
2382.95	536.446
2385.33	543.641
2387.71	524.412
2390.08	549.627
2392.45	538.586
2394.83	547.025
2397.2	548.402
2399.57	549.787
2401.94	531.706
2404.31	545.546
2406.68	514.886
2409.04	553.983
2411.41	553.019
2413.78	527.143
2416.14	553.391
2418.51	536.853
2420.87	537.865
2423.23	576.332
2425.59	549.883
2427.95	536.475
2430.31	523.053
2432.67	529.407
2435.03	535.838
2437.39	547.999
2439.75	541.731
2442.1	552.476
2444.46	534.806
2446.81	544.154
2449.16	540.697
2451.52	561.519
2453.87	593.805
2456.22	543.078
2458.57	559.664
2460.92	561.906
2463.27	569.925
2465.61	569.282
2467.96	554.179
2470.3	563.572
2472.65	554.146
2474.99	533.126
2477.34	555.603
2479.68	550.52
2482.02	562.834
2484.36	556.214
2486.7	550.953
2489.04	577.793
2491.38	544.781
2493.72	559.95
2496.05	583.985
2498.39	581.631
2500.72	563.124
2503.06	535.752
2505.39	564.129
2507.72	558.705
2510.06	548.822
2512.39	575.696
2514.72	579.002
2517.04	582.306
2519.37	579.795
2521.7	569.942
2524.03	557.098
2526.35	544.194
2528.68	565.334
2531	568.723
2533.33	566.266
2535.65	560.863
2537.97	553.989
2540.29	557.525
2542.61	568.515
2544.93	552.72
2547.25	568.275
2549.57	550.972
2551.88	588.956
2554.2	579.116
2556.51	549.693
2558.83	568.164
2561.14	577.792
2563.46	558.891
2565.77	589.683
2568.08	587.402
2570.39	564.056
2572.7	575.37
2575.01	568.538
2577.31	607.056
2579.62	574.363
2581.93	590.079
2584.23	584.41
2586.54	593.906
2588.84	589.662
2591.15	588.261
2593.45	602.29
2595.75	566.17
2598.05	586.476
2600.35	589.941
2602.65	591.852
2604.95	572.369
2607.24	606.292
2609.54	553.154
2611.84	573.205
2614.13	559.674
2616.42	575.187
2618.72	572.411
2621.01	586.422
2623.3	597.427
2625.59	577.831
2627.88	621.113
2630.17	600.155
2632.46	603.868
2634.75	586.12
2637.04	597.74
2639.32	606.436
2641.61	596.54
2643.89	603.697
2646.18	593.865
2648.46	579.242
2650.74	595.685
2653.02	604.419
2655.3	576.969
2657.58	616.509
2659.86	598.283
2662.14	598.739
2664.42	603.821
2666.69	613.55
2668.97	585.896
2671.24	578.578
2673.52	637.397
2675.79	586.519
2678.06	620.925
2680.33	613.116
2682.61	573.326
2684.88	603.202
2687.15	604.58
2689.41	601.133
2691.68	637.414
2693.95	611.402
2696.22	606.884
2698.48	604.351
2700.74	617.868
2703.01	586.376
2705.27	619.093
2707.53	635.777
2709.8	613.776
2712.06	615.908
2714.32	595.507
2716.57	628.588
2718.83	638.856
2721.09	600.638
2723.35	612.503
2725.6	622.645
2727.86	616.563
2730.11	628.259
2732.37	587.866
2734.62	606.026
2736.87	628.979
2739.12	622.661
2741.37	636.044
2743.62	636.424
2745.87	617.332
2748.12	627.614
2750.37	613.56
2752.61	604.836
2754.86	617.047
2757.1	629.136
2759.35	624.739
2761.59	643.185
2763.83	612.557
2766.08	631.25
2768.32	622.039
2770.56	642.31
2772.8	616.607
2775.04	635.491
2777.27	611.558
2779.51	635.574
2781.75	635.034
2783.98	651.025
2786.22	628.854
2788.45	651.56
2790.68	619.23
2792.92	648.617
2795.15	637.879
2797.38	608.538
2799.61	636.202
2801.84	645.361
2804.07	666.265
2806.3	626.525
2808.52	637.25
2810.75	629.406
2812.98	624.898
2815.2	640.554
2817.42	646.1
2819.65	656.755
2821.87	642.033
2824.09	657.84
2826.31	658.402
2828.53	647.041
2830.75	650.936
2832.97	642.907
2835.19	633.131
2837.41	652.317
2839.62	623.81
2841.84	653.261
2844.05	646.934
2846.27	666.318
2848.48	649.816
2850.69	672.717
2852.9	644.356
2855.12	665.756
2857.33	671.753
2859.54	648.49
2861.74	670.049
2863.95	665.862
2866.16	656.553
2868.37	666.239
2870.57	655.138
2872.78	650.928
2874.98	660.636
2877.18	646.014
2879.39	666.27
2881.59	660.428
2883.79	666.857
2885.99	654.053
2888.19	669.243
2890.39	661.58
2892.59	659.153
2894.78	631.995
2896.98	661.488
2899.18	678.687
2901.37	676.359
2903.57	688.088
2905.76	683.794
2907.95	670.55
2910.15	673.301
2912.34	690.155
2914.53	658.708
2916.72	666.582
2918.91	670.987
2921.09	668.228
2923.28	679.857
2925.47	677.199
2927.65	672.774
2929.84	664.728
2932.02	696.487
2934.21	684.694
2936.39	674.607
2938.57	684.354
2940.75	681.338
2942.94	683.812
2945.12	671.653
2947.29	695.763
2949.47	701.725
2951.65	684.011
2953.83	684.502
2956	708.732
2958.18	689.109
2960.36	689.607
2962.53	680.983
2964.7	716.326
2966.88	713.287
2969.05	726.777
2971.22	701.729
2973.39	711.584
2975.56	682.809
2977.73	696.344
2979.9	720.966
2982.06	714.344
2984.23	700.409
2986.4	712.383
2988.56	711.472
2990.73	738.417
2992.89	728.337
2995.05	708.872
2997.21	722.986
2999.38	716.65
3001.54	727.153
3003.7	726.506
3005.86	727.754
3008.01	725.216
3010.17	728.287
3012.33	759.488
3014.49	766.444
3016.64	714.844
3018.8	750.261
3020.95	768.707
3023.1	749.09
3025.26	771.18
3027.41	751.25
3029.56	771.309
3031.71	795.187
3033.86	746.287
3036.01	731.674
3038.16	762.921
3040.31	786.882
3042.45	766.532
3044.6	759.537
3046.74	775.598
3048.89	791.673
3051.03	786.558
3053.18	762.136
3055.32	778.293
3057.46	790.615
3059.6	773.897
3061.74	848.159
3063.88	817.892
3066.02	810.859
3068.16	797.974
3070.3	775.353
3072.43	830.489
3074.57	811.785
3076.7	824.232
3078.84	854.263
3080.97	829.674
3083.1	842.164
3085.24	860.729
3087.37	840.185
3089.5	870.73
3091.63	897.513
3093.76	869.386
3095.89	849.154
3098.02	882.115
3100.14	830.173
3102.27	869.206
3104.4	922.343
3106.52	904.195
3108.65	949.708
3110.77	905.701
3112.89	927.509
3115.01	915.263
3117.14	876.943
3119.26	912.848
3121.38	914.779
3123.5	945.005
3125.62	947.092
3127.73	935.053
3129.85	986.066
3131.97	955.91
3134.08	1017.49
3136.2	944.171
3138.31	1014.14
3140.43	995.834
3142.54	981.488
3144.65	956.646
3146.76	1033.07
3148.87	1014.35
3150.98	1045.22
3153.09	1048.89
3155.2	1029.65
3157.31	1102.12
3159.42	1145.55
3161.52	1082.36
3163.63	1046.24
3165.73	1043.47
3167.84	1088.98
3169.94	1130.31
3172.05	1100.45
3174.15	1169.36
3176.25	1138.83
3178.35	1141.95
3180.45	1113.22
3182.55	1128.83
3184.65	1125.33
3186.75	1202.36
3188.84	1145.5
3190.94	1258.88
3193.04	1247.18
3195.13	1188.74
3197.23	1156.04
3199.32	1223.82
3201.41	1142.83
3203.51	1249.65
3205.6	1159.77
3207.69	1183.61
3209.78	1194.58
3211.87	1242.31
3213.96	1171.44
3216.05	1210.87
3218.13	1172.18
3220.22	1215.81
3222.31	1176.85
3224.39	1205.39
3226.48	1159.72
3228.56	1229.98
3230.64	1137.86
3232.73	1135.73
3234.81	1137.68
3236.89	1177.21
3238.97	1188.29
3241.05	1204.02
3243.13	1164.26
3245.21	1064.55
3247.29	1088.81
3249.36	1146.78
3251.44	1072.28
3253.52	1098.47
3255.59	1119.89
3257.66	1141.39
3259.74	1102.8
3261.81	1104.61
3263.88	1097.57
3265.95	1084.02
3268.03	1076.22
3270.1	1079.84
3272.17	1009.85
3274.23	1038.66
3276.3	1069.26
3278.37	1084.15
3280.44	1044.02
3282.5	1072.59
3284.57	1066.8
3286.63	1028.84
3288.7	1062.02
3290.76	1044.62
3292.82	1047.86
3294.88	1076.44
3296.94	989.696
3299	1059.88
3301.06	1014.89
3303.12	1006.56
3305.18	1053.89
3307.24	1036.38
3309.3	1095.37
3311.35	1061.5
3313.41	1076.31
3315.46	1030.83
3317.52	1055.02
3319.57	1037.48
3321.63	1038.58
3323.68	1028.22
3325.73	1050.52
3327.78	1044.94
3329.83	1051
3331.88	1003.51
3333.93	1066.59
3335.98	1004.76
3338.02	1077.43
3340.07	1059.9
3342.12	997.189
3344.16	1069.32
3346.21	1096.53
3348.25	1066.42
3350.3	1029.43
3352.34	1092.19
3354.38	1078.82
3356.42	1006.16
3358.46	1047.86
3360.5	1072.92
3362.54	1059.83
3364.58	1041.79
3366.62	1045.27
3368.66	1048.78
3370.69	1097.98
3372.73	1089.39
3374.76	1034.97
3376.8	1009.25
3378.83	1031.66
3380.87	1058.91
3382.9	1025.81
3384.93	1111
3386.96	1034.35
3388.99	1061.54
3391.02	1081.44
3393.05	1036.03
3395.08	1022.17
3397.11	1042.33
3399.14	1050.4
3401.16	1097.2
3403.19	1039.43
3405.21	1039.9
3407.24	1037.99
3409.26	1019.03
3411.29	1068.03
3413.31	1085.5
3415.33	1051.83
3417.35	1110.73
3419.37	1081.91
3421.39	1077.42
3423.41	1143.6
3425.43	1102.56
3427.45	1105.55
3429.46	1096.4
3431.48	1101.97
3433.5	1009.8
3435.51	1076.64
3437.53	1082.44
3439.54	1054
3441.55	1054.95
3443.57	1078.1
3445.58	1042.47
3447.59	1073.37
3449.6	1069.77
3451.61	1071.1
3453.62	1065.2
3455.63	1042.07
3457.64	1085.98
3459.64	1063.02
3461.65	1072.35
3463.66	1041.84
3465.66	1043.69
3467.67	1028.02
3469.67	1034.76
3471.67	1059.05
3473.68	1082.81
3475.68	1056.81
3477.68	1050.85
3479.68	1027.21
3481.68	1089.4
3483.68	1015.05
3485.68	1011.43
3487.68	1028.07
3489.67	1044.72
3491.67	1043.6
3493.67	1024.57
3495.66	1028.32
3497.66	1014.14
3499.65	1081.7
3501.64	1069.95
3503.64	1019.59
3505.63	1058.91
3507.62	1057.03
3509.61	1011.3
3511.6	1045.01
3513.59	1019.67
3515.58	1032.83
3517.57	1027.98
3519.56	1023.14
3521.54	1041.42
3523.53	961.998
3525.52	1018.98
3527.5	1009.1
3529.49	978.376
3531.47	1063.94
3533.45	1008.1
3535.43	1001.33
3537.42	1015.38
3539.4	980.443
3541.38	955.552
3543.36	1016.06
3545.34	1024.7
3547.32	986.573
3549.29	974.269
3551.27	1011.17
3553.25	1000.74
3555.22	993.329
3557.2	980.822
3559.17	973.584
3561.15	963.801
3563.12	985.371
3565.09	952.263
3567.07	968.85
3569.04	970.059
3571.01	918.65
3572.98	1011.3
3574.95	957.364
3576.92	984.804
3578.88	1001.91
3580.85	1013.88
3582.82	957.367
3584.79	993.141
3586.75	999.907
3588.72	980.176
3590.68	955.074
3592.64	961.772
3594.61	979.128
3596.57	967.233
3598.53	992.583
3600.49	969.778
3602.45	957.643
3604.41	953.478
3606.37	981.384
3608.33	936.817
3610.29	940.445
3612.25	1003.26
3614.2	966.679
3616.16	943.296
3618.12	952.323
3620.07	926.098
3622.02	950.933
3623.98	951.273
3625.93	959.685
3627.88	951.888
3629.84	941.322
3631.79	957.669
3633.74	949.759
3635.69	923.008
3637.64	923.453
3639.58	959.289
3641.53	922.168
3643.48	936.641
3645.43	913.115
3647.37	927.856
3649.32	963.288
3651.26	925.716
3653.21	923.529
3655.15	896.683
3657.09	932.548
3659.03	913.857
3660.98	933.341
3662.92	909.078
3664.86	925.859
3666.8	940.006
3668.74	888.569
3670.67	940.957
3672.61	897.632
3674.55	920.191
3676.49	918.198
3678.42	919.057
3680.36	941.975
3682.29	918.316
3684.23	933.248
3686.16	915.26
3688.09	930.338
3690.02	917.829
3691.96	905.31
3693.89	920.341
3695.82	938.078
3697.75	928.273
3699.68	923.939
3701.61	900.138
3703.53	901.19
3705.46	927.61
3707.39	942.906
3709.31	907.794
3711.24	934.28
3713.16	935.551
3715.09	919.793
3717.01	926.456
3718.93	935.891
3720.86	936.84
3722.78	937.744
3724.7	938.587
3726.62	953.525
3728.54	926.04
3730.46	946.695
3732.38	919.255
3734.29	937.169
3736.21	946.597
3738.13	896.246
3740.04	911.264
3741.96	934.797
3743.87	924.147
3745.79	930.557
3747.7	936.923
3749.62	943.233
3751.53	932.308
3753.44	921.31
3755.35	941.718
3757.26	942.03
3759.17	933.703
3761.08	919.598
3762.99	937.012
3764.9	934.334
3766.81	946.02
3768.71	940.61
3770.62	938.124
3772.52	944.288
3774.43	927.468
3776.33	962.341
3778.24	951.347
3780.14	934.672
3782.04	932.448
3783.95	918.789
3785.85	942.573
3787.75	917.298
3789.65	935.222
3791.55	944.531
3793.45	945.299
3795.34	920.136
3797.24	973.192
3799.14	950.975
3801.04	934.555
3802.93	932.646
3804.83	933.693
3806.72	946.431
3808.62	956.276
3810.51	957.324
3812.4	946.618
3814.29	944.65
3816.19	954.367
3818.08	940.666
3819.97	929.831
3821.86	933.614
3823.75	963.793
3825.64	943.92
3827.52	950.572
3829.41	960.232
3831.3	925.773
3833.18	959.122
3835.07	974.763
3836.95	972.635
3838.84	952.701
3840.72	947.694
3842.61	954.607
3844.49	958.237
3846.37	949.806
3848.25	970.84
3850.13	959.318
3852.01	962.623
3853.89	944.956
3855.77	963.061
3857.65	951.217
3859.53	942.264
3861.41	972.134
3863.28	951.551
3865.16	931.452
3867.03	950.341
3868.91	963.565
3870.78	964.492
3872.66	955.656
3874.53	946.987
3876.4	974.181
3878.27	971.487
3880.14	944.887
3882.01	969.145
3883.89	972.523
3885.75	972.959
3887.62	961.456
3889.49	952.965
3891.36	953.521
3893.23	945.223
3895.09	958.221
3896.96	958.971
3898.82	983.768
3900.69	969.5
3902.55	964.222
3904.42	955.821
3906.28	965.608
3908.14	981.303
3910	963.916
3911.87	967.796
3913.73	956.486
3915.59	969.498
3917.45	970.483
3919.3	965.489
3921.16	963.652
3923.02	970.921
3924.88	984.229
3926.73	991.414
3928.59	955.808
3930.45	978.179
3932.3	1006.58
3934.15	970.568
3936.01	974.354
3937.86	993.411
3939.71	994.27
3941.56	976.77
3943.42	977.849
3945.27	997.235
3947.12	970.471
3948.97	989.836
3950.81	968.99
3952.66	969.684
3954.51	979.589
3956.36	977.141
3958.2	974.565
3960.05	984.234
3961.9	990.816
3963.74	972.612
3965.58	1000.78
3967.43	976.178
3969.27	994.854
3971.11	1010.5
3972.96	985.87
3974.8	995.355
3976.64	1004.81
3978.48	995.607
3980.32	983.193
3982.16	970.716
3984	973.779
3985.83	998.585
3987.67	989.218
3989.51	976.841
3991.34	998.682
3993.18	1002.02
3995.01	999.223
3996.85	1002.77
3998.68	987.726
