#Acq. time (s)=	45
#Accumulations=	2
#Range (cm-¹)=	100...4000
#Windows=	1
#Auto scanning=	Off
#Autofocus=	Off
#Macrospot=	Off
#AutoExposure=	Off
#Spike filter=	Multiple accum.
#Delay time (s)=	2
#Binning=	1
#Readout mode=	Signal
#DeNoise=	Off
#ICS correction=	On
#Dark correction=	Off
#Inst. Process=	Off
#Detector Gain=	Best Dynamic
#Detector ADC=	50 kHz HS
#Detector temperature (°C)=	-60.28
#Instrument=	LabRAM HR Evol
#Detector=	SIN-EM FIVIS
#Objective=	x100_VIS_LWD
#Grating=	150 (500nm)
#ND Filter=	100%
#Laser=	633nm_Edge
#Hole=	49.98
#Temperature=	0
#Range=	Visible
#StageXY=	75x50mm Scan+
#StageZ=	Z motor
#X (µm)=	0
#Y (µm)=	0
#Z (µm)=	5.5
#Full time(mm:ss)=	1:34
#Project=	21_11_22
#Sample=	BU04w
#Site=	
#Title=	BU04w-A-FF3-FI02-V_150 (500nm)_633nm_Edge_100%_x100_VIS_LWD_H50um_45sX2
#Remark=	
#Date=	22.11.2021 10:43
#Acquired=	22.11.2021 10:43:28
100.177	515.172
103.438	465.769
106.695	432.595
109.954	415.642
113.209	355.691
116.464	340.573
119.717	329.21
122.969	317.87
126.219	299.79
129.469	292.243
132.716	284.639
135.963	293.293
139.208	282.759
142.452	272.244
145.694	267.495
148.936	255.073
152.175	243.631
155.414	243.703
158.651	244.723
161.887	281.208
165.121	324.42
168.353	309.146
171.586	255.492
174.815	223.848
178.045	183.546
181.272	182.534
184.5	176.684
187.724	163.172
190.947	154.428
194.17	160.995
197.39	150.379
200.611	145.542
203.829	141.729
207.045	143.615
210.262	146.447
213.475	147.37
216.688	153.068
219.9	149.219
223.11	163.476
226.32	158.636
229.527	188.97
232.733	230.72
235.939	281
239.142	316.036
242.344	276.94
245.546	228.482
248.745	192.337
251.943	174.236
255.141	178.918
258.336	178.875
261.53	191.17
264.723	189.238
267.916	167.4
271.106	170.236
274.294	173.077
277.483	159.801
280.669	186.336
283.854	185.353
287.038	208.058
290.221	188.088
293.402	172.849
296.582	178.458
299.76	152.833
302.938	168.843
306.114	164.976
309.288	167.735
312.461	191.275
315.634	199.694
318.805	243.972
321.974	315.647
325.142	424.103
328.309	525.915
331.475	535.322
334.639	440.003
337.802	344.698
340.963	281.481
344.123	215.442
347.282	197.475
350.441	191.779
353.597	180.403
356.752	174.676
359.906	177.417
363.058	182.972
366.209	199.8
369.36	203.458
372.509	187.39
375.656	175.078
378.802	165.609
381.947	161.771
385.09	142.986
388.232	143.951
391.373	144.953
394.512	142.232
397.652	152.687
400.789	156.65
403.925	169.992
407.059	157.921
410.192	164.689
413.324	161.049
416.455	170.592
419.584	182.081
422.712	192.55
425.839	223.744
428.964	228.233
432.089	265.736
435.212	305.028
438.333	297.121
441.454	267.601
444.573	253.162
447.691	213.403
450.807	224.319
453.923	224.009
457.037	205.046
460.15	229.1
463.261	200.023
466.371	189.684
469.48	167.233
472.588	162.54
475.695	152.297
478.8	144.871
481.904	156.989
485.007	144.884
488.108	149.55
491.208	162.61
494.307	165.432
497.405	154.257
500.502	159.875
503.597	178.57
506.691	175.813
509.784	190.792
512.874	219.801
515.964	199.351
519.053	192.004
522.141	205.256
525.227	182.044
528.312	189.737
531.396	182.469
534.479	176.148
537.559	173.569
540.639	163.401
543.718	161.673
546.796	154.244
549.873	141.07
552.948	150.582
556.022	144.963
559.093	148.713
562.165	137.291
565.235	145.672
568.304	127.62
571.372	138.741
574.437	126.321
577.503	134.547
580.567	126.841
583.63	124.805
586.691	133.983
589.75	131.051
592.81	138.429
595.868	141.15
598.924	158.84
601.98	164.512
605.033	158.106
608.086	152.628
611.138	155.585
614.188	150.142
617.236	144.75
620.285	157.151
623.332	152.713
626.376	146.397
629.42	142.782
632.464	141.936
635.506	146.681
638.545	136.276
641.585	139.03
644.623	131.348
647.659	129.376
650.695	130.208
653.73	138.497
656.762	143.938
659.794	155.92
662.825	166.927
665.854	159.25
668.883	137.597
671.91	138.447
674.935	117.041
677.96	121.699
680.982	107.708
684.005	118.947
687.027	107.811
690.045	105.11
693.064	111.776
696.082	107.222
699.097	110.153
702.113	106.514
705.126	98.1621
708.139	106.699
711.149	115.217
714.16	114.209
717.169	105.727
720.176	107.562
723.183	101.911
726.187	102.782
729.192	110.196
732.194	103.538
735.196	109.998
738.196	94.9326
741.196	104.196
744.193	105.045
747.19	102.179
750.185	98.3861
753.18	101.164
756.173	101.129
759.165	99.3044
762.155	105.921
765.146	99.5114
768.133	101.526
771.121	99.7955
774.107	103.697
777.092	104.77
780.075	99.2376
783.058	100.261
786.039	89.9641
789.02	104.154
791.998	95.711
794.975	107.993
797.952	100.451
800.927	105.139
803.902	100.383
806.874	109.745
809.845	98.3844
812.817	91.7134
815.786	95.3807
818.755	99.9657
821.721	97.0357
824.686	102.533
827.652	93.0517
830.615	94.8378
833.576	111.637
836.538	112.583
839.498	114.516
842.458	108.091
845.415	102.554
848.37	101.719
851.327	108.403
854.28	105.714
857.233	99.2652
860.184	107.881
863.135	105.199
866.084	111.958
869.032	114.003
871.98	109.391
874.925	121.793
877.87	114.267
880.813	119.059
883.756	108.651
886.697	112.453
889.636	121.927
892.576	115.255
895.513	116.161
898.45	117.967
901.385	118.78
904.318	113.909
907.253	117.546
910.184	116.443
913.114	108.759
916.044	112.384
918.973	119.825
921.9	131.973
924.826	123.513
927.75	129.165
930.674	140.546
933.596	139.681
936.519	150.224
939.439	163.692
942.357	178.169
945.275	203.118
948.192	217.769
951.107	245.775
954.023	260.523
956.936	260.016
959.848	249.886
962.759	239.695
965.669	219.823
968.577	218.133
971.485	206.773
974.391	233.747
977.296	227.995
980.201	240.367
983.104	260.354
986.006	309.981
988.907	331.745
991.806	334.321
994.704	321.582
997.602	296.487
1000.5	265.743
1003.39	272.259
1006.29	246.419
1009.18	245.437
1012.07	263.673
1014.96	267.621
1017.85	281.098
1020.74	303.227
1023.63	336.973
1026.51	349.816
1029.4	351.213
1032.28	317.127
1035.16	275.311
1038.04	215.107
1040.92	173.027
1043.8	170.395
1046.68	164.87
1049.56	154.424
1052.43	145.869
1055.31	141.158
1058.18	151.942
1061.05	132.587
1063.93	128.732
1066.8	123.839
1069.67	140.334
1072.53	135.457
1075.4	135.419
1078.26	142.154
1081.13	155.664
1083.99	156.559
1086.85	167.144
1089.72	175.824
1092.58	192.23
1095.44	216.381
1098.29	253.076
1101.15	287.829
1104	283.919
1106.86	258.903
1109.71	205.669
1112.56	175.81
1115.42	159.608
1118.27	154.054
1121.11	149.395
1123.96	131.05
1126.81	130.214
1129.65	128.433
1132.5	133.48
1135.34	129.736
1138.18	143.612
1141.03	150.675
1143.87	175.393
1146.7	179.438
1149.54	219.937
1152.38	258.434
1155.21	319.518
1158.05	337.183
1160.88	276.023
1163.71	209.875
1166.55	170.398
1169.37	139.823
1172.2	125.965
1175.03	112.127
1177.86	112.006
1180.68	111.913
1183.51	108.907
1186.33	111.817
1189.15	105.961
1191.98	109.88
1194.8	105.067
1197.61	102.2
1200.43	97.4226
1203.25	98.5578
1206.06	106.58
1208.88	86.1177
1211.69	98.1069
1214.51	96.3398
1217.32	85.6627
1220.13	93.8062
1222.94	100.999
1225.74	92.2662
1228.55	92.4833
1231.36	93.6862
1234.16	90.8582
1236.97	107.113
1239.77	101.231
1242.57	103.362
1245.37	99.4136
1248.17	94.4225
1250.97	96.4669
1253.77	102.558
1256.56	107.588
1259.36	111.582
1262.15	143.788
1264.94	122.516
1267.74	100.268
1270.53	108.238
1273.32	99.0731
1276.11	122.077
1278.89	234.34
1281.68	574.936
1284.46	405.135
1287.25	163.627
1290.03	116.514
1292.81	108.46
1295.59	95.4444
1298.38	107.429
1301.15	98.4355
1303.93	102.474
1306.71	97.5429
1309.48	96.6418
1312.26	101.804
1315.03	89.9074
1317.81	99.1095
1320.58	98.2744
1323.35	93.4078
1326.12	95.6188
1328.88	102.909
1331.65	94.991
1334.42	94.1419
1337.18	101.442
1339.95	102.624
1342.71	100.705
1345.47	92.6252
1348.23	103.985
1350.99	99.9792
1353.75	103.139
1356.51	100.124
1359.26	110.447
1362.02	110.48
1364.77	109.461
1367.53	103.284
1370.28	104.294
1373.03	109.409
1375.78	115.555
1378.53	126.828
1381.28	190.456
1384.03	695.434
1386.77	777.366
1389.52	261.112
1392.26	126.713
1395	99.0306
1397.74	113.5
1400.49	104.325
1403.23	118.797
1405.96	145.654
1408.7	130.326
1411.44	100.544
1414.17	96.5192
1416.91	98.6973
1419.64	88.4611
1422.37	89.604
1425.11	96.9804
1427.84	87.7552
1430.56	86.8328
1433.29	76.5303
1436.02	89.1379
1438.74	84.0302
1441.47	87.2604
1444.19	92.6135
1446.92	92.7179
1449.64	79.1661
1452.36	80.2633
1455.08	82.4013
1457.8	83.4719
1460.52	87.6828
1463.23	83.4811
1465.95	96.0714
1468.66	87.6576
1471.38	87.646
1474.09	85.5402
1476.8	90.7938
1479.51	84.515
1482.22	78.2319
1484.93	80.359
1487.64	87.752
1490.34	78.3399
1493.05	86.8147
1495.75	80.5734
1498.46	81.6995
1501.16	89.1733
1503.86	83.9879
1506.56	90.4348
1509.26	78.9073
1511.96	80.076
1514.65	80.1989
1517.35	80.3267
1520.05	78.3306
1522.74	82.7314
1525.43	90.3679
1528.13	87.305
1530.82	82.0983
1533.51	84.4113
1536.2	89.9422
1538.88	81.4363
1541.57	79.3888
1544.25	89.1935
1546.94	87.0716
1549.62	84.9199
1552.31	82.7409
1554.99	88.0958
1557.67	82.63
1560.35	85.8286
1563.03	87.9466
1565.71	84.6662
1568.38	79.2315
1571.06	81.3435
1573.73	88.8404
1576.41	80.1956
1579.08	78.0422
1581.75	89.8841
1584.42	78.0513
1587.09	90.9864
1589.76	84.5477
1592.43	82.4261
1595.09	82.4687
1597.76	82.5248
1600.42	76.1049
1603.09	85.8986
1605.75	78.4135
1608.41	87.1759
1611.07	88.3855
1613.73	90.7077
1616.39	84.3437
1619.05	82.3269
1621.7	86.8557
1624.36	90.3047
1627.01	84.9914
1629.67	87.348
1632.32	91.9068
1634.97	86.5345
1637.62	94.373
1640.27	92.2051
1642.92	82.3304
1645.57	81.2916
1648.22	93.5214
1650.86	78.0724
1653.51	82.546
1656.15	89.2256
1658.79	93.68
1661.43	87.0415
1664.07	84.8361
1666.71	74.8582
1669.35	88.1691
1671.99	90.3879
1674.63	83.7342
1677.26	91.483
1679.9	85.9375
1682.53	95.8856
1685.16	91.4093
1687.79	92.4752
1690.43	90.2284
1693.05	70.2875
1695.68	80.2541
1698.31	83.6086
1700.94	87.018
1703.56	86.1621
1706.19	93.0382
1708.81	88.777
1711.44	88.6382
1714.06	83.0631
1716.68	84.2566
1719.3	85.5343
1721.92	82.2545
1724.53	76.7058
1727.15	87.9969
1729.77	83.5994
1732.38	89.3032
1735	79.2728
1737.61	83.8507
1740.22	86.1845
1742.83	88.5218
1745.44	89.7354
1748.05	87.5462
1750.66	78.5618
1753.27	85.3946
1755.87	84.3068
1758.48	86.5951
1761.08	85.476
1763.69	86.6224
1766.29	80.9792
1768.89	79.8686
1771.49	76.4937
1774.09	86.722
1776.69	81.0924
1779.29	85.684
1781.88	74.3919
1784.48	89.2294
1787.07	79.0709
1789.66	90.5503
1792.26	81.5279
1794.85	94.1787
1797.44	88.5771
1800.03	84.1223
1802.62	80.7983
1805.21	82.06
1807.79	89.0583
1810.38	81.1014
1812.96	86.9464
1815.55	83.5812
1818.13	82.5212
1820.71	90.693
1823.29	86.1696
1825.87	89.7412
1828.45	86.3668
1831.03	82.9905
1833.61	84.2507
1836.18	84.3644
1838.76	78.6262
1841.33	96.1896
1843.91	90.4405
1846.48	83.51
1849.05	82.4068
1851.62	73.117
1854.19	88.3659
1856.76	83.7521
1859.33	90.856
1861.89	88.6005
1864.46	78.1125
1867.02	80.5545
1869.59	87.6918
1872.15	87.7603
1874.71	80.7447
1877.27	83.1589
1879.83	93.8278
1882.39	85.6199
1884.95	80.9324
1887.51	95.1578
1890.06	79.7997
1892.62	75.0734
1895.17	84.5324
1897.73	85.7278
1900.28	78.6612
1902.83	76.3567
1905.38	84.7263
1907.93	74.1337
1910.48	71.858
1913.03	86.2461
1915.57	79.2469
1918.12	92.4913
1920.66	84.1507
1923.21	83.0307
1925.75	93.8747
1928.29	85.5875
1930.83	79.6792
1933.37	88.1491
1935.91	84.6233
1938.45	97.9034
1940.99	85.9498
1943.53	93.2192
1946.06	87.2508
1948.6	82.4772
1951.13	99.3656
1953.66	89.7514
1956.19	86.1534
1958.73	88.5757
1961.26	77.738
1963.78	101.847
1966.31	87.3843
1968.84	88.5735
1971.36	92.1642
1973.89	86.1146
1976.41	86.0917
1978.94	83.6608
1981.46	83.6358
1983.98	75.1918
1986.5	85.9989
1989.02	88.3874
1991.54	83.5625
1994.06	88.3605
1996.58	91.96
1999.09	83.5461
2001.61	89.5624
2004.12	91.9808
2006.63	79.98
2009.15	82.4104
2011.66	78.8364
2014.17	93.316
2016.68	86.1277
2019.19	88.5572
2021.69	97.0241
2024.2	75.3696
2026.71	83.8636
2029.21	85.1316
2031.72	80.3709
2034.22	82.8691
2036.72	86.5801
2039.22	81.8161
2041.72	85.5383
2044.22	91.7002
2046.72	88.1529
2049.22	84.6
2051.71	84.6912
2054.21	98.1531
2056.71	82.389
2059.2	87.3685
2061.69	92.3593
2064.18	90.0134
2066.68	72.9526
2069.17	92.6675
2071.66	81.7073
2074.14	83.0247
2076.63	91.7265
2079.12	86.8857
2081.6	83.2646
2084.09	91.9737
2086.57	93.2744
2089.06	79.7322
2091.54	84.7502
2094.02	91.0252
2096.5	94.851
2098.98	82.5467
2101.46	83.8887
2103.93	92.7058
2106.41	77.8763
2108.89	91.7097
2111.36	85.5951
2113.84	98.2429
2116.31	78.3407
2118.78	88.5058
2121.25	97.4427
2123.72	90.0328
2126.19	101.513
2128.66	87.7649
2131.13	90.411
2133.59	95.5891
2136.06	89.3649
2138.53	94.5424
2140.99	76.86
2143.45	98.5639
2145.92	93.567
2148.38	86.003
2150.84	80.9637
2153.3	96.3271
2155.76	101.488
2158.21	84.9337
2160.67	92.634
2163.13	86.2712
2165.58	99.0708
2168.04	86.2963
2170.49	93.9875
2172.94	91.4665
2175.39	90.2215
2177.84	90.2487
2180.29	90.2541
2182.74	90.2574
2185.19	91.5232
2187.64	97.9257
2190.08	88.9772
2192.53	82.5974
2194.98	94.1489
2197.42	101.884
2199.86	87.8396
2202.3	85.3361
2204.74	95.6802
2207.18	97.0519
2209.62	95.8634
2212.06	98.5441
2214.5	84.4673
2216.93	98.7743
2219.37	88.5569
2221.81	88.6701
2224.24	91.3753
2226.67	87.5982
2229.11	90.3085
2231.54	90.4232
2233.97	91.8409
2236.4	95.87
2238.83	89.461
2241.25	89.5717
2243.68	81.831
2246.1	92.4248
2248.53	91.2305
2250.96	93.9738
2253.38	82.2448
2255.8	104.744
2258.22	86.4134
2260.64	94.4497
2263.06	94.5608
2265.48	89.3633
2267.9	89.4474
2270.32	90.8476
2272.73	90.9143
2275.15	90.9721
2277.56	89.6961
2279.98	93.7266
2282.39	93.7565
2284.8	87.1238
2287.21	93.7834
2289.62	89.8076
2292.03	87.1561
2294.44	95.1499
2296.85	92.5076
2299.26	80.5598
2301.66	89.9188
2304.07	93.9715
2306.47	88.709
2308.88	88.7878
2311.28	99.5719
2313.68	97.0026
2316.08	91.7613
2318.48	83.8328
2320.88	90.6531
2323.28	104.211
2325.68	116.472
2328.07	128.765
2330.47	85.7376
2332.86	92.6294
2335.26	90.0627
2337.65	82.0657
2340.04	94.4223
2342.43	90.5001
2344.82	96.109
2347.21	94.9304
2349.6	97.8287
2351.99	93.8877
2354.38	99.5281
2356.76	90.0426
2359.15	87.4101
2361.53	97.1259
2363.92	77.9242
2366.3	93.1976
2368.68	86.3878
2371.06	97.5467
2373.44	90.7196
2375.82	99.1279
2378.2	90.9009
2380.58	100.688
2382.95	95.1983
2385.33	98.0222
2387.71	96.6755
2390.08	93.9237
2392.45	98.1145
2394.83	100.914
2397.2	86.9926
2399.57	91.1672
2401.94	92.5614
2404.31	93.9396
2406.68	93.9319
2409.04	91.1705
2411.41	98.2062
2413.78	98.3164
2416.14	99.9179
2418.51	97.4185
2420.87	103.22
2423.23	96.2896
2425.59	93.5222
2427.95	96.4529
2430.31	93.7548
2432.67	89.6462
2435.03	89.7776
2437.39	88.5011
2439.75	107.07
2442.1	102.968
2444.46	96.009
2446.81	110.398
2449.16	90.5918
2451.52	92.1577
2453.87	96.5827
2456.22	93.8564
2458.57	92.5599
2460.92	101.316
2463.27	92.8288
2465.61	105.93
2467.96	91.6416
2470.3	91.7611
2472.65	104.897
2474.99	93.4419
2477.34	103.722
2479.68	106.763
2482.02	99.623
2484.36	104.108
2486.7	98.3845
2489.04	92.6512
2491.38	102.968
2493.72	95.7617
2496.05	109.04
2498.39	95.9617
2500.72	97.5202
2503.06	100.545
2505.39	96.2252
2507.72	94.8329
2510.06	96.3749
2512.39	106.747
2514.72	96.5004
2517.04	102.456
2519.37	98.1079
2521.7	99.6661
2524.03	98.2679
2526.35	95.3818
2528.68	101.375
2531	98.4897
2533.33	101.543
2535.65	94.219
2537.97	113.62
2540.29	104.815
2542.61	97.481
2544.93	97.5826
2547.25	96.204
2549.57	105.267
2551.88	100.9
2554.2	109.987
2556.51	90.617
2558.83	90.6963
2561.14	93.7974
2563.46	96.9045
2565.77	106.053
2568.08	100.16
2570.39	100.293
2572.7	109.486
2575.01	100.553
2577.31	84.019
2579.62	105.325
2581.93	103.908
2584.23	97.9077
2586.54	110.123
2588.84	101.063
2591.15	99.5636
2593.45	110.268
2595.75	85.9909
2598.05	105.87
2600.35	101.372
2602.65	98.3878
2604.95	107.605
2607.24	101.558
2609.54	106.199
2611.84	104.705
2614.13	103.219
2616.42	110.907
2618.72	92.596
2621.01	100.289
2623.3	109.528
2625.59	108.056
2627.88	100.452
2630.17	95.9327
2632.46	109.864
2634.75	103.84
2637.04	113.232
2639.32	111.874
2641.61	101.226
2643.89	104.486
2646.18	106.214
2648.46	117.246
2650.74	108.094
2653.02	105.15
2655.3	109.936
2657.58	105.353
2659.86	107.004
2662.14	105.522
2664.42	100.898
2666.69	89.9978
2668.97	119.842
2671.24	99.5656
2673.52	98.1214
2675.79	114.002
2678.06	111.105
2680.33	94.0217
2682.61	108.489
2684.88	100.798
2687.15	97.8464
2689.41	110.819
2691.68	112.626
2693.95	108.036
2696.22	119.295
2698.48	114.618
2700.74	113.142
2703.01	113.259
2705.27	98.8941
2707.53	102.207
2709.8	115.184
2712.06	105.607
2714.32	107.32
2716.57	117.153
2718.83	109.172
2721.09	112.518
2723.35	122.339
2725.6	115.935
2727.86	94.9183
2730.11	111.203
2732.37	111.24
2734.62	116.169
2736.87	104.83
2739.12	109.738
2741.37	114.683
2743.62	116.379
2745.87	106.689
2748.12	110.036
2750.37	105.252
2752.61	105.438
2754.86	115.389
2757.1	117.144
2759.35	112.322
2761.59	114.034
2763.83	115.778
2766.08	109.318
2768.32	107.787
2770.56	122.698
2772.8	116.232
2775.04	121.321
2777.27	106.61
2779.51	105.101
2781.75	110.26
2783.98	113.763
2786.22	108.968
2788.45	122.48
2790.68	109.325
2792.92	114.511
2795.15	111.336
2797.38	108.129
2799.61	113.308
2801.84	116.804
2804.07	123.663
2806.3	118.737
2808.52	117.166
2810.75	115.588
2812.98	115.69
2815.2	119.153
2817.42	107.401
2819.65	115.948
2821.87	124.51
2824.09	119.53
2826.31	133.208
2828.53	119.728
2830.75	121.519
2832.97	128.411
2835.19	118.286
2837.41	106.449
2839.62	116.751
2841.84	118.542
2844.05	122.047
2846.27	117.033
2848.48	117.138
2850.69	117.255
2852.9	124.244
2855.12	124.4
2857.33	117.686
2859.54	126.43
2861.74	116.268
2863.95	116.44
2866.16	118.352
2868.37	127.191
2870.57	122.189
2872.78	117.167
2874.98	120.827
2877.18	126.243
2879.39	124.708
2881.59	126.669
2883.79	121.644
2885.99	111.347
2888.19	129.106
2890.39	132.844
2892.59	127.777
2894.78	108.569
2896.98	121.155
2899.18	121.384
2901.37	112.727
2903.57	141.351
2905.76	120.198
2907.95	127.512
2910.15	118.765
2912.34	126.052
2914.53	120.823
2916.72	131.704
2918.91	124.689
2921.09	103.288
2923.28	130.396
2925.47	128.776
2927.65	121.749
2929.84	130.959
2932.02	136.584
2934.21	131.324
2936.39	116.968
2938.57	135.237
2940.75	117.19
2942.94	130.033
2945.12	124.684
2947.29	128.407
2949.47	126.675
2951.65	123.122
2953.83	123.21
2956	126.951
2958.18	134.349
2960.36	125.3
2962.53	114.412
2964.7	125.495
2966.88	136.606
2969.05	133.059
2971.22	140.53
2973.39	136.985
2975.56	133.433
2977.73	135.4
2979.9	128.151
2982.06	130.132
2984.23	132.135
2986.4	126.749
2988.56	115.799
2990.73	140.077
2992.89	142.137
2995.05	133.03
2997.21	131.367
2999.38	129.706
3001.54	139.262
3003.7	137.624
3005.86	132.234
3008.01	138.092
3010.17	123.263
3012.33	140.402
3014.49	134.977
3016.64	150.344
3018.8	127.885
3020.95	143.302
3023.1	156.853
3025.26	139.955
3027.41	132.517
3029.56	142.234
3031.71	138.584
3033.86	125.338
3036.01	142.696
3038.16	140.891
3040.31	129.548
3042.45	143.124
3044.6	147.1
3046.74	127.983
3048.89	147.355
3051.03	143.624
3053.18	134.097
3055.32	145.809
3057.46	136.28
3059.6	146.073
3061.74	146.201
3063.88	148.267
3066.02	154.218
3068.16	152.411
3070.3	150.601
3072.43	156.568
3074.57	152.818
3076.7	147.115
3078.84	155.055
3080.97	143.485
3083.1	161.203
3085.24	159.43
3087.37	151.782
3089.5	140.219
3091.63	158.096
3093.76	140.636
3095.89	162.541
3098.02	162.806
3100.14	157.14
3102.27	155.427
3104.4	161.658
3106.52	169.909
3108.65	160.276
3110.77	170.567
3112.89	156.917
3115.01	153.211
3117.14	179.603
3119.26	165.881
3121.38	172.277
3123.5	174.664
3125.62	183.145
3127.73	183.563
3129.85	161.633
3131.97	182.418
3134.08	168.56
3136.2	168.968
3138.31	177.577
3140.43	171.802
3142.54	178.359
3144.65	155.997
3146.76	197.711
3148.87	187.728
3150.98	206.758
3153.09	184.181
3155.2	178.208
3157.31	188.905
3159.42	170.369
3161.52	199.932
3163.63	198.136
3165.73	198.406
3167.84	192.358
3169.94	194.699
3172.05	192.894
3174.15	207.91
3176.25	201.778
3178.35	195.612
3180.45	206.348
3182.55	212.846
3184.65	212.986
3186.75	217.358
3188.84	211.07
3190.94	209.106
3193.04	219.904
3195.13	222.224
3197.23	235.253
3199.32	201.482
3201.41	212.546
3203.51	212.911
3205.6	217.59
3207.69	213.738
3209.78	231.382
3211.87	208.13
3213.96	221.537
3216.05	222.03
3218.13	215.985
3220.22	205.535
3222.31	221.204
3224.39	206.357
3226.48	204.592
3228.56	215.959
3230.64	205.386
3232.73	223.404
3234.81	214.968
3236.89	197.675
3238.97	211.326
3241.05	213.975
3243.13	183.305
3245.21	208.232
3247.29	195.227
3249.36	209.014
3251.44	189.159
3253.52	196.155
3255.59	185.153
3257.66	207.832
3259.74	194.678
3261.81	204.015
3263.88	199.867
3265.95	186.706
3268.03	187.318
3270.1	198.918
3272.17	199.463
3274.23	202.025
3276.3	199.915
3278.37	184.123
3280.44	191.175
3282.5	209.706
3284.57	166.33
3286.63	191.759
3288.7	178.153
3290.76	180.623
3292.82	192.3
3294.88	203.993
3296.94	197.247
3299	176.647
3301.06	188.413
3303.12	186.271
3305.18	184.142
3307.24	188.96
3309.3	175.213
3311.35	184.659
3313.41	182.484
3315.46	178.011
3317.52	199.125
3319.57	185.347
3321.63	197.214
3323.68	188.118
3325.73	186.005
3327.78	186.261
3329.83	193.544
3331.88	191.537
3333.93	198.955
3335.98	187.508
3338.02	192.567
3340.07	185.719
3342.12	176.462
3344.16	181.382
3346.21	183.941
3348.25	193.57
3350.3	189.007
3352.34	210.585
3354.38	203.618
3356.42	194.317
3358.46	192.148
3360.5	201.919
3362.54	214.12
3364.58	188.002
3366.62	173.812
3368.66	202.797
3370.69	186.2
3372.73	200.803
3374.76	186.535
3376.8	193.9
3378.83	186.807
3380.87	198.997
3382.9	201.542
3384.93	187.18
3386.96	189.711
3388.99	172.894
3391.02	199.595
3393.05	194.86
3395.08	199.832
3397.11	199.982
3399.14	197.707
3401.16	195.408
3403.19	202.785
3405.21	190.729
3407.24	188.395
3409.26	198.212
3411.29	198.279
3413.31	198.358
3415.33	205.74
3417.35	183.904
3419.37	191.284
3421.39	215.727
3423.41	198.729
3425.43	181.727
3427.45	191.58
3429.46	194.128
3431.48	211.353
3433.5	196.826
3435.51	223.893
3437.53	187.345
3439.54	202.22
3441.55	190.135
3443.57	197.692
3445.58	200.38
3447.59	190.794
3449.6	203.355
3451.61	203.609
3453.62	184.123
3455.63	179.453
3457.64	184.715
3459.64	204.905
3461.65	185.36
3463.66	190.672
3465.66	198.5
3467.67	193.849
3469.67	199.186
3471.67	191.984
3473.68	189.679
3475.68	195.006
3477.68	192.782
3479.68	203.17
3481.68	223.694
3483.68	196.175
3485.68	201.525
3487.68	178.96
3489.67	209.706
3491.67	209.992
3493.67	187.327
3495.66	190.098
3497.66	200.53
3499.65	193.069
3501.64	183.018
3503.64	188.291
3505.63	198.706
3507.62	196.268
3509.61	193.789
3511.6	201.555
3513.59	188.78
3515.58	193.977
3517.57	188.892
3519.56	194.089
3521.54	204.428
3523.53	183.911
3525.52	189.129
3527.5	191.78
3529.49	207.261
3531.47	186.769
3533.45	184.347
3535.43	200.008
3537.42	189.9
3539.4	190.139
3541.38	182.565
3543.36	193.103
3545.34	203.644
3547.32	193.42
3549.29	198.751
3551.27	178.059
3553.25	178.054
3555.22	201.526
3557.2	170.408
3559.17	183.523
3561.15	191.458
3563.12	196.814
3565.09	196.975
3567.07	186.719
3569.04	189.567
3571.01	187.132
3572.98	205.665
3574.95	169.178
3576.92	198.274
3578.88	185.393
3580.85	188.291
3582.82	201.759
3584.79	183.573
3586.75	173.264
3588.72	184.114
3590.68	189.688
3592.64	176.679
3594.61	192.899
3596.57	201.174
3598.53	193.447
3600.49	183.002
3602.45	191.261
3604.41	167.394
3606.37	186.356
3608.33	183.874
3610.29	184.058
3612.25	178.865
3614.2	181.757
3616.16	190.007
3618.12	190.195
3620.07	171.45
3622.02	195.86
3623.98	182.417
3625.93	177.069
3627.88	171.718
3629.84	193.404
3631.79	177.196
3633.74	193.469
3635.69	171.88
3637.64	174.671
3639.58	161.236
3641.53	202.063
3643.48	188.686
3645.43	169.85
3647.37	175.504
3649.32	186.399
3651.26	181.059
3653.21	192.061
3655.15	164.892
3657.09	175.875
3659.03	162.312
3660.98	173.296
3662.92	184.273
3664.86	173.428
3666.8	189.914
3668.74	187.283
3670.67	184.635
3672.61	171.043
3674.55	160.212
3676.49	185.01
3678.42	182.44
3680.36	157.911
3682.29	180.089
3684.23	163.8
3686.16	164.03
3688.09	180.822
3690.02	156.197
3691.96	189.645
3693.89	184.345
3695.82	173.461
3697.75	184.821
3699.68	171.151
3701.61	182.536
3703.53	191.119
3705.46	157.861
3707.39	186.063
3709.31	172.313
3711.24	189.381
3713.16	184.02
3715.09	181.427
3717.01	175.998
3718.93	170.546
3720.86	184.828
3722.78	173.709
3724.7	171.038
3726.62	188.158
3728.54	174.163
3730.46	182.82
3732.38	177.325
3734.29	171.814
3736.21	154.923
3738.13	186.362
3740.04	166.59
3741.96	175.274
3743.87	172.565
3745.79	195.531
3747.7	187.099
3749.62	187.217
3751.53	164.441
3753.44	181.687
3755.35	184.622
3757.26	170.367
3759.17	187.6
3761.08	179.049
3762.99	164.765
3764.9	173.396
3766.81	193.504
3768.71	182.1
3770.62	185.043
3772.52	187.997
3774.43	185.206
3776.33	188.159
3778.24	168.138
3780.14	176.869
3782.04	191.382
3783.95	168.493
3785.85	177.273
3787.75	171.633
3789.65	157.314
3791.55	186.307
3793.45	177.786
3795.34	186.631
3797.24	195.507
3799.14	184.106
3801.04	184.299
3802.93	172.874
3804.83	184.703
3806.72	182.006
3808.62	193.879
3810.51	159.068
3812.4	188.447
3814.29	191.562
3816.19	180.042
3818.08	189.012
3819.97	183.326
3821.86	177.621
3823.75	171.896
3825.64	189.666
3827.52	186.877
3829.41	192.93
3831.3	190.167
3833.18	175.593
3835.07	172.799
3836.95	167.033
3838.84	190.836
3840.72	188.058
3842.61	182.324
3844.49	176.517
3846.37	191.445
3848.25	176.651
3850.13	185.627
3852.01	176.778
3853.89	167.893
3855.77	182.803
3857.65	167.949
3859.53	170.915
3861.41	150.131
3863.28	194.771
3865.16	162.186
3867.03	171.3
3868.91	174.516
3870.78	165.725
3872.66	192.624
3874.53	204.633
3876.4	183.779
3878.27	186.824
3880.14	186.884
3882.01	169.002
3883.89	187.024
3885.75	166.151
3887.62	190.194
3889.49	178.306
3891.36	181.409
3893.23	175.541
3895.09	190.743
3896.96	187.886
3898.82	166.97
3900.69	176.136
3902.55	191.338
3904.42	161.314
3906.28	176.525
3908.14	179.654
3910	170.725
3911.87	173.901
3913.73	183.125
3915.59	189.355
3917.45	189.548
3919.3	153.325
3921.16	183.915
3923.02	175.009
3924.88	199.588
3926.73	193.707
3928.59	166.427
3930.45	169.653
3932.3	166.743
3934.15	172.988
3936.01	160.86
3937.86	176.3
3939.71	182.59
3941.56	167.402
3943.42	164.512
3945.27	180.056
3947.12	174.069
3948.97	164.973
3950.81	174.356
3952.66	177.57
3954.51	183.866
3956.36	180.895
3958.2	184.085
3960.05	165.586
3961.9	174.941
3963.74	162.618
3965.58	171.96
3967.43	168.894
3969.27	178.206
3971.11	165.833
3972.96	181.363
3974.8	175.195
3976.64	169.019
3978.48	178.341
3980.32	165.933
3982.16	175.225
3984	169.016
3985.83	175.218
3987.67	165.903
3989.51	169.009
3991.34	190.742
3993.18	187.685
3995.01	184.639
3996.85	197.139
3998.68	166.174
