#Acq. time (s)=	45
#Accumulations=	2
#Range (cm-¹)=	1200...2399
#Windows=	6
#Auto scanning=	Off
#Autofocus=	Off
#Macrospot=	Off
#AutoExposure=	Off
#Spike filter=	Multiple accum.
#Delay time (s)=	2
#Binning=	1
#Readout mode=	Signal
#DeNoise=	Off
#ICS correction=	On
#Dark correction=	Off
#Inst. Process=	Off
#Detector Gain=	Best Dynamic
#Detector ADC=	50 kHz EM
#Detector EM gain=	100
#Detector temperature (°C)=	-60.09
#Instrument=	LabRAM HR Evol
#Detector=	SIN-EM FIVIS
#Objective=	x100_VIS_LWD
#Grating=	1800 (450-850nm)
#ND Filter=	100%
#Laser=	633nm_Edge
#Hole=	49.98
#Temperature=	0
#Range=	Visible
#StageXY=	75x50mm Scan+
#StageZ=	Z motor
#X (µm)=	0
#Y (µm)=	0
#Z (µm)=	57.9
#Full time(mm:ss)=	9:32
#Project=	21_11_22
#Sample=	BU04w
#Site=	
#Title=	BU04w-A-FF3-FI03-V_1800 (450-850nm)_633nm_Edge_100%_x100_VIS_LWD_H50um_45sX2
#Remark=	
#Date=	22.11.2021 12:24
#Acquired=	22.11.2021 12:24:12
1201.04	302.335
1201.21	306.011
1201.39	303.528
1201.56	301.052
1201.73	299.368
1201.9	302.393
1202.08	309.375
1202.25	301.515
1202.42	304.405
1202.59	299.166
1202.76	299.631
1202.94	304.496
1203.11	299.532
1203.28	301.733
1203.45	305.873
1203.62	307.362
1203.8	302.223
1203.97	305.138
1204.14	307.415
1204.31	296.16
1204.48	301.44
1204.66	304.184
1204.83	306.665
1205	299.042
1205.17	297.633
1205.34	302.148
1205.52	304.185
1205.69	300.033
1205.86	300.949
1206.03	304.975
1206.2	301.093
1206.38	299.557
1206.55	306.165
1206.72	301.579
1206.89	299.699
1207.06	299.04
1207.24	303.747
1207.41	303.225
1207.58	299.316
1207.75	296.982
1207.92	298.142
1208.09	301.138
1208.27	303.55
1208.44	306.764
1208.61	303.969
1208.78	298.859
1208.95	305.534
1209.13	299.823
1209.3	302.646
1209.47	297.753
1209.64	301.359
1209.81	304.831
1209.98	301.117
1210.16	305.864
1210.33	300.965
1210.5	303.679
1210.67	300.21
1210.84	301.681
1211.02	304.608
1211.19	304.5
1211.36	307.377
1211.53	295.835
1211.7	309.445
1211.87	310.449
1212.04	299.334
1212.22	303.809
1212.39	304.273
1212.56	295.434
1212.73	300.283
1212.9	296.616
1213.08	299.91
1213.25	308.571
1213.42	301.629
1213.59	298.221
1213.76	304.643
1213.93	299.035
1214.11	301.337
1214.28	301.695
1214.45	305.775
1214.62	305.899
1214.79	305.474
1214.96	313.245
1215.13	297.013
1215.31	303.742
1215.48	300.025
1215.65	301.12
1215.82	299.814
1215.99	303.13
1216.16	299.869
1216.33	306.919
1216.51	304.685
1216.68	300.06
1216.85	304.772
1217.02	302.656
1217.19	305.376
1217.36	302.614
1217.54	302.074
1217.71	306.093
1217.88	307.423
1218.05	306.393
1218.22	304.535
1218.39	305.167
1218.56	306.83
1218.74	301.827
1218.91	296.078
1219.08	308.478
1219.25	309.867
1219.42	310.031
1219.59	311.689
1219.76	301.326
1219.93	305.655
1220.11	308.346
1220.28	303.474
1220.45	306.693
1220.62	312.554
1220.79	307.784
1220.96	306.132
1221.13	303.988
1221.31	302.237
1221.48	303.317
1221.65	301.217
1221.82	299.617
1221.99	307.063
1222.16	304.194
1222.33	307.85
1222.5	308.083
1222.68	306.466
1222.85	307.443
1223.02	308.033
1223.19	306.869
1223.36	307.899
1223.53	308.236
1223.7	302.308
1223.87	304.21
1224.04	306.986
1224.22	307.482
1224.39	308.054
1224.56	303.789
1224.73	311.084
1224.9	307.571
1225.07	311.967
1225.24	306.081
1225.41	300.374
1225.59	301.241
1225.76	303.525
1225.93	313.291
1226.1	302.329
1226.27	313.951
1226.44	299.131
1226.61	304.785
1226.78	305.934
1226.95	308.441
1227.12	311.428
1227.3	302.472
1227.47	306.906
1227.64	309.998
1227.81	304.959
1227.98	301.19
1228.15	302.938
1228.32	303.255
1228.49	306.704
1228.66	308.362
1228.84	306.252
1229.01	307.257
1229.18	305.692
1229.35	316.03
1229.52	309.465
1229.69	303.614
1229.86	307.872
1230.03	302.69
1230.2	302.955
1230.37	301.863
1230.54	310.89
1230.71	310.287
1230.89	309.39
1231.06	309.933
1231.23	305.983
1231.4	312.104
1231.57	309.295
1231.74	310.755
1231.91	306.475
1232.08	306.205
1232.25	302.426
1232.42	304.991
1232.59	311.057
1232.77	306.536
1232.94	303.279
1233.11	311.86
1233.28	306.996
1233.45	301.863
1233.62	299.212
1233.79	312.399
1233.96	304.917
1234.13	307.653
1234.3	308.364
1234.47	306.012
1234.64	305.831
1234.81	313.072
1234.99	308.463
1235.16	307.713
1235.33	304.456
1235.5	311.685
1235.67	301.754
1235.84	310.57
1236.01	308.424
1236.18	307.831
1236.35	306.922
1236.52	307.825
1236.69	303.605
1236.86	307.505
1237.03	310.937
1237.2	312.404
1237.37	306.782
1237.54	306.551
1237.72	305.656
1237.89	311.253
1238.06	304.473
1238.23	309.383
1238.4	312.595
1238.57	310.625
1238.74	308.38
1238.91	307.221
1239.08	310.028
1239.25	313.374
1239.42	313.776
1239.59	310.419
1239.76	309.555
1239.93	305.101
1240.1	302.749
1240.27	310.977
1240.44	318.752
1240.61	306.71
1240.79	308.57
1240.96	308.442
1241.13	307.552
1241.3	325.925
1241.47	311.821
1241.64	317.096
1241.81	307.309
1241.98	318.065
1242.15	312.475
1242.32	315.05
1242.49	310.616
1242.66	313.551
1242.83	319.702
1243	307.909
1243.17	308.871
1243.34	314.894
1243.51	318.672
1243.68	310.315
1243.85	311.474
1244.02	312.726
1244.19	314.4
1244.36	308.696
1244.53	313.606
1244.7	311.973
1244.87	309.469
1245.05	311.674
1245.21	309.293
1245.39	317.449
1245.55	319.029
1245.73	308.817
1245.9	310.75
1246.07	310.848
1246.24	311.292
1246.41	312.131
1246.58	314.618
1246.75	312.174
1246.92	312.315
1247.09	309.162
1247.26	314.282
1247.43	313.667
1247.6	309.909
1247.77	309.746
1247.94	309.452
1248.11	309.509
1248.28	308.667
1248.45	314.765
1248.62	312.876
1248.79	309.08
1248.96	315.512
1249.13	308.011
1249.3	306.704
1249.47	314.997
1249.64	312.761
1249.81	308.781
1249.98	314.085
1250.15	310.02
1250.32	315.308
1250.49	317.679
1250.66	309.752
1250.83	310.248
1251	317.06
1251.17	313.622
1251.34	312.539
1251.51	317.67
1251.68	310.082
1251.85	313.213
1252.02	311.163
1252.19	309.039
1252.36	311.092
1252.53	312.65
1252.7	313.255
1252.87	309.131
1253.04	306.978
1253.21	314.54
1253.38	314.68
1253.55	312.346
1253.72	317.991
1253.89	307.406
1254.06	316.04
1254.23	310.964
1254.4	317.234
1254.57	318.047
1254.74	313.103
1254.91	317.656
1255.08	317.083
1255.25	304.702
1255.42	310.74
1255.59	312.954
1255.76	307.804
1255.93	312.261
1256.1	309.641
1256.27	316.387
1256.44	312.841
1256.61	312.48
1256.78	310.906
1256.95	323.152
1257.12	318.523
1257.29	309.603
1257.46	315.656
1257.63	311.408
1257.8	312.72
1257.97	315.624
1258.13	320.675
1258.31	322.475
1258.47	310.001
1258.64	311.204
1258.81	319.984
1258.98	321.027
1259.15	310.066
1259.32	313.349
1259.49	309.829
1259.66	319.556
1259.83	313.349
1260	317.366
1260.17	318.741
1260.34	312.985
1260.51	309.941
1260.68	316.133
1260.85	314.931
1261.02	314.789
1261.19	320.092
1261.36	316.809
1261.53	313.485
1261.7	308.869
1261.87	320.828
1262.04	318.481
1262.21	318.594
1262.38	324.26
1262.55	319.883
1262.72	324.263
1262.89	328.227
1263.05	311.92
1263.22	317.066
1263.39	319.569
1263.56	321.568
1263.73	335.094
1263.9	328.815
1264.07	332.523
1264.24	329.667
1264.41	336.795
1264.58	333.428
1264.75	331.547
1264.92	326.709
1265.09	323.81
1265.26	319.387
1265.43	319.453
1265.6	317.446
1265.77	314.327
1265.94	319.538
1266.11	319.705
1266.27	315.797
1266.44	316.466
1266.61	314.892
1266.78	319.046
1266.95	310.9
1267.12	320.586
1267.29	315.345
1267.46	312.663
1267.63	308.861
1267.8	311.137
1267.97	313.967
1268.14	309.882
1268.31	307.805
1268.48	311.864
1268.65	327.092
1268.81	322.851
1268.98	307.757
1269.15	310.512
1269.32	312.416
1269.49	320.531
1269.66	318.403
1269.83	314.647
1270	314.549
1270.17	317.313
1270.34	311.23
1270.51	318.367
1270.68	307.543
1270.85	313.753
1271.01	319.6
1271.18	319.858
1271.35	314.472
1271.52	311.202
1271.69	316.488
1271.86	315.093
1272.03	313.244
1272.2	311.369
1272.37	312.976
1272.54	318.329
1272.71	312.553
1272.88	314.807
1273.04	313.38
1273.21	313.959
1273.38	310.609
1273.55	309.988
1273.72	314.194
1273.89	319.708
1274.06	312.059
1274.23	313.36
1274.4	311.502
1274.57	315.115
1274.74	311.621
1274.9	318.876
1275.07	318.11
1275.24	317.68
1275.41	317.662
1275.58	323.398
1275.75	314.096
1275.92	318.933
1276.09	318.219
1276.26	310.834
1276.42	311.054
1276.59	317.921
1276.76	313.492
1276.93	317.79
1277.1	318.941
1277.27	320.972
1277.44	309.714
1277.61	314.131
1277.78	308.329
1277.95	318.293
1278.11	314.914
1278.28	309.717
1278.45	314.036
1278.62	317.134
1278.79	317.983
1278.96	313.009
1279.13	317.65
1279.3	321.513
1279.46	318.258
1279.63	314.193
1279.8	310.085
1279.97	316.172
1280.14	321.523
1280.31	320.944
1280.48	317.623
1280.65	315.467
1280.82	312.127
1280.98	321.832
1281.15	321.271
1281.32	323.688
1281.49	326.737
1281.66	331.279
1281.83	324.72
1282	328.981
1282.17	330.51
1282.33	350.199
1282.5	342.35
1282.67	349.932
1282.84	369.413
1283.01	373.041
1283.18	367.121
1283.35	399.958
1283.52	411.418
1283.68	483.175
1283.85	510.126
1284.02	558.141
1284.19	630.011
1284.36	629.508
1284.53	636.946
1284.7	558.429
1284.86	521.308
1285.03	436.037
1285.2	405.119
1285.37	380.307
1285.54	356.994
1285.71	336.813
1285.88	330.78
1286.04	338.15
1286.21	335.946
1286.38	322.426
1286.55	322.583
1286.72	316.894
1286.89	318.163
1287.06	328.199
1287.22	314.789
1287.39	319.416
1287.56	311.442
1287.73	319.879
1287.9	319.243
1288.07	310.134
1288.24	317.009
1288.4	313.447
1288.57	322.449
1288.74	318.457
1288.91	310.931
1289.08	313.51
1289.25	311.809
1289.41	310.068
1289.58	307.742
1289.75	310.598
1289.92	313.611
1290.09	311.747
1290.26	316.964
1290.42	308.712
1290.59	311.841
1290.76	311.172
1290.93	307.41
1291.1	311.125
1291.27	313.935
1291.44	311.895
1291.6	313.111
1291.77	309.724
1291.94	316.106
1292.11	313.468
1292.28	315.365
1292.44	315.69
1292.61	308.919
1292.78	308.458
1292.95	310.691
1293.12	313.117
1293.29	305.914
1293.45	309.029
1293.62	313.367
1293.79	308.247
1293.96	313.889
1294.13	308.25
1294.29	306.493
1294.46	313.175
1294.63	310.043
1294.8	314.019
1294.97	308.425
1295.14	310.318
1295.3	308.663
1295.47	307.282
1295.64	309.301
1295.81	309.975
1295.98	313.572
1296.14	306.457
1296.31	310.196
1296.48	308.479
1296.65	311.07
1296.82	310.525
1296.99	308.9
1297.15	313.78
1297.32	307.37
1297.49	311.983
1297.66	311.766
1297.83	305.825
1297.99	306.014
1298.16	309.586
1298.33	311.733
1298.5	312.964
1298.67	310.383
1298.83	306.246
1299	310.098
1299.17	314.495
1299.34	306.592
1299.51	307.756
1299.67	308.448
1299.84	309.914
1300.01	305.303
1300.18	315.198
1300.35	311.834
1300.51	311.457
1300.68	315.306
1300.85	312.744
1301.02	303.032
1301.19	312.183
1301.35	312.745
1301.52	312.029
1301.69	311.018
1301.86	304.777
1302.03	306.06
1302.19	307.782
1302.36	310.837
1302.53	303.091
1302.7	321.652
1302.86	310.026
1303.03	309.854
1303.2	312.887
1303.37	308.976
1303.54	308.279
1303.7	305.699
1303.87	306.849
1304.04	309.436
1304.21	309.582
1304.37	312.36
1304.54	310.125
1304.71	309.911
1304.88	307.466
1305.05	311.536
1305.21	311.145
1305.38	309.267
1305.55	308.034
1305.72	307.685
1305.88	310.602
1306.05	311.897
1306.22	303.932
1306.39	304.663
1306.55	307.606
1306.72	312.941
1306.89	307.814
1307.06	314.684
1307.23	309.856
1307.39	308.826
1307.56	309.645
1307.73	309.676
1307.9	315.339
1308.06	321.098
1308.23	313.739
1308.4	304.323
1308.57	308.199
1308.73	308.52
1308.9	309.35
1309.07	317.765
1309.24	302.815
1309.41	308.938
1309.57	312.18
1309.74	307.619
1309.91	310.076
1310.07	306.823
1310.24	311.876
1310.41	311.775
1310.58	312.105
1310.75	312.443
1310.91	306.386
1311.08	316.835
1311.25	306.076
1311.42	312.297
1311.58	307.514
1311.75	309.563
1311.92	300.59
1312.08	312.347
1312.25	311.32
1312.42	312.402
1312.59	309.88
1312.75	306.115
1312.92	311.39
1313.09	305.206
1313.26	312.986
1313.42	307.261
1313.59	309
1313.76	310.931
1313.93	312.379
1314.09	309.801
1314.26	308.666
1314.43	310.369
1314.6	303.507
1314.76	310.431
1314.93	309.537
1315.1	308.97
1315.27	307.261
1315.43	306.084
1315.6	308.972
1315.77	307.393
1315.93	310.017
1316.1	311.583
1316.27	317.294
1316.44	315.37
1316.6	306.706
1316.77	309.791
1316.94	310.236
1317.1	305.852
1317.27	317.828
1317.44	312.533
1317.61	312.361
1317.77	303.42
1317.94	314.485
1318.11	314.307
1318.28	314.334
1318.44	304.405
1318.61	310.968
1318.78	313.092
1318.94	309.196
1319.11	312.287
1319.28	310.449
1319.45	310.085
1319.61	308.541
1319.78	305.815
1319.95	312.764
1320.11	311.715
1320.28	309.035
1320.45	313.524
1320.62	312.86
1320.78	312.967
1320.95	309.711
1321.12	310.44
1321.28	315.384
1321.45	310.157
1321.62	308.296
1321.78	312.924
1321.95	305.604
1322.12	313.063
1322.29	313.212
1322.45	313.297
1322.62	316.408
1322.79	311.481
1322.95	307.541
1323.12	312.547
1323.29	314.38
1323.45	306.197
1323.62	319.322
1323.79	318.814
1323.96	315.213
1324.12	311.814
1324.29	314.921
1324.46	315.12
1324.62	314.932
1324.79	312.223
1324.96	311.808
1325.12	309.563
1325.29	310.359
1325.46	306.188
1325.62	315.339
1325.79	310.615
1325.96	304.928
1326.13	317.509
1326.29	310.669
1326.46	316.749
1326.63	309.629
1326.79	315.947
1326.96	315.734
1327.13	309.806
1327.29	311.245
1327.46	313.637
1327.63	319.966
1327.79	313.269
1327.96	312.557
1328.13	311.945
1328.29	318.023
1328.46	314.838
1328.63	316.428
1328.79	314.24
1328.96	315.24
1329.13	312.452
1329.29	313
1329.46	314.532
1329.63	314.082
1329.79	315.736
1329.96	310.121
1330.13	312.58
1330.3	310.081
1330.46	311.348
1330.63	317.709
1330.8	310.099
1330.96	317.798
1331.13	311.795
1331.29	305.143
1331.46	314.634
1331.63	312.599
1331.79	316.32
1331.96	316.432
1332.13	313.897
1332.29	317.973
1332.46	314.265
1332.63	314.651
1332.79	315.118
1332.96	315.611
1333.13	310.188
1333.29	314.049
1333.46	313.12
1333.63	317.503
1333.79	314.868
1333.96	311.951
1334.13	320.839
1334.29	317.949
1334.46	316.29
1334.63	311.435
1334.79	317.81
1334.96	313.667
1335.13	310.836
1335.29	315.895
1335.46	318.267
1335.62	318.857
1335.79	318.252
1335.96	319.352
1336.12	322.269
1336.29	319.166
1336.46	318.935
1336.62	319.015
1336.79	312.349
1336.96	316.217
1337.12	316.419
1337.29	316.563
1337.46	318.458
1337.62	313.067
1337.79	314.304
1337.95	315.941
1338.12	311.566
1338.29	317.155
1338.45	313.492
1338.62	314.765
1338.79	320.94
1338.95	312.792
1339.12	322.012
1339.29	316.296
1339.45	311.254
1339.62	326.259
1339.78	311.921
1339.95	318.352
1340.12	316.456
1340.28	328.429
1340.45	319.003
1340.62	317.609
1340.78	321.515
1340.95	312.266
1341.11	319.976
1341.28	319.293
1341.45	312.813
1341.61	307.356
1341.78	316.79
1341.94	312.956
1342.11	321.538
1342.28	311.44
1342.44	311.396
1342.61	317.252
1342.78	325.525
1342.94	314.374
1343.11	314.385
1343.27	321.749
1343.44	314.641
1343.61	314.533
1343.77	314.44
1343.94	315.539
1344.1	316.774
1344.27	313.847
1344.44	315.841
1344.6	315.888
1344.77	319.231
1344.93	308.794
1345.1	317.046
1345.27	317.451
1345.43	316.425
1345.6	316.555
1345.77	312.686
1345.93	320.5
1346.1	319.278
1346.26	313.447
1346.43	314.125
1346.6	322.831
1346.76	316.94
1346.93	313.854
1347.09	319.953
1347.26	316.828
1347.42	318.364
1347.59	317.058
1347.76	325.313
1347.92	320.432
1348.09	314.766
1348.25	317.716
1348.42	316.67
1348.59	315.721
1348.75	318.328
1348.92	314.109
1349.08	318.835
1349.25	318.038
1349.42	315.374
1349.58	316.549
1349.75	321.111
1349.91	320.853
1350.08	313.295
1350.25	321.952
1350.41	315.268
1350.58	316.71
1350.74	320.322
1350.91	316.126
1351.07	312.408
1351.24	316.977
1351.41	314.764
1351.57	321.884
1351.74	324.774
1351.9	324.707
1352.07	321.028
1352.23	320.506
1352.4	313.454
1352.57	310.478
1352.73	314.79
1352.9	324.898
1353.06	314.984
1353.23	321.021
1353.39	314.373
1353.56	315.09
1353.73	316.622
1353.89	319.241
1354.06	320.152
1354.22	313.118
1354.39	312.577
1354.55	314.595
1354.72	316.743
1354.88	317.24
1355.05	314.358
1355.22	320.4
1355.38	319.916
1355.55	310.71
1355.71	319.474
1355.88	318.53
1356.04	320.62
1356.21	317.125
1356.38	318.303
1356.54	314.735
1356.71	318.531
1356.87	320.774
1357.04	324.52
1357.2	319.991
1357.37	312.362
1357.53	314.564
1357.7	322.99
1357.87	319.292
1358.03	320.032
1358.2	319.11
1358.36	313.24
1358.53	318.99
1358.69	318.881
1358.86	311.071
1359.02	324.49
1359.19	315.919
1359.35	313.179
1359.52	322.618
1359.69	317.508
1359.85	323.799
1360.02	316.719
1360.18	315.427
1360.35	318.453
1360.51	322.881
1360.68	320.327
1360.84	317.874
1361.01	321.333
1361.17	313.353
1361.34	320.848
1361.5	319.369
1361.67	318.26
1361.84	315.689
1362	320.402
1362.17	316.595
1362.33	315.587
1362.5	321.146
1362.66	313.773
1362.83	318.261
1362.99	315.339
1363.16	316.516
1363.32	313.857
1363.49	311.252
1363.65	316.001
1363.82	320.839
1363.98	323.725
1364.15	320.52
1364.31	317.934
1364.48	314.923
1364.64	314.345
1364.81	322.842
1364.98	320.811
1365.14	312.892
1365.31	320.17
1365.47	318.784
1365.64	316.273
1365.8	324.509
1365.97	318.147
1366.13	322.384
1366.3	326.212
1366.46	324.452
1366.63	319.878
1366.79	312.464
1366.96	316.66
1367.12	316.119
1367.29	318.549
1367.45	324.178
1367.62	323.331
1367.78	317.423
1367.95	323.711
1368.11	318.923
1368.28	325.765
1368.44	324.087
1368.61	319.038
1368.77	317.023
1368.94	322.573
1369.1	318.732
1369.27	327.948
1369.43	326.189
1369.6	341.35
1369.76	329.649
1369.93	325.364
1370.09	318.86
1370.26	319.059
1370.42	316.585
1370.59	328.344
1370.75	323.995
1370.92	317.237
1371.08	314.002
1371.25	320.035
1371.41	321.669
1371.58	319.887
1371.74	321.744
1371.91	314.459
1372.07	317.834
1372.24	323.683
1372.4	320.676
1372.57	316.617
1372.73	319.729
1372.9	316.718
1373.06	323.438
1373.23	319.426
1373.39	318.783
1373.56	315.668
1373.72	321.988
1373.89	326.14
1374.05	313.182
1374.22	320.5
1374.38	323.134
1374.54	323.165
1374.71	313.701
1374.87	319.573
1375.04	322.241
1375.2	317.129
1375.37	326.654
1375.53	317.761
1375.7	324.75
1375.86	322.877
1376.03	317.125
1376.19	322.687
1376.36	319.579
1376.52	324.241
1376.69	316.213
1376.85	318.084
1377.02	319.349
1377.18	312.866
1377.34	318.899
1377.51	325.802
1377.67	328.095
1377.84	318.426
1378	318.949
1378.17	316.893
1378.33	314.568
1378.5	322.452
1378.66	321.149
1378.83	318.173
1378.99	319.57
1379.16	322.849
1379.32	326.382
1379.48	325.369
1379.65	322.898
1379.81	326.734
1379.98	316.804
1380.14	319.061
1380.31	318.844
1380.47	326.717
1380.64	320.673
1380.8	324.281
1380.97	326.875
1381.13	326.884
1381.3	319.955
1381.46	318.715
1381.62	328.772
1381.79	326.278
1381.95	326.476
1382.12	327.801
1382.28	318.683
1382.45	322.669
1382.61	326.162
1382.78	323.205
1382.94	322.926
1383.1	326.497
1383.27	339.041
1383.43	327.119
1383.6	326.003
1383.76	324.727
1383.93	319.758
1384.09	327.803
1384.26	333.124
1384.42	324.429
1384.58	329.602
1384.75	329.992
1384.91	335.569
1385.08	330.092
1385.24	336.922
1385.4	342.233
1385.57	335.794
1385.73	342.543
1385.9	357.727
1386.06	355.757
1386.23	378.878
1386.39	391.747
1386.56	396.004
1386.72	451.864
1386.88	484.767
1387.05	583.232
1387.21	703.008
1387.38	906.118
1387.54	990.027
1387.7	997.682
1387.87	862.91
1388.03	654.98
1388.2	503.522
1388.36	440.696
1388.53	382.131
1388.69	370.879
1388.85	360.408
1389.02	353.873
1389.18	337.264
1389.35	343.81
1389.51	338.736
1389.68	333.773
1389.84	335.077
1390	340.646
1390.17	331.021
1390.33	320.273
1390.5	328.758
1390.66	319.525
1390.82	320.503
1390.99	331.2
1391.15	326.343
1391.32	326.446
1391.48	329.948
1391.64	328.71
1391.81	322.38
1391.97	321.471
1392.14	316.458
1392.3	323.68
1392.46	321.284
1392.63	320.192
1392.79	329.832
1392.96	321.568
1393.12	323.209
1393.28	319.924
1393.45	330.65
1393.61	320.572
1393.78	317.826
1393.94	321.921
1394.1	319.958
1394.27	318.216
1394.43	319.845
1394.6	323.983
1394.76	315.252
1394.92	316.521
1395.09	317.784
1395.25	314.153
1395.42	318.196
1395.58	321.266
1395.74	320.298
1395.91	319.307
1396.07	321.675
1396.24	312.72
1396.4	321.665
1396.56	321.009
1396.73	317
1396.89	317.138
1397.05	318.33
1397.22	324.947
1397.38	316.73
1397.55	319.789
1397.71	314.233
1397.87	321.231
1398.04	317.942
1398.2	322.534
1398.36	318.198
1398.53	308.912
1398.69	320.537
1398.86	319.354
1399.02	322.361
1399.18	317.258
1399.35	317.118
1399.51	322.671
1399.67	314.724
1399.84	311.462
1400	318.662
1400.17	316.456
1400.33	316.655
1400.49	316.765
1400.66	320.285
1400.82	320.519
1400.98	313.969
1401.15	317.039
1401.31	313.852
1401.47	323.165
1401.64	317.029
1401.8	327.721
1401.97	318.471
1402.13	313.302
1402.29	317.345
1402.46	323.678
1402.62	319.489
1402.78	318.815
1402.95	315.642
1403.11	321.43
1403.27	315.66
1403.44	317.644
1403.6	319.343
1403.76	324.531
1403.93	320.219
1404.09	318.029
1404.26	321.184
1404.42	317.973
1404.58	323.29
1404.75	318.139
1404.91	317.82
1405.07	319.75
1405.24	318.916
1405.4	320.029
1405.56	323.141
1405.73	324.459
1405.89	323.481
1406.05	325.246
1406.22	315.914
1406.38	315.325
1406.54	327.922
1406.71	325.47
1406.87	323.347
1407.03	323.29
1407.2	321.075
1407.36	327.015
1407.52	317.802
1407.69	332.888
1407.85	326.63
1408.01	328.613
1408.18	338.045
1408.34	333.7
1408.5	349.111
1408.67	353.404
1408.83	355.952
1408.99	350.24
1409.16	349.045
1409.32	350.687
1409.48	348.67
1409.65	325.21
1409.81	332.836
1409.97	336.665
1410.14	324.48
1410.3	331.65
1410.46	320.385
1410.63	331.98
1410.79	323.948
1410.95	319.709
1411.12	320.721
1411.28	318.581
1411.44	315.358
1411.61	316.832
1411.77	319.123
1411.93	320.545
1412.1	320.545
1412.26	329.758
1412.42	324.574
1412.58	320.589
1412.75	322.867
1412.91	317.033
1413.08	319.542
1413.24	320.262
1413.4	316.427
1413.56	320.838
1413.73	315.882
1413.89	322.215
1414.05	321.402
1414.22	316.967
1414.38	322.737
1414.54	316.562
1414.71	317.656
1414.87	316.682
1415.03	320.294
1415.19	317.767
1415.36	317.85
1415.52	323.312
1415.68	321.135
1415.85	320.803
1416.01	315.651
1416.17	326.698
1416.34	314.583
1416.5	321.237
1416.66	315.219
1416.83	324.122
1416.99	316.652
1417.15	318.343
1417.31	319.652
1417.48	325.5
1417.64	317.523
1417.8	326.232
1417.97	317.712
1418.13	330.721
1418.29	328.673
1418.46	322.068
1418.62	317.082
1418.78	321.591
1418.94	316.006
1419.11	321.566
1419.27	316.372
1419.43	324.029
1419.59	322.671
1419.76	321.888
1419.92	315.433
1420.08	320.675
1420.25	318.519
1420.41	320.29
1420.57	317.147
1420.73	316.595
1420.9	322.427
1421.06	326.255
1421.22	313.797
1421.39	317.708
1421.55	317.839
1421.71	323.799
1421.87	324.948
1422.04	320.481
1422.2	331.062
1422.36	318.692
1422.52	312.771
1422.69	316.369
1422.85	314.607
1423.01	321.278
1423.18	319.883
1423.34	320.587
1423.5	318.786
1423.66	316.874
1423.83	321.999
1423.99	319.64
1424.15	317.976
1424.31	322.866
1424.48	321.61
1424.64	320.834
1424.8	326.324
1424.97	314.48
1425.13	320.948
1425.29	322.886
1425.45	315.45
1425.61	318.24
1425.78	319.633
1425.94	324.901
1426.1	317.92
1426.27	320.973
1426.43	316.591
1426.59	320.883
1426.75	320.858
1426.92	322.069
1427.08	320.095
1427.24	323.409
1427.4	317.398
1427.57	323.55
1427.73	324.594
1427.89	317.286
1428.05	319.079
1428.22	316.691
1428.38	321.435
1428.54	322.425
1428.7	321.519
1428.87	315.476
1429.03	319.693
1429.19	325.516
1429.35	319.789
1429.52	318.929
1429.68	320.628
1429.84	321.198
1430	320.013
1430.17	319.216
1430.33	317.021
1430.49	320.882
1430.65	319.01
1430.82	324.38
1430.98	321.492
1431.14	334.39
1431.3	321.667
1431.46	315.348
1431.63	317.276
1431.79	321.421
1431.95	316.652
1432.11	318.561
1432.28	318.573
1432.44	320.399
1432.6	317.598
1432.76	318.6
1432.93	322.106
1433.09	322.688
1433.25	317.361
1433.41	319.714
1433.57	323.873
1433.74	327.264
1433.9	316.317
1434.06	315.013
1434.22	320.498
1434.38	311.518
1434.55	314.461
1434.71	317.666
1434.87	318.365
1435.03	314.116
1435.2	319.697
1435.36	322.953
1435.52	320.382
1435.68	317.649
1435.85	321.203
1436.01	320.147
1436.17	317.642
1436.33	321.785
1436.49	321.553
1436.66	321.623
1436.82	323.718
1436.98	322.321
1437.14	320.227
1437.3	320.613
1437.47	323.145
1437.63	326.236
1437.79	322.49
1437.95	314.585
1438.11	326.607
1438.28	320.133
1438.44	320.223
1438.6	317.69
1438.76	318.83
1438.92	316.804
1439.09	325.856
1439.25	321.396
1439.41	317.488
1439.57	318.285
1439.73	322.655
1439.9	318.111
1440.06	320.061
1440.22	320.164
1440.38	324.842
1440.54	323.44
1440.71	321.818
1440.87	322.145
1441.03	320.074
1441.19	320.32
1441.35	321.438
1441.52	325.004
1441.68	322.306
1441.84	317.621
1442	324.671
1442.16	320.897
1442.33	325.177
1442.49	319.149
1442.65	325.454
1442.81	319.159
1442.97	323.107
1443.14	320.311
1443.3	324.345
1443.46	322.951
1443.62	322.884
1443.78	327.72
1443.94	323.28
1444.11	319.093
1444.27	323.504
1444.43	322.628
1444.59	316.551
1444.75	321.216
1444.91	322.636
1445.08	319.472
1445.24	326.818
1445.4	326.409
1445.56	326.877
1445.72	315.532
1445.88	317.748
1446.05	321.235
1446.21	323.579
1446.37	322.928
1446.53	325.929
1446.69	320.792
1446.85	323.017
1447.02	316.672
1447.18	322.394
1447.34	320.781
1447.5	321.063
1447.66	327.654
1447.82	320.128
1447.99	326.064
1448.15	320.598
1448.31	317.548
1448.47	320.777
1448.63	322.242
1448.79	322.425
1448.96	331.831
1449.12	323.391
1449.28	323.716
1449.44	327.169
1449.6	320.485
1449.76	322.825
1449.93	325.931
1450.09	319.058
1450.25	321.642
1450.41	323.359
1450.57	323.527
1450.73	321.181
1450.9	324.578
1451.06	322.009
1451.22	319.876
1451.38	326.354
1451.54	323.73
1451.7	319.49
1451.86	327.736
1452.03	321.163
1452.19	323.766
1452.35	328.255
1452.51	321.342
1452.67	318.326
1452.83	318.029
1452.99	321.635
1453.16	327.975
1453.32	324.572
1453.48	317.411
1453.64	331.007
1453.8	323.088
1453.96	320.83
1454.12	327.027
1454.28	327.705
1454.45	326.5
1454.61	320.203
1454.77	323.425
1454.93	322.091
1455.09	326.699
1455.25	319.741
1455.41	320.656
1455.58	323.498
1455.74	324.03
1455.9	323.247
1456.06	320.969
1456.22	321.517
1456.38	323.684
1456.54	322.396
1456.7	323.47
1456.86	324.349
1457.03	327.034
1457.19	324.009
1457.35	322.091
1457.51	323.174
1457.67	322.607
1457.83	322.508
1457.99	323.524
1458.15	321.052
1458.32	318.335
1458.48	318.316
1458.64	321.485
1458.8	325.338
1458.96	322.411
1459.12	321.55
1459.28	323.836
1459.44	323.868
1459.61	322.53
1459.77	324.57
1459.93	323.331
1460.09	321.264
1460.25	320.847
1460.41	322.664
1460.57	325.882
1460.73	323.355
1460.9	321.556
1461.06	322.297
1461.22	325.575
1461.38	321.871
1461.54	322.01
1461.7	326.672
1461.86	320.726
1462.02	325.021
1462.18	321.271
1462.34	323.653
1462.5	322.545
1462.67	320.7
1462.83	321.385
1462.99	321.206
1463.15	321.875
1463.31	321.836
1463.47	323.32
1463.63	320.848
1463.79	323.457
1463.95	323.986
1464.11	322.648
1464.28	322.659
1464.44	323.875
1464.6	321.452
1464.76	323.437
1464.92	322.977
1465.08	321.694
1465.24	323.158
1465.4	321.751
1465.56	322.434
1465.72	320.691
1465.88	318.235
1466.04	321.191
1466.21	321.718
1466.37	322.016
1466.53	324.092
1466.69	327.42
1466.85	325.859
1467.01	323.224
1467.17	318.454
1467.27	312.369
1467.43	314.656
1467.59	323.895
1467.76	324.828
1467.92	324.917
1468.08	315.13
1468.25	319.968
1468.41	326.287
1468.57	320.943
1468.74	325.012
1468.9	331.054
1469.07	322.912
1469.23	317.237
1469.39	322.739
1469.56	322.399
1469.72	324.961
1469.88	322.137
1470.04	326.144
1470.21	319.735
1470.37	320.912
1470.53	323.472
1470.7	322.257
1470.86	316.594
1471.02	321.898
1471.19	322.181
1471.35	324.114
1471.51	319.017
1471.68	317.806
1471.84	323.157
1472	316.323
1472.17	327.938
1472.33	319.099
1472.49	324.781
1472.66	322.128
1472.82	329.55
1472.98	316.543
1473.15	326.072
1473.31	327.218
1473.47	322.921
1473.64	324.294
1473.8	317.923
1473.96	321.869
1474.12	322.222
1474.29	323.924
1474.45	325.651
1474.61	320.973
1474.78	323.124
1474.94	319.174
1475.1	320.809
1475.27	322.714
1475.43	321.274
1475.59	320.931
1475.76	321.732
1475.92	327.243
1476.08	322.073
1476.25	326.868
1476.41	323.919
1476.57	323.647
1476.73	322.083
1476.9	317.881
1477.06	323.269
1477.22	325.98
1477.39	318.376
1477.55	319.606
1477.71	326.18
1477.88	319.969
1478.04	324.044
1478.2	322.082
1478.36	338.851
1478.53	328.216
1478.69	323.124
1478.85	321.23
1479.02	324.57
1479.18	319.921
1479.34	320.767
1479.51	322.138
1479.67	323.588
1479.83	321.869
1479.99	321.806
1480.16	326.02
1480.32	317.794
1480.48	329.224
1480.65	319.43
1480.81	319.362
1480.97	321.226
1481.13	323.518
1481.3	322.432
1481.46	317.755
1481.62	325.056
1481.79	323.176
1481.95	320.026
1482.11	319.755
1482.27	330.057
1482.44	321.325
1482.6	325.887
1482.76	320.931
1482.92	321.712
1483.09	325.664
1483.25	319.06
1483.41	323.94
1483.58	322.109
1483.74	320.883
1483.9	317.126
1484.06	321.395
1484.23	323.833
1484.39	324.362
1484.55	320.344
1484.72	323.358
1484.88	321.39
1485.04	319.875
1485.2	328.735
1485.37	323.975
1485.53	315.276
1485.69	321.064
1485.85	328.758
1486.02	322.206
1486.18	319.781
1486.34	322.941
1486.5	318.77
1486.67	322.552
1486.83	318.85
1486.99	324.248
1487.15	322.266
1487.32	326.546
1487.48	324.922
1487.64	315.697
1487.81	325.282
1487.97	317.78
1488.13	320.715
1488.29	319.656
1488.46	321.638
1488.62	318.574
1488.78	315.904
1488.94	323.79
1489.1	324.376
1489.27	320.799
1489.43	323.477
1489.59	321.725
1489.76	318.796
1489.92	319.129
1490.08	324.803
1490.24	323.997
1490.41	321.547
1490.57	319.279
1490.73	322.717
1490.89	322.146
1491.06	322.707
1491.22	329.891
1491.38	318.378
1491.54	324.911
1491.7	324.106
1491.87	322.983
1492.03	323.779
1492.19	325.333
1492.35	322.32
1492.52	325.193
1492.68	326.957
1492.84	321.936
1493	323.675
1493.17	318.348
1493.33	318.565
1493.49	325.198
1493.65	323.079
1493.82	323.829
1493.98	324.113
1494.14	323.656
1494.3	321.79
1494.46	323.378
1494.63	327.205
1494.79	322.586
1494.95	320.422
1495.11	318.314
1495.28	322.348
1495.44	323.053
1495.6	319.36
1495.76	326.404
1495.92	316.721
1496.09	323.157
1496.25	324.003
1496.41	326.799
1496.57	322.931
1496.74	319.877
1496.9	319.002
1497.06	318.467
1497.22	328.308
1497.38	320.097
1497.55	322.962
1497.71	316.099
1497.87	319.426
1498.03	318.533
1498.2	327.042
1498.36	328.127
1498.52	323.892
1498.68	320.722
1498.84	326.212
1499.01	321.192
1499.17	324.194
1499.33	323.38
1499.49	322.647
1499.65	325.644
1499.82	324.201
1499.98	323.037
1500.14	319.84
1500.3	323.282
1500.46	324.368
1500.63	323.296
1500.79	323.274
1500.95	327.106
1501.11	325.047
1501.27	326.722
1501.44	323.418
1501.6	324.113
1501.76	323.366
1501.92	321.379
1502.08	320.064
1502.25	327.868
1502.41	323.597
1502.57	322.069
1502.73	320.065
1502.89	321.716
1503.06	321.321
1503.22	322.245
1503.38	319.19
1503.54	320.254
1503.7	324.093
1503.87	324.88
1504.03	326.134
1504.19	327.42
1504.35	323.617
1504.51	323.496
1504.68	323.136
1504.84	326.781
1505	325.316
1505.16	324.059
1505.32	319.78
1505.48	327.349
1505.65	322.64
1505.81	325.18
1505.97	336.68
1506.13	330.404
1506.29	327.053
1506.46	327.38
1506.62	325.864
1506.78	322.141
1506.94	320.168
1507.1	323.509
1507.26	327.805
1507.43	329.184
1507.59	323.485
1507.75	326.16
1507.91	322.603
1508.07	328.289
1508.23	326.802
1508.4	324.691
1508.56	324.636
1508.72	323.3
1508.88	328.08
1509.04	323.582
1509.2	321.344
1509.37	324.054
1509.53	325.923
1509.69	327.077
1509.85	324.31
1510.01	324.642
1510.17	323.753
1510.34	325.874
1510.5	331.395
1510.66	327.341
1510.82	328.236
1510.98	328.238
1511.14	322.121
1511.31	318.817
1511.47	321.745
1511.63	327.599
1511.79	327.495
1511.95	325.679
1512.11	324.318
1512.27	322.676
1512.44	323.863
1512.6	327.797
1512.76	320.352
1512.92	324.268
1513.08	326.007
1513.24	324.718
1513.4	329.269
1513.57	329.819
1513.73	322.333
1513.89	321.485
1514.05	331.131
1514.21	320.216
1514.37	324.955
1514.54	329.408
1514.7	321.995
1514.86	331.644
1515.02	319.89
1515.18	329.737
1515.34	322.467
1515.5	321.631
1515.67	325.613
1515.83	331.497
1515.99	324.046
1516.15	327.48
1516.31	326.952
1516.47	321.402
1516.63	323.116
1516.8	325.772
1516.96	322.771
1517.12	322.769
1517.28	327.584
1517.44	322.867
1517.6	329.422
1517.76	325.695
1517.92	326.306
1518.09	323.261
1518.25	328.769
1518.41	327.67
1518.57	325.54
1518.73	325.552
1518.89	329.921
1519.05	326.252
1519.21	326.617
1519.38	327.701
1519.54	325.599
1519.7	329.021
1519.86	328.231
1520.02	330.355
1520.18	326.132
1520.34	336.039
1520.5	330
1520.67	323.534
1520.83	322.638
1520.99	332.837
1521.15	328.347
1521.31	326.498
1521.47	324.877
1521.63	322.132
1521.79	334.531
1521.95	322.995
1522.12	328.884
1522.28	325.944
1522.44	321.173
1522.6	324.089
1522.76	325.336
1522.92	329.454
1523.08	324.449
1523.24	323.107
1523.4	327.763
1523.57	327.918
1523.73	328.69
1523.89	326.935
1524.05	333.483
1524.21	333.265
1524.37	323.756
1524.53	329.088
1524.69	333.488
1524.85	325.063
1525.02	327.943
1525.18	326.048
1525.34	331.714
1525.5	331.38
1525.66	329.302
1525.82	328.525
1525.98	323.869
1526.14	324.612
1526.3	330.272
1526.46	336.01
1526.63	327.191
1526.79	329.662
1526.95	331.126
1527.11	331.846
1527.27	328.305
1527.43	330.156
1527.59	323.612
1527.75	330.422
1527.91	326.494
1528.07	328.831
1528.23	331.014
1528.4	329.957
1528.56	331.152
1528.72	323.831
1528.88	325.224
1529.04	334.768
1529.2	328.55
1529.36	332.028
1529.52	326.197
1529.68	329.297
1529.84	325.091
1530	328.828
1530.16	330.365
1530.33	324.229
1530.49	329.048
1530.65	326.608
1530.81	326.393
1530.97	322.147
1531.13	326.344
1531.29	326.096
1531.45	329.121
1531.61	327.868
1531.77	326.742
1531.93	328.819
1532.09	334.153
1532.25	328.754
1532.41	334.193
1532.58	326.276
1532.74	325.693
1532.9	330.532
1533.06	324.344
1533.22	331.405
1533.38	326.755
1533.54	334.186
1533.7	326.617
1533.86	327.897
1534.02	324.075
1534.18	326.811
1534.34	325.722
1534.5	322.952
1534.66	330.653
1534.82	328.21
1534.98	331.437
1535.15	335.985
1535.31	329.875
1535.47	329.947
1535.63	330.723
1535.79	324.537
1535.95	328.382
1536.11	333.831
1536.27	333.627
1536.43	326.606
1536.59	328.112
1536.75	330.421
1536.91	326.673
1537.07	323.677
1537.23	331.752
1537.39	327.179
1537.55	323.13
1537.71	326.856
1537.87	330.981
1538.03	327.271
1538.19	333.091
1538.36	329.872
1538.52	331.155
1538.68	330.157
1538.84	332.897
1539	329.716
1539.16	326.662
1539.32	332.097
1539.48	327.587
1539.64	325.066
1539.8	334.834
1539.96	331.688
1540.12	334.366
1540.28	330.983
1540.44	330.107
1540.6	333.274
1540.76	325.608
1540.92	332.767
1541.08	339.66
1541.24	327.502
1541.4	325.618
1541.56	328.944
1541.72	336.017
1541.88	322.876
1542.04	335.757
1542.2	329.036
1542.36	327.415
1542.52	333.2
1542.68	332.683
1542.84	336.409
1543.01	329.249
1543.17	337.791
1543.33	335.115
1543.49	333.74
1543.65	332.932
1543.81	333.255
1543.97	327.695
1544.13	330.983
1544.29	329.515
1544.45	332.518
1544.61	327.751
1544.77	330.09
1544.93	331.721
1545.09	336.16
1545.25	329.575
1545.41	328.718
1545.57	327.368
1545.73	331.505
1545.89	339.872
1546.05	329.309
1546.21	325.82
1546.37	330.223
1546.53	328.765
1546.69	333.922
1546.85	333.568
1547.01	332.477
1547.17	326.63
1547.33	329.474
1547.49	330.102
1547.65	330.571
1547.81	329.979
1547.97	333.012
1548.13	329.811
1548.29	333.8
1548.45	332.082
1548.61	332.569
1548.77	332.785
1548.93	331.76
1549.09	332.713
1549.25	335.111
1549.41	328.944
1549.57	336.921
1549.73	332.738
1549.89	330.999
1550.05	328.804
1550.21	333.219
1550.37	334.498
1550.53	330.467
1550.69	331.527
1550.85	336.084
1551.01	330.88
1551.17	331.708
1551.33	327.753
1551.49	330.772
1551.65	333.319
1551.81	331.411
1551.97	331.191
1552.13	329.423
1552.29	331.336
1552.45	331.748
1552.61	331.421
1552.77	328.453
1552.93	330.513
1553.09	331.689
1553.25	325.367
1553.41	328.185
1553.57	331.99
1553.73	336.581
1553.89	335.036
1554.05	330.644
1554.21	330.814
1554.37	331.974
1554.53	334.589
1554.69	334.609
1554.84	333.818
1555	332.449
1555.16	327.264
1555.32	329.317
1555.48	332.829
1555.64	330.959
1555.8	341.174
1555.96	334.398
1556.12	330.842
1556.28	340.108
1556.44	329.044
1556.6	328.383
1556.76	325.569
1556.92	343.644
1557.08	335.953
1557.24	331.515
1557.4	329.693
1557.56	325.884
1557.72	331.632
1557.88	331.709
1558.04	330.896
1558.2	329.996
1558.36	333.037
1558.52	325.304
1558.68	328.872
1558.84	329.716
1558.99	334.335
1559.15	330.017
1559.31	335.991
1559.47	331.05
1559.63	336.984
1559.79	328.485
1559.95	327.487
1560.11	331.085
1560.27	331.918
1560.43	334.485
1560.59	330.174
1560.75	328.633
1560.91	329.457
1561.07	330.146
1561.23	329.864
1561.39	331.948
1561.55	332.092
1561.71	338.561
1561.87	323.635
1562.03	326.891
1562.19	331.574
1562.35	334.999
1562.5	332.28
1562.66	335.298
1562.82	337.486
1562.98	333.019
1563.14	328.516
1563.3	330.671
1563.46	335.666
1563.62	332.789
1563.78	333.567
1563.94	331.957
1564.1	330.211
1564.26	336.001
1564.42	331.536
1564.58	329.762
1564.73	332.901
1564.89	336.528
1565.05	334.424
1565.21	334.198
1565.37	329.097
1565.53	334.238
1565.69	333.751
1565.85	327.542
1566.01	338.843
1566.17	331.314
1566.33	326.914
1566.49	332.343
1566.65	332.943
1566.81	333.464
1566.97	325.892
1567.12	329.959
1567.28	329.864
1567.44	329.761
1567.6	326.233
1567.76	339.561
1567.92	335.716
1568.08	333.849
1568.24	333.882
1568.4	333.219
1568.56	338.51
1568.72	326.325
1568.88	335.23
1569.03	330.859
1569.19	331.795
1569.35	335.57
1569.51	327.986
1569.67	334.22
1569.83	330.991
1569.99	326.276
1570.15	340.347
1570.31	329.013
1570.47	328.801
1570.63	325.821
1570.78	333.809
1570.94	329.533
1571.1	330.539
1571.26	330.839
1571.42	344.185
1571.58	330.101
1571.74	332.33
1571.9	333.232
1572.06	333.853
1572.22	338.836
1572.38	337.792
1572.53	333.903
1572.69	338.323
1572.85	333.256
1573.01	330.291
1573.17	331.014
1573.33	327.482
1573.49	332.027
1573.65	331.85
1573.81	334.08
1573.96	330.531
1574.12	328.492
1574.28	335.919
1574.44	334.067
1574.6	331.279
1574.76	332.911
1574.92	333.64
1575.08	332.404
1575.24	331.111
1575.39	335.63
1575.55	334.383
1575.71	332.065
1575.87	333.003
1576.03	336.738
1576.19	333.857
1576.35	333.662
1576.51	330.293
1576.67	334.819
1576.82	333.294
1576.98	328.531
1577.14	325.021
1577.3	336.392
1577.46	331.01
1577.62	329.767
1577.78	336.226
1577.94	327.086
1578.09	329.399
1578.25	332.796
1578.41	323.46
1578.57	330.193
1578.73	329.977
1578.89	331.306
1579.05	329.152
1579.21	331.581
1579.36	327.273
1579.52	328.524
1579.68	331.528
1579.84	337.419
1580	332.532
1580.16	330.394
1580.32	329.209
1580.47	334.444
1580.63	332.609
1580.79	331.45
1580.95	326.001
1581.11	328.195
1581.27	323.431
1581.43	334.567
1581.59	328.428
1581.74	329.45
1581.9	333.683
1582.06	330.513
1582.22	330.876
1582.38	333.493
1582.54	329.881
1582.7	329.858
1582.85	333.397
1583.01	329.623
1583.17	333.296
1583.33	325.993
1583.49	334.046
1583.65	328.452
1583.8	334.444
1583.96	331.794
1584.12	327.704
1584.28	335.338
1584.44	338.901
1584.6	334.526
1584.76	338.014
1584.91	329.816
1585.07	334.878
1585.23	333.805
1585.39	330.779
1585.55	333.084
1585.71	332.878
1585.87	336.382
1586.02	327.856
1586.18	338.224
1586.34	331.861
1586.5	330.787
1586.66	334.276
1586.82	329.813
1586.97	329.93
1587.13	330.65
1587.29	331.425
1587.45	335.564
1587.61	339.694
1587.77	326.458
1587.92	331.431
1588.08	329.224
1588.24	334.159
1588.4	336.673
1588.56	333.12
1588.72	330.693
1588.87	330.055
1589.03	336.299
1589.19	333.91
1589.35	328.544
1589.51	330.627
1589.67	337.714
1589.82	330.363
1589.98	328.989
1590.14	330.435
1590.3	331.582
1590.46	326.606
1590.62	335.667
1590.77	333.431
1590.93	337.364
1591.09	333.239
1591.25	345.346
1591.41	332.794
1591.56	331.495
1591.72	330.129
1591.88	331.126
1592.04	327.981
1592.2	327.633
1592.36	335.245
1592.51	332.927
1592.67	328.355
1592.83	334.29
1592.99	330.339
1593.15	331.923
1593.3	335.372
1593.46	325.956
1593.62	331.706
1593.78	332.667
1593.94	328.508
1594.09	327.633
1594.25	333.165
1594.41	333.144
1594.57	337.973
1594.73	332.526
1594.88	333.344
1595.04	335.942
1595.2	329.963
1595.36	332.556
1595.52	335.587
1595.67	329.494
1595.83	333.901
1595.99	330.36
1596.15	331.532
1596.31	336.488
1596.47	331.178
1596.62	338.883
1596.78	331.009
1596.94	326.473
1597.1	331.987
1597.25	327.34
1597.41	332.335
1597.57	337.808
1597.73	334.042
1597.89	329.716
1598.04	336.409
1598.2	327.363
1598.36	326.418
1598.52	332.637
1598.68	331.943
1598.83	332.689
1598.99	335.77
1599.15	333.456
1599.31	328.715
1599.47	333.545
1599.62	332.643
1599.78	332.43
1599.94	326.18
1600.1	330.307
1600.25	332.808
1600.41	332.173
1600.57	329.534
1600.73	333.709
1600.89	324.563
1601.04	333.323
1601.2	333.035
1601.36	333.218
1601.52	334.68
1601.67	335.391
1601.83	334.896
1601.99	331.784
1602.15	330.786
1602.31	330.474
1602.46	333.467
1602.62	333.219
1602.78	329.727
1602.94	335.912
1603.09	334.098
1603.25	332.025
1603.41	338.494
1603.57	344.712
1603.72	331.39
1603.88	330.004
1604.04	330.073
1604.2	336.103
1604.35	332.301
1604.51	337.086
1604.67	333.458
1604.83	327.139
1604.99	333.392
1605.14	330.148
1605.3	336.734
1605.46	327.108
1605.62	333.743
1605.77	328.124
1605.93	332.797
1606.09	328.667
1606.25	336.256
1606.4	332.82
1606.56	333.444
1606.72	333.202
1606.88	328.923
1607.03	332.472
1607.19	327.944
1607.35	329.924
1607.51	332.141
1607.66	330.465
1607.82	325.514
1607.98	336.345
1608.14	328.402
1608.29	331.457
1608.45	331.272
1608.61	331.506
1608.77	330.341
1608.92	332.539
1609.08	330.786
1609.24	335.729
1609.4	333.526
1609.55	329.99
1609.71	329.563
1609.87	338.165
1610.03	343.807
1610.18	335.78
1610.34	331.83
1610.5	334.223
1610.66	336.689
1610.81	332.362
1610.97	330.13
1611.13	331.486
1611.28	328.895
1611.44	335.645
1611.6	329.831
1611.76	333.058
1611.91	330.068
1612.07	334.844
1612.23	333.266
1612.39	337.188
1612.54	333.712
1612.7	331.669
1612.86	337.948
1613.02	335.324
1613.17	335.143
1613.33	334.266
1613.49	324.753
1613.64	337.992
1613.8	335.684
1613.96	331.434
1614.12	331.88
1614.27	334.202
1614.43	334.143
1614.59	336.577
1614.75	329.391
1614.9	330.776
1615.06	332.177
1615.22	332.492
1615.37	340.43
1615.53	339.428
1615.69	335.973
1615.84	328.755
1616	335.355
1616.16	341.875
1616.32	337.311
1616.47	342.215
1616.63	330.575
1616.79	329.986
1616.95	335.442
1617.1	338.002
1617.26	332.617
1617.42	335.638
1617.57	332.489
1617.73	340.196
1617.89	332.526
1618.04	336.18
1618.2	331.977
1618.36	340.082
1618.52	335.046
1618.67	335.972
1618.83	341.285
1618.99	338.111
1619.14	333.139
1619.3	337.516
1619.46	334.586
1619.61	350.248
1619.77	338.609
1619.93	332.098
1620.09	340.696
1620.24	331.804
1620.4	338.178
1620.56	328.742
1620.71	328.819
1620.87	339.299
1621.03	338.409
1621.18	340.954
1621.34	334.978
1621.5	330.237
1621.65	337.524
1621.81	338.263
1621.97	329.411
1622.13	337.021
1622.28	338.954
1622.44	336.275
1622.6	340.609
1622.75	331.328
1622.91	338.861
1623.07	338.74
1623.22	339.114
1623.38	332.284
1623.54	334.648
1623.69	334.673
1623.85	337.114
1624.01	335.802
1624.16	349.928
1624.32	340.198
1624.48	339.614
1624.63	338.152
1624.79	333.699
1624.95	338.317
1625.11	345.382
1625.26	340.143
1625.42	334.472
1625.58	343.332
1625.73	336.61
1625.89	339.033
1626.05	331.85
1626.2	335.003
1626.36	336.097
1626.52	336.777
1626.67	337.232
1626.83	338.878
1626.99	337.976
1627.14	343.094
1627.3	336.365
1627.46	340.321
1627.61	331.774
1627.77	341.634
1627.93	337.056
1628.08	333.136
1628.24	335.835
1628.4	338.352
1628.55	336.695
1628.71	341.162
1628.87	337.857
1629.02	338.41
1629.18	339.198
1629.33	338.541
1629.49	339.612
1629.65	336.182
1629.8	336.523
1629.96	330.697
1630.12	337.039
1630.27	333.841
1630.43	338.545
1630.59	339.118
1630.74	336.462
1630.9	339.553
1631.06	336.877
1631.21	337.516
1631.37	349.742
1631.53	336.794
1631.68	330.659
1631.84	333.167
1632	338.095
1632.15	336.87
1632.31	341.954
1632.46	335.907
1632.62	336.931
1632.78	341.917
1632.93	339.455
1633.09	332.633
1633.25	335.213
1633.4	337.697
1633.56	336.441
1633.72	332.986
1633.87	335.796
1634.03	337.195
1634.19	335.124
1634.34	345.261
1634.5	339.446
1634.65	340.147
1634.81	341.277
1634.97	342.922
1635.12	343.222
1635.28	333.128
1635.44	342.985
1635.59	337.25
1635.75	333.844
1635.91	340.628
1636.06	346.622
1636.22	333.133
1636.37	334.314
1636.53	343.961
1636.69	338.259
1636.84	342.239
1637	342.792
1637.15	342.566
1637.31	342.061
1637.47	341.347
1637.62	339.366
1637.78	342.13
1637.94	338.452
1638.09	346.204
1638.25	340.114
1638.41	337.487
1638.56	339.841
1638.72	339.484
1638.87	339.016
1639.03	341.097
1639.19	341.004
1639.34	333.313
1639.5	339.163
1639.65	341.909
1639.81	343.002
1639.97	341.189
1640.12	337.735
1640.28	342.503
1640.43	334.72
1640.59	335.559
1640.75	343.404
1640.9	344.503
1641.06	348.259
1641.22	332.704
1641.37	336.945
1641.53	344.175
1641.68	339.685
1641.84	344.264
1642	341.048
1642.15	340.352
1642.31	344.832
1642.46	347.863
1642.62	349.256
1642.78	342.661
1642.93	339.469
1643.09	340.597
1643.24	337.917
1643.4	334.609
1643.56	337.518
1643.71	331.685
1643.87	342.508
1644.02	336.093
1644.18	338.368
1644.33	338.669
1644.49	341.042
1644.65	347.69
1644.8	345.548
1644.96	342.049
1645.11	344.195
1645.27	347.926
1645.43	339.075
1645.58	345.237
1645.74	342.855
1645.89	346.317
1646.05	346.299
1646.21	341.531
1646.36	348.38
1646.52	336.922
1646.67	339.175
1646.83	345.005
1646.98	340.749
1647.14	342.649
1647.3	342.482
1647.45	340.274
1647.61	340.113
1647.76	336.801
1647.92	344.05
1648.08	338.37
1648.23	346.061
1648.39	343.729
1648.54	340.587
1648.7	338.867
1648.85	333.032
1649.01	337.981
1649.17	338.261
1649.32	343.758
1649.48	340.905
1649.63	341.968
1649.79	345.977
1649.94	338.239
1650.1	341.571
1650.26	346.118
1650.41	346.662
1650.57	344.907
1650.72	343.579
1650.88	343.206
1651.03	340.343
1651.19	341.019
1651.35	338.477
1651.5	341.956
1651.66	346.005
1651.81	342.801
1651.97	341.304
1652.12	341.342
1652.28	339.705
1652.43	338.936
1652.59	336.943
1652.75	360.151
1652.9	335.532
1653.06	339.586
1653.21	340.518
1653.37	345.549
1653.52	339.724
1653.68	344.915
1653.83	339.895
1653.99	348.279
1654.15	343.72
1654.3	339.765
1654.46	341.785
1654.61	334.032
1654.77	348.12
1654.92	341.308
1655.08	342.545
1655.23	342.898
1655.39	348.066
1655.55	342.069
1655.7	337.293
1655.86	342.801
1656.01	341.898
1656.17	341.676
1656.32	340.391
1656.48	340.592
1656.63	344.958
1656.79	341.513
1656.94	341.547
1657.1	343.83
1657.25	341.735
1657.41	338.954
1657.57	343.774
1657.72	343.492
1657.88	341.405
1658.03	343.817
1658.19	343.71
1658.34	353.004
1658.5	343.157
1658.65	339.172
1658.81	343.521
1658.96	338.938
1659.12	346.308
1659.27	341.253
1659.43	344.342
1659.58	340.943
1659.74	337.317
1659.89	344.089
1660.05	341.432
1660.21	336.117
1660.36	348.557
1660.52	344.496
1660.67	339.531
1660.83	341.821
1660.98	345.144
1661.14	342.212
1661.29	340.825
1661.45	339.359
1661.6	340.903
1661.76	342.249
1661.91	342.264
1662.07	342.164
1662.22	342.676
1662.38	344.911
1662.53	344.135
1662.69	344.311
1662.84	340.708
1663	343.956
1663.15	341.883
1663.31	344.509
1663.46	344.39
1663.62	346.24
1663.77	342.71
1663.93	337.788
1664.08	348.24
1664.24	342.079
1664.39	340.35
1664.55	343.866
1664.7	344.99
1664.86	342.488
1665.02	345.321
1665.17	341.923
1665.33	346.319
1665.48	348.812
1665.64	340.007
1665.79	342.211
1665.95	338.948
1666.1	338.564
1666.26	344.747
1666.41	344.569
1666.56	340.971
1666.72	336.904
1666.87	342.158
1667.03	341.15
1667.18	340.662
1667.34	341.048
1667.5	342.66
1667.65	345.325
1667.81	342.065
1667.96	337.188
1668.11	347.387
1668.27	339.706
1668.42	346.159
1668.58	342.095
1668.73	343.969
1668.89	345.107
1669.04	342.829
1669.2	344.615
1669.35	343.42
1669.51	340.333
1669.66	345.026
1669.82	345.275
1669.97	342.916
1670.13	347.918
1670.28	343.161
1670.44	341.581
1670.59	339.44
1670.75	341.676
1670.9	338.095
1671.06	342.207
1671.21	349.497
1671.37	343.672
1671.52	349.782
1671.68	341.595
1671.83	342.585
1671.99	341.697
1672.14	342.871
1672.29	348.06
1672.45	340.185
1672.6	342.181
1672.76	344.607
1672.91	343.086
1673.07	344.082
1673.22	340.14
1673.38	345.628
1673.53	338.29
1673.69	344.905
1673.84	345.994
1674	344.361
1674.15	339.852
1674.31	344.06
1674.46	345.551
1674.61	340.63
1674.77	340.772
1674.92	344.864
1675.08	345.106
1675.23	339.773
1675.39	343.258
1675.54	339.481
1675.7	342.389
1675.85	341.8
1676.01	346.036
1676.16	345.51
1676.31	342.587
1676.47	342.432
1676.62	342.033
1676.78	344.228
1676.93	339.883
1677.09	345.784
1677.24	345.605
1677.4	344.56
1677.55	340.026
1677.71	336.693
1677.86	345.071
1678.02	350.606
1678.17	346.48
1678.32	342.699
1678.48	338.897
1678.63	339.072
1678.79	345.783
1678.94	339.218
1679.1	341.63
1679.25	346.395
1679.41	336.567
1679.56	339.473
1679.71	341.158
1679.87	342.573
1680.02	338.442
1680.18	350.993
1680.33	343.139
1680.49	342.158
1680.64	345.593
1680.79	344.444
1680.95	344.047
1681.1	344.736
1681.26	342.607
1681.41	346.799
1681.57	338.765
1681.72	342.832
1681.88	334.876
1682.03	348.278
1682.18	338.998
1682.34	342.862
1682.49	344.098
1682.65	343.38
1682.8	347.105
1682.96	340.694
1683.11	341.923
1683.26	342.819
1683.42	340.195
1683.57	342.511
1683.73	346.203
1683.88	347.351
1684.03	347.332
1684.19	347.335
1684.34	337.952
1684.5	341.246
1684.65	340.179
1684.81	340.171
1684.96	338.171
1685.12	337.106
1685.27	344.761
1685.42	338.052
1685.58	341.803
1685.73	337.418
1685.89	342.036
1686.04	343.091
1686.19	340.871
1686.35	338.403
1686.5	349.449
1686.66	342.551
1686.81	340.586
1686.96	338.467
1687.12	347.253
1687.27	353.294
1687.43	345.636
1687.58	340.851
1687.74	353.31
1687.89	340.532
1688.04	344.357
1688.2	341.975
1688.35	343.289
1688.5	342.437
1688.66	339.139
1688.81	340.293
1688.97	342.558
1689.12	342.648
1689.27	343.498
1689.43	342.533
1689.58	343.493
1689.74	342.166
1689.89	342.172
1690.05	344.635
1690.2	338.165
1690.35	342.472
1690.51	342.336
1690.66	348.545
1690.81	342.18
1690.97	342.911
1691.12	345.517
1691.28	340.556
1691.43	344.804
1691.58	344.222
1691.74	343.859
1691.89	341.89
1692.05	341.217
1692.2	340.548
1692.35	345.04
1692.51	340.109
1692.66	341.597
1692.82	340.328
1692.97	348.618
1693.12	345.436
1693.28	341.934
1693.43	343.624
1693.58	340.929
1693.74	347.569
1693.89	342.269
1694.05	338.997
1694.2	342.571
1694.35	346.544
1694.51	342.768
1694.66	343.618
1694.81	344.776
1694.97	343.003
1695.12	342.562
1695.28	343.597
1695.43	341.782
1695.58	339.484
1695.74	340.466
1695.89	339.42
1696.04	340.151
1696.2	337.018
1696.35	343.015
1696.51	341.93
1696.66	343.186
1696.81	342.679
1696.97	342.293
1697.12	345.19
1697.27	340.154
1697.43	336.681
1697.58	337.32
1697.74	341.656
1697.89	341.112
1698.04	343.247
1698.2	342.049
1698.35	341.677
1698.5	343.133
1698.66	342.078
1698.81	341.401
1698.96	341.852
1699.12	345.582
1699.27	342.937
1699.42	344.686
1699.58	342.101
1699.73	339.602
1699.88	341.613
1700.04	343.014
1700.19	341.778
1700.35	342.699
1700.5	340.447
1700.65	338.443
1700.81	339.721
1700.96	341.673
1701.11	347.908
1701.27	345.055
1701.42	343.901
1701.57	346.93
1701.73	344.032
1701.88	341.102
1702.03	345.544
1702.19	340.531
1702.34	338.358
1702.49	341.482
1702.65	340.1
1702.8	343.14
1702.95	343.75
1703.11	342.863
1703.26	340.269
1703.42	342.539
1703.57	339.918
1703.72	341.985
1703.88	343.073
1704.03	342.119
1704.18	341.805
1704.33	342.601
1704.49	345.949
1704.64	344.119
1704.79	342.003
1704.95	342.974
1705.1	344.935
1705.16	345.872
1705.32	345.502
1705.47	340.671
1705.63	342.623
1705.78	343.493
1705.94	343.731
1706.1	346.98
1706.25	340.62
1706.41	339.216
1706.56	340.082
1706.72	345.773
1706.88	347.105
1707.03	350.426
1707.19	344.501
1707.34	341.025
1707.5	343.277
1707.65	341.504
1707.81	343.71
1707.97	337.548
1708.12	337.574
1708.28	344.285
1708.43	343.673
1708.59	339.131
1708.74	344.042
1708.9	344.851
1709.06	340.965
1709.21	344.299
1709.37	339.493
1709.52	342.176
1709.68	344.748
1709.83	346.308
1709.99	346.53
1710.15	343.407
1710.3	338.748
1710.46	344.013
1710.61	346.005
1710.77	344.388
1710.92	346.818
1711.08	341.183
1711.23	348.452
1711.39	340.377
1711.55	340.133
1711.7	342.439
1711.86	341.331
1712.01	335.716
1712.17	344.465
1712.32	342.376
1712.48	346.263
1712.63	343.941
1712.79	344.117
1712.95	341.385
1713.1	340.223
1713.26	343.952
1713.41	339.006
1713.57	363.614
1713.72	350.968
1713.88	343.944
1714.04	343.002
1714.19	338.868
1714.35	343.373
1714.5	345.6
1714.66	343.854
1714.81	345.142
1714.97	345.914
1715.12	337.327
1715.28	351.516
1715.43	344.577
1715.59	346.023
1715.74	339.588
1715.9	340.554
1716.06	338.9
1716.21	345.436
1716.37	346.867
1716.52	340.158
1716.68	348.116
1716.83	347.031
1716.99	338.222
1717.14	342.447
1717.3	343.139
1717.46	342
1717.61	345.048
1717.77	345.626
1717.92	350.908
1718.08	347.656
1718.23	342.411
1718.39	343.321
1718.54	344.542
1718.7	347.368
1718.85	344.166
1719.01	344.748
1719.16	343.198
1719.32	344.494
1719.47	351.89
1719.63	344.489
1719.78	344.31
1719.94	347.122
1720.09	349.042
1720.25	349.553
1720.41	347.151
1720.56	342.375
1720.72	342.881
1720.87	353.209
1721.03	340.612
1721.18	341.606
1721.34	343.117
1721.49	341.648
1721.65	341.894
1721.8	344.958
1721.96	349.886
1722.11	344.08
1722.27	342.785
1722.42	340.174
1722.58	351.443
1722.73	343.468
1722.89	341.486
1723.04	348.59
1723.2	347.144
1723.35	344.25
1723.51	346.262
1723.66	342.554
1723.82	344.627
1723.97	341.776
1724.13	343.049
1724.28	341.887
1724.44	342.527
1724.6	341.262
1724.75	343.576
1724.9	347.064
1725.06	344.483
1725.21	340.37
1725.37	349.609
1725.53	346.072
1725.68	342.22
1725.84	346.317
1725.99	351.21
1726.14	340.286
1726.3	343.728
1726.45	345.384
1726.61	346.737
1726.77	351.684
1726.92	344.823
1727.07	347.344
1727.23	349.587
1727.38	344.963
1727.54	341.093
1727.7	346.996
1727.85	339.579
1728	341.347
1728.16	341.082
1728.31	342.497
1728.47	345.26
1728.62	343.084
1728.78	344.483
1728.93	347.17
1729.09	344.916
1729.24	340.288
1729.4	351.66
1729.55	346.811
1729.71	345.719
1729.86	349.685
1730.02	350.769
1730.17	345.88
1730.33	343.616
1730.48	345.702
1730.64	342.511
1730.79	349.607
1730.95	349.675
1731.1	345.235
1731.26	346.338
1731.41	345.031
1731.57	343.593
1731.72	348.557
1731.88	346.029
1732.03	343.63
1732.18	345.129
1732.34	345.177
1732.49	346.226
1732.65	350.007
1732.8	348.25
1732.96	343.501
1733.11	340.27
1733.27	342.754
1733.42	342.93
1733.58	346.947
1733.73	351.731
1733.89	340.711
1734.04	344.172
1734.2	345.774
1734.35	344.887
1734.51	348.326
1734.66	347.296
1734.82	346.133
1734.97	344.692
1735.12	345.852
1735.28	346.372
1735.43	341.968
1735.59	346.414
1735.74	345.195
1735.9	343.526
1736.05	350.181
1736.21	345.404
1736.36	343.161
1736.52	345.619
1736.67	346.548
1736.82	348.023
1736.98	352.551
1737.13	347.556
1737.29	346.826
1737.44	346.165
1737.6	348.752
1737.75	348.717
1737.91	345.138
1738.06	344.461
1738.21	347.804
1738.37	355.023
1738.52	349.772
1738.68	347.206
1738.83	344.828
1738.99	344.98
1739.14	346.549
1739.3	344.955
1739.45	346.082
1739.61	348.136
1739.76	343.439
1739.91	354.208
1740.07	346.095
1740.22	350.501
1740.38	343.38
1740.53	351.911
1740.69	351.447
1740.84	346.882
1741	342.779
1741.15	348.521
1741.3	348.816
1741.46	350.005
1741.61	355.06
1741.77	339.991
1741.92	346.532
1742.08	345.784
1742.23	343.765
1742.38	346.416
1742.54	349.601
1742.69	349.865
1742.85	344.562
1743	348.434
1743.16	344.52
1743.31	348.258
1743.46	340.997
1743.62	348.525
1743.77	348.251
1743.93	345.216
1744.08	346.59
1744.24	350.361
1744.39	345.971
1744.54	349.182
1744.7	348.786
1744.85	350.521
1745.01	341.004
1745.16	347.686
1745.32	346.226
1745.47	345.613
1745.62	347.069
1745.78	343.76
1745.93	348.2
1746.09	353.754
1746.24	348.643
1746.39	343.774
1746.55	346.48
1746.7	346.097
1746.86	344.495
1747.01	340.479
1747.16	341.756
1747.32	346.32
1747.47	349.102
1747.63	350.916
1747.78	352.756
1747.94	346.809
1748.09	343.031
1748.24	352.643
1748.4	344.342
1748.55	352.595
1748.71	345.962
1748.86	347.943
1749.01	342.073
1749.17	344.35
1749.32	352.509
1749.48	349.849
1749.63	351.809
1749.78	349.9
1749.94	346.282
1750.09	344.806
1750.25	346.753
1750.4	352.224
1750.55	349.763
1750.71	349.843
1750.86	346.94
1751.02	348.242
1751.17	357.164
1751.32	345.34
1751.48	348.556
1751.63	355.712
1751.79	344.362
1751.94	350.133
1752.09	347.845
1752.25	349.091
1752.4	345.095
1752.56	354.026
1752.71	344.136
1752.86	349.066
1753.02	348.322
1753.17	346.044
1753.33	353.072
1753.48	348.331
1753.63	351.161
1753.79	352.721
1753.94	353.039
1754.09	349.654
1754.25	351.209
1754.4	348.764
1754.56	344.97
1754.71	346.818
1754.86	350.286
1755.02	344.784
1755.17	342.218
1755.33	342.388
1755.48	349.656
1755.63	352.901
1755.79	348.236
1755.94	351.514
1756.09	346.514
1756.25	345.355
1756.4	348.066
1756.55	351.816
1756.71	349.001
1756.86	344.707
1757.02	347.821
1757.17	346.125
1757.32	350.533
1757.48	345.985
1757.63	351.225
1757.78	354.299
1757.94	341.098
1758.09	350.406
1758.25	349.332
1758.4	352.881
1758.55	351.416
1758.71	347.772
1758.86	345.746
1759.01	352.507
1759.17	346.746
1759.32	350.489
1759.47	349.06
1759.63	347.616
1759.78	348.077
1759.93	350.632
1760.09	347.139
1760.24	351.957
1760.4	348.417
1760.55	347.667
1760.7	350.617
1760.86	352.281
1761.01	345.839
1761.16	348.655
1761.32	350.556
1761.47	349.022
1761.62	352.151
1761.78	353.43
1761.93	347.411
1762.09	345.012
1762.24	353.761
1762.39	349.887
1762.54	352.073
1762.7	356.889
1762.85	349.596
1763.01	347.51
1763.16	353.54
1763.31	352.704
1763.47	354.059
1763.62	351.723
1763.77	350.182
1763.93	355.807
1764.08	352.967
1764.23	344.806
1764.39	352.544
1764.54	348.242
1764.69	348.27
1764.85	352.964
1765	352.934
1765.15	350.25
1765.31	352.602
1765.46	352.603
1765.61	347.961
1765.77	346.498
1765.92	352.45
1766.07	350.238
1766.23	346.52
1766.38	349.139
1766.53	343.077
1766.69	353.355
1766.84	346.511
1766.99	353.466
1767.15	344.69
1767.3	353.512
1767.45	352.928
1767.61	345.503
1767.76	356.367
1767.91	347.649
1768.07	347.805
1768.22	353.05
1768.37	348.668
1768.53	348.874
1768.68	347.252
1768.83	355.977
1768.99	346.331
1769.14	349.131
1769.29	355.445
1769.44	352.08
1769.6	349.543
1769.75	346.62
1769.9	349.809
1770.06	348.835
1770.21	351.579
1770.36	353.509
1770.52	348.745
1770.67	349.683
1770.82	349.041
1770.98	344.344
1771.13	345.438
1771.28	349.865
1771.44	346.965
1771.59	349.978
1771.74	348.326
1771.9	346.586
1772.05	346.583
1772.2	356.629
1772.35	349.484
1772.51	351.954
1772.66	353.239
1772.81	346.302
1772.97	349.546
1773.12	349.093
1773.27	346.778
1773.43	352.112
1773.58	347.57
1773.73	346.438
1773.88	346.552
1774.04	346.212
1774.19	346.664
1774.34	349.482
1774.5	345.617
1774.65	344.511
1774.8	346.803
1774.96	348.324
1775.11	352.408
1775.26	349.254
1775.41	348.961
1775.57	348.21
1775.72	353.148
1775.87	350.698
1776.03	348.591
1776.18	348.364
1776.33	347.329
1776.48	351.989
1776.64	349.791
1776.79	351.187
1776.94	351.57
1777.1	350.981
1777.25	349.395
1777.4	344.051
1777.56	350.906
1777.71	353.057
1777.86	350.678
1778.01	356.478
1778.17	351.578
1778.32	350.851
1778.47	351.01
1778.62	348.442
1778.78	347.147
1778.93	348.042
1779.08	353.19
1779.24	347.363
1779.39	351.841
1779.54	346.05
1779.69	349.819
1779.85	346.164
1780	354.261
1780.15	351.715
1780.31	352.468
1780.46	350.233
1780.61	351.205
1780.76	349.262
1780.92	347.996
1781.07	356.776
1781.22	350.131
1781.37	351.364
1781.53	348.327
1781.68	353.25
1781.83	348.625
1781.98	347.027
1782.14	354.004
1782.29	356.78
1782.44	355.743
1782.59	355.903
1782.75	348.188
1782.9	351.822
1783.05	349.942
1783.21	352.438
1783.36	356.041
1783.51	353.001
1783.66	350.189
1783.82	350.131
1783.97	347.008
1784.12	351.722
1784.27	348.048
1784.43	350.125
1784.58	350.809
1784.73	345.936
1784.88	351.564
1785.04	355.808
1785.19	348.815
1785.34	350.642
1785.49	353.703
1785.65	351.318
1785.8	353.508
1785.95	350.051
1786.1	352.688
1786.26	356.576
1786.41	351.063
1786.56	353.625
1786.71	350.04
1786.87	345.313
1787.02	357.038
1787.17	348.163
1787.32	345.873
1787.48	357.19
1787.63	349.03
1787.78	348.499
1787.93	362.256
1788.09	351.469
1788.24	347.129
1788.39	348.171
1788.54	347.742
1788.69	357.169
1788.85	355.28
1789	350.621
1789.15	357.292
1789.3	351.767
1789.46	352.229
1789.61	350.555
1789.76	347.798
1789.91	353.504
1790.07	349.566
1790.22	349.117
1790.37	354.788
1790.52	351.006
1790.67	353.48
1790.83	356.52
1790.98	354.327
1791.13	349.823
1791.28	350.01
1791.44	349.874
1791.59	352.79
1791.74	350.182
1791.89	350.264
1792.05	358.759
1792.2	350.326
1792.35	353.927
1792.5	349.859
1792.65	349.825
1792.81	348.701
1792.96	357.017
1793.11	349.83
1793.26	351.04
1793.42	347.671
1793.57	353.227
1793.72	347.98
1793.87	347.797
1794.02	354.764
1794.18	351.012
1794.33	346.306
1794.48	347.631
1794.63	349.368
1794.78	350.754
1794.94	348.907
1795.09	347.985
1795.24	354.76
1795.39	351.483
1795.54	356.106
1795.7	356.032
1795.85	358.56
1796	358.03
1796.15	352.608
1796.31	347.353
1796.46	348.394
1796.61	348.691
1796.76	349.19
1796.91	349.341
1797.07	359.118
1797.22	362.647
1797.37	352.009
1797.52	353.612
1797.67	355.268
1797.83	351.023
1797.98	348.418
1798.13	353.775
1798.28	351.068
1798.43	351.063
1798.59	351.762
1798.74	357.614
1798.89	347.489
1799.04	346.675
1799.19	351
1799.34	353.617
1799.5	354.182
1799.65	347.784
1799.8	352.456
1799.95	351.792
1800.1	347.542
1800.26	353.802
1800.41	348.889
1800.56	352.287
1800.71	346.268
1800.86	355.457
1801.02	351.782
1801.17	354.805
1801.32	359.141
1801.47	351.843
1801.62	353.004
1801.78	353.066
1801.93	358.826
1802.08	347.457
1802.23	347.44
1802.38	357.993
1802.53	357.746
1802.69	350.528
1802.84	355.664
1802.99	354.921
1803.14	358.496
1803.29	351.267
1803.44	355.658
1803.6	354.641
1803.75	353.436
1803.9	353.344
1804.05	357.057
1804.2	360.218
1804.35	349.19
1804.51	354.436
1804.66	355.38
1804.81	351.987
1804.96	352.271
1805.11	347.997
1805.26	357.941
1805.42	355.281
1805.57	352.771
1805.72	354.063
1805.87	351.704
1806.02	352.115
1806.18	350.969
1806.33	358.194
1806.48	351.326
1806.63	351.985
1806.78	350.813
1806.93	345.95
1807.08	359.006
1807.24	351.46
1807.39	352.736
1807.54	353.31
1807.69	350.819
1807.84	354.409
1807.99	352.06
1808.15	355.511
1808.3	351.87
1808.45	349.565
1808.6	351.836
1808.75	353.169
1808.9	360.868
1809.06	356.881
1809.21	353.912
1809.36	349.373
1809.51	350.774
1809.66	353.501
1809.81	361.796
1809.96	356.341
1810.12	351.04
1810.27	355.934
1810.42	357.277
1810.57	354.723
1810.72	351.494
1810.87	354.833
1811.02	351.586
1811.18	352.312
1811.33	351.4
1811.48	356.85
1811.63	351.837
1811.78	353.575
1811.93	353.665
1812.08	352.01
1812.24	353.389
1812.39	356.938
1812.54	352.17
1812.69	350.329
1812.84	356.162
1812.99	354.995
1813.14	352.493
1813.29	351.039
1813.45	356.704
1813.6	355.055
1813.75	344.312
1813.9	356.206
1814.05	355.25
1814.2	354.444
1814.35	346.889
1814.51	355.807
1814.66	353.412
1814.81	358.523
1814.96	355.112
1815.11	352.738
1815.26	355.379
1815.41	352.03
1815.56	351.973
1815.72	355.957
1815.87	353.326
1816.02	356.935
1816.17	355.404
1816.32	353.874
1816.47	350.771
1816.62	350.33
1816.77	364.426
1816.93	352.622
1817.08	352.464
1817.23	353.082
1817.38	351.405
1817.53	355.665
1817.68	353.604
1817.83	354.571
1817.98	352.456
1818.13	354.981
1818.29	353.157
1818.44	354.512
1818.59	355.481
1818.74	358.275
1818.89	354.278
1819.04	357.255
1819.19	359.392
1819.34	352.949
1819.49	353.956
1819.65	352.202
1819.8	353.454
1819.95	354.7
1820.1	359.917
1820.25	351.803
1820.4	355.431
1820.55	354.326
1820.7	350.166
1820.85	353.772
1821.01	352.889
1821.16	355.182
1821.31	376.525
1821.46	354.174
1821.61	357.402
1821.76	353.977
1821.91	355.259
1822.06	360.917
1822.21	354.665
1822.36	358.498
1822.51	356.547
1822.66	362.235
1822.82	354.548
1822.97	354.322
1823.12	352.024
1823.27	352.958
1823.42	356.889
1823.57	359.51
1823.72	353.358
1823.87	351.754
1824.02	354.081
1824.17	357.357
1824.33	350.511
1824.48	355.325
1824.63	355.981
1824.78	355.965
1824.93	358.342
1825.08	360.954
1825.23	358.272
1825.38	356.93
1825.53	357.063
1825.68	360.141
1825.83	356.821
1825.98	360.523
1826.14	353.263
1826.29	359.499
1826.44	356.918
1826.59	357.857
1826.74	360.262
1826.89	360.516
1827.04	361.49
1827.19	353.817
1827.34	358.062
1827.49	356.553
1827.64	355.564
1827.79	355.183
1827.94	357.308
1828.09	357.795
1828.25	358.74
1828.4	357.611
1828.55	359.745
1828.7	353.384
1828.85	361.224
1829	362.262
1829.15	349.594
1829.3	358.302
1829.45	358.207
1829.6	361.015
1829.75	357.551
1829.9	358.329
1830.05	356.932
1830.2	354.743
1830.36	352.605
1830.51	354.091
1830.66	360.857
1830.81	357.121
1830.96	356.633
1831.11	354.02
1831.26	358.357
1831.41	353.935
1831.56	358.116
1831.71	358.274
1831.86	358.239
1832.01	355.486
1832.16	357.737
1832.31	362.197
1832.46	365.946
1832.61	358.075
1832.76	363.539
1832.91	362.145
1833.06	359.448
1833.21	356.852
1833.37	353.791
1833.52	359.811
1833.67	360.55
1833.82	357.026
1833.97	357.245
1834.12	359.829
1834.27	362.131
1834.42	357.534
1834.57	359.549
1834.72	358.264
1834.87	358.169
1835.02	352.3
1835.17	360.419
1835.32	352.797
1835.47	357.958
1835.62	359.879
1835.77	357.21
1835.92	352.157
1836.07	358.741
1836.22	363.238
1836.37	361.259
1836.52	359.1
1836.67	357.122
1836.83	360.442
1836.98	362.654
1837.13	362.995
1837.28	357.419
1837.43	358.293
1837.58	357.103
1837.73	360.477
1837.88	358.773
1838.03	356.404
1838.18	356.842
1838.33	355.958
1838.48	358.018
1838.63	361.105
1838.78	359.519
1838.93	361.193
1839.08	354.28
1839.23	356.234
1839.38	360.269
1839.53	356.23
1839.68	365.866
1839.83	362.136
1839.98	362.937
1840.13	356.819
1840.28	354.274
1840.43	356.857
1840.58	359.47
1840.73	357.623
1840.88	356.023
1841.03	359.557
1841.18	360.449
1841.33	362.96
1841.48	356.5
1841.63	359.309
1841.78	355.923
1841.93	358.809
1842.08	362.698
1842.23	355.32
1842.38	368.603
1842.53	360.023
1842.68	356.73
1842.83	359.181
1842.98	356.346
1843.13	355.511
1843.28	360.368
1843.43	364.171
1843.58	367.349
1843.73	356.648
1843.88	359.914
1844.03	358.823
1844.18	362.306
1844.33	360.859
1844.48	360.137
1844.63	360.78
1844.78	359.196
1844.93	355.125
1845.08	363.333
1845.23	364.54
1845.38	360.366
1845.53	360.208
1845.68	355.855
1845.83	363.209
1845.98	358.33
1846.13	356.558
1846.28	355.93
1846.43	360.776
1846.58	354.406
1846.73	358.408
1846.88	361.85
1847.03	361.374
1847.18	363.836
1847.33	358.971
1847.48	359.606
1847.63	362.831
1847.78	362.65
1847.93	362.085
1848.08	363.196
1848.23	364.104
1848.38	377.1
1848.53	366.797
1848.68	364.999
1848.83	363.139
1848.98	363.745
1849.13	360.298
1849.28	364.425
1849.43	362.664
1849.58	363.642
1849.73	359.464
1849.88	359.809
1850.03	363.774
1850.18	361.252
1850.33	358.165
1850.48	365.821
1850.63	363.368
1850.78	368.53
1850.93	364.773
1851.08	358.729
1851.23	359.029
1851.38	364.883
1851.53	361.007
1851.68	363.728
1851.83	365.941
1851.98	364.282
1852.13	365.965
1852.27	358.523
1852.42	361.159
1852.57	360.992
1852.72	361.105
1852.87	362.511
1853.02	360.594
1853.17	364.896
1853.32	359.656
1853.47	358.071
1853.62	363.462
1853.77	361.487
1853.92	367.714
1854.07	364.671
1854.22	356.308
1854.37	361.701
1854.52	366.318
1854.67	362.518
1854.82	362.981
1854.97	364.895
1855.12	363.934
1855.27	363.454
1855.42	360.19
1855.57	364.586
1855.72	364.756
1855.87	360.886
1856.01	360.472
1856.16	359.101
1856.31	366.739
1856.46	364.176
1856.61	358.854
1856.76	364.917
1856.91	364.212
1857.06	356.46
1857.21	360.023
1857.36	364.801
1857.51	363.064
1857.66	360.278
1857.81	359.888
1857.96	361.82
1858.11	366.917
1858.26	359.974
1858.41	361.242
1858.56	368.114
1858.71	357.65
1858.86	361.664
1859	365.08
1859.15	363.948
1859.3	359.783
1859.45	361.504
1859.6	379.737
1859.75	363.447
1859.9	362.486
1860.05	361.798
1860.2	363.441
1860.35	363.123
1860.5	366.232
1860.65	369.16
1860.8	362.765
1860.95	363.876
1861.1	362.733
1861.24	365.921
1861.39	366.376
1861.54	362.92
1861.69	371.923
1861.84	362.62
1861.99	365.825
1862.14	363.741
1862.29	364.524
1862.44	370.2
1862.59	362.643
1862.74	364.359
1862.89	363.585
1863.04	363.464
1863.18	361.95
1863.33	364.481
1863.48	361.956
1863.63	360.949
1863.78	358.894
1863.93	369.579
1864.08	363.017
1864.23	368.51
1864.38	362.99
1864.53	360.196
1864.68	355.735
1864.83	364.862
1864.97	361.291
1865.12	366.833
1865.27	358.046
1865.42	364.387
1865.57	367.009
1865.72	364.253
1865.87	367.065
1866.02	363.616
1866.17	366.609
1866.32	365.097
1866.47	364.146
1866.61	365.574
1866.76	364.601
1866.91	363.604
1867.06	359.781
1867.21	363.898
1867.36	360.776
1867.51	366.996
1867.66	363.595
1867.81	363.36
1867.96	367.74
1868.1	362.417
1868.25	367.456
1868.4	364.181
1868.55	360.965
1868.7	368.483
1868.85	361.788
1869	365.756
1869.15	362.5
1869.3	367.817
1869.45	359.68
1869.59	363.966
1869.74	365.327
1869.89	367.905
1870.04	366.883
1870.19	367.421
1870.34	368.467
1870.49	362.139
1870.64	360.492
1870.79	366.645
1870.93	362.006
1871.08	363.27
1871.23	364.579
1871.38	366.408
1871.53	366.712
1871.68	359.288
1871.83	360.09
1871.98	360.457
1872.13	361.008
1872.27	363.236
1872.42	365.152
1872.57	368.222
1872.72	362.649
1872.87	360.083
1873.02	366.703
1873.17	364.277
1873.32	361.936
1873.46	360.994
1873.61	363.083
1873.76	368.581
1873.91	361.863
1874.06	366.209
1874.21	364.896
1874.36	360.069
1874.51	366.283
1874.66	364.95
1874.8	374.302
1874.95	366.695
1875.1	366.95
1875.25	363.995
1875.4	373.349
1875.55	367.853
1875.7	367.018
1875.84	367.651
1875.99	363.371
1876.14	364.76
1876.29	363.894
1876.44	358.75
1876.59	362.602
1876.74	361.55
1876.88	368.371
1877.03	368.113
1877.18	361.519
1877.33	363.603
1877.48	361.412
1877.63	360.76
1877.78	368.523
1877.92	366.508
1878.07	374.726
1878.22	367.978
1878.37	365.102
1878.52	372.219
1878.67	366.996
1878.82	361.481
1878.97	364.902
1879.11	359.864
1879.26	363.909
1879.41	368.666
1879.56	368.33
1879.71	366.63
1879.86	360.758
1880	379.741
1880.15	368.766
1880.3	371.646
1880.45	371.467
1880.6	368.507
1880.75	365.807
1880.9	364.236
1881.04	358.242
1881.19	367.191
1881.34	367.851
1881.49	373.018
1881.64	364.114
1881.79	366.034
1881.93	359.746
1882.08	357.058
1882.23	365.941
1882.38	366.044
1882.53	363.615
1882.68	369.53
1882.82	367.572
1882.97	373.568
1883.12	363.225
1883.27	364.269
1883.42	365.139
1883.57	363.825
1883.71	368.699
1883.86	367.052
1884.01	373.494
1884.16	363.004
1884.31	369.412
1884.46	366.982
1884.61	366.891
1884.75	371.096
1884.9	365.371
1885.05	363.953
1885.2	370.269
1885.35	372.314
1885.49	372.717
1885.64	361.475
1885.79	371.638
1885.94	365.528
1886.09	372.808
1886.24	364.269
1886.38	366.188
1886.53	366.31
1886.68	367.753
1886.83	365.496
1886.98	365.559
1887.12	367.317
1887.27	369.175
1887.42	369.358
1887.57	362.356
1887.72	365.499
1887.87	369.342
1888.01	365.644
1888.16	366.335
1888.31	363.606
1888.46	362.523
1888.61	367.499
1888.75	367.499
1888.9	370.958
1889.05	369.002
1889.2	363.957
1889.35	367.381
1889.5	370.664
1889.64	363.466
1889.79	363.557
1889.94	367.006
1890.09	364.22
1890.23	365.371
1890.38	374.124
1890.53	363.66
1890.68	367.667
1890.83	365.902
1890.98	366.772
1891.12	367.753
1891.27	366.422
1891.42	374.67
1891.57	366.369
1891.72	366.727
1891.86	365.404
1892.01	365.692
1892.16	371.573
1892.31	360.664
1892.46	365.547
1892.6	367.481
1892.75	366.253
1892.9	366.313
1893.05	362.9
1893.2	365.194
1893.34	367.082
1893.49	363.207
1893.64	366.11
1893.79	371.244
1893.93	366.356
1894.08	367.733
1894.23	364.378
1894.38	366.98
1894.53	371.495
1894.67	361.074
1894.82	368.627
1894.97	371.537
1895.12	363.346
1895.27	367.309
1895.41	365.055
1895.56	364.667
1895.71	370.371
1895.86	367.227
1896.01	364.641
1896.15	364.143
1896.3	365.639
1896.45	366.45
1896.6	371.971
1896.74	365.963
1896.89	370.159
1897.04	370.475
1897.19	375.595
1897.33	369.594
1897.48	371.161
1897.63	370.058
1897.78	369.107
1897.93	368.818
1898.07	369.882
1898.22	367.741
1898.37	373.846
1898.52	370.227
1898.66	365.248
1898.81	373.378
1898.96	362.074
1899.11	368.303
1899.25	366.385
1899.4	369.32
1899.55	370.768
1899.7	368.214
1899.85	363.476
1899.99	364.888
1900.14	362.825
1900.29	370.761
1900.44	369.352
1900.58	364.361
1900.73	373.498
1900.88	365.389
1901.03	360.146
1901.17	367.771
1901.32	366.082
1901.47	365.039
1901.62	362.773
1901.76	370.43
1901.91	360.19
1902.06	364.571
1902.21	367.965
1902.35	373.584
1902.5	376.422
1902.65	373.079
1902.8	371.278
1902.94	362.308
1903.09	368.995
1903.24	365.258
1903.39	365.767
1903.54	373.962
1903.68	365.524
1903.83	371.26
1903.98	369.562
1904.12	370.313
1904.27	363.98
1904.42	372.701
1904.57	361.67
1904.71	365.763
1904.86	363.123
1905.01	367.679
1905.16	373.937
1905.3	370.223
1905.45	366.409
1905.6	368.026
1905.75	367.163
1905.89	363.089
1906.04	368.659
1906.19	376.306
1906.34	363.791
1906.48	366.152
1906.63	370.83
1906.78	367.349
1906.92	372.073
1907.07	366.465
1907.22	367.811
1907.37	362.51
1907.51	368.543
1907.66	369.625
1907.81	369.014
1907.96	376.387
1908.1	363.583
1908.25	368.151
1908.4	369.615
1908.54	370.613
1908.69	374.594
1908.84	363.641
1908.99	366.464
1909.13	368.053
1909.28	367.294
1909.43	370.542
1909.58	371.385
1909.72	365.27
1909.87	374.259
1910.02	367.591
1910.17	369.288
1910.31	365.635
1910.46	372.492
1910.61	372.305
1910.75	370.718
1910.9	369.566
1911.05	367.119
1911.19	370.048
1911.34	371.748
1911.49	369.099
1911.64	371.627
1911.78	366.148
1911.93	366.997
1912.08	371.089
1912.23	375.504
1912.37	371.172
1912.52	368.626
1912.67	371.259
1912.81	369.427
1912.96	369.634
1913.11	370.58
1913.25	368.891
1913.4	382.851
1913.55	369.848
1913.7	364.695
1913.84	375.056
1913.99	366.401
1914.14	366.178
1914.28	366.3
1914.43	368.062
1914.58	372.446
1914.73	368.422
1914.87	371.619
1915.02	373.253
1915.17	370.945
1915.31	363.315
1915.46	373.717
1915.61	372.832
1915.75	370.283
1915.9	370.632
1916.05	372.637
1916.19	367.02
1916.34	369.14
1916.49	375.465
1916.64	370.477
1916.78	369.074
1916.93	371.337
1917.08	371.377
1917.22	375.961
1917.37	368.806
1917.52	369.073
1917.66	375.192
1917.81	374.068
1917.96	363.991
1918.1	370.465
1918.25	368.436
1918.4	372.176
1918.54	367.268
1918.69	371.586
1918.84	370.529
1918.99	368.524
1919.13	372.885
1919.28	372.847
1919.43	373.243
1919.57	371.45
1919.72	371.567
1919.87	369.821
1920.01	372.351
1920.16	364.476
1920.31	370.509
1920.45	368.739
1920.6	371.46
1920.75	372.279
1920.89	371.251
1921.04	371.05
1921.19	366.264
1921.33	373.889
1921.48	369.766
1921.63	373.051
1921.77	373.89
1921.92	371.278
1922.07	369.85
1922.21	371.773
1922.36	373.397
1922.51	371.072
1922.65	370.23
1922.8	372.231
1922.95	369.993
1923.09	372.228
1923.24	373.729
1923.39	371.333
1923.53	372.212
1923.68	371.199
1923.83	371.527
1923.97	375.027
1924.12	373.377
1924.27	374.619
1924.41	373.545
1924.56	371.62
1924.71	369.789
1924.85	369.629
1925	368.033
1925.15	371.246
1925.29	370.431
1925.44	372.888
1925.59	372.856
1925.73	369.431
1925.88	370.221
1926.03	371.075
1926.17	371.825
1926.32	374.28
1926.46	373.974
1926.61	375.707
1926.76	374.467
1926.9	375.345
1927.05	371.47
1927.2	373.178
1927.34	371.154
1927.49	370.531
1927.64	376.917
1927.78	372.192
1927.93	367.894
1928.08	368.178
1928.22	369.905
1928.37	373.574
1928.52	373.189
1928.66	373.058
1928.81	372.364
1928.95	370.677
1929.1	374.782
1929.25	373.313
1929.39	371.28
1929.54	368.713
1929.69	370.366
1929.83	372.216
1929.98	376.617
1930.05	380.558
1930.19	370.512
1930.34	369.168
1930.49	374.33
1930.64	374.437
1930.79	373.233
1930.94	372.01
1931.09	370.474
1931.24	369.18
1931.39	376.844
1931.53	373.391
1931.68	365.371
1931.83	372.83
1931.98	371.085
1932.13	372.861
1932.28	375.577
1932.43	369.233
1932.57	374.036
1932.72	371.182
1932.87	370.388
1933.02	373.141
1933.17	369.57
1933.32	371.042
1933.47	374.241
1933.62	375.505
1933.76	373.581
1933.91	373.464
1934.06	372.518
1934.21	373.147
1934.36	370.853
1934.51	372.024
1934.66	377.052
1934.81	370.412
1934.95	376.497
1935.1	375.292
1935.25	373.054
1935.4	371.998
1935.55	374.28
1935.7	376.833
1935.85	373.484
1935.99	372.321
1936.14	374.508
1936.29	374.479
1936.44	371.939
1936.59	371.041
1936.74	372.14
1936.89	374.853
1937.03	368.855
1937.18	373.463
1937.33	369.39
1937.48	377.716
1937.63	375.861
1937.78	373.048
1937.93	368.219
1938.08	376.503
1938.22	370.57
1938.37	374.864
1938.52	368.351
1938.67	393.297
1938.82	372.257
1938.97	370.516
1939.12	369.889
1939.26	371.545
1939.41	374.566
1939.56	379.889
1939.71	368.215
1939.86	372.795
1940.01	371.002
1940.15	371.559
1940.3	373.559
1940.45	376.078
1940.6	375.085
1940.75	381.798
1940.9	372.728
1941.04	368.986
1941.19	370.343
1941.34	369.833
1941.49	370.493
1941.64	374.592
1941.79	378.061
1941.93	380.11
1942.08	374.771
1942.23	370.711
1942.38	369.609
1942.53	372.412
1942.68	380.346
1942.82	375.675
1942.97	374.688
1943.12	374.643
1943.27	380.57
1943.42	374.827
1943.57	380.099
1943.71	382.299
1943.86	372.534
1944.01	380.888
1944.16	374.369
1944.31	375.21
1944.46	376.22
1944.6	375.4
1944.75	371.183
1944.9	378.355
1945.05	371.287
1945.2	371.319
1945.35	374.166
1945.49	377.766
1945.64	375.866
1945.79	378.725
1945.94	372.73
1946.09	375.416
1946.23	374.881
1946.38	367.265
1946.53	376.275
1946.68	375.479
1946.83	374.67
1946.98	373.765
1947.12	376.861
1947.27	374.974
1947.42	376.558
1947.57	371.408
1947.72	374.573
1947.86	375.473
1948.01	372.7
1948.16	377.037
1948.31	377.86
1948.46	376.617
1948.61	377.956
1948.75	373.956
1948.9	373.009
1949.05	375.438
1949.2	369.486
1949.35	371.18
1949.49	377.98
1949.64	371.812
1949.79	373.868
1949.94	374.453
1950.09	370.586
1950.23	372.926
1950.38	371.382
1950.53	375.462
1950.68	379.796
1950.83	376.253
1950.97	378.955
1951.12	375.104
1951.27	370.953
1951.42	372.695
1951.57	370.632
1951.71	372.1
1951.86	377.849
1952.01	373.971
1952.16	374.845
1952.31	377.378
1952.45	370.946
1952.6	371.441
1952.75	375.472
1952.9	375.077
1953.05	377.069
1953.19	374.812
1953.34	372.297
1953.49	374.455
1953.64	372.813
1953.79	377.278
1953.93	369.405
1954.08	380.741
1954.23	374.4
1954.38	379.101
1954.52	380.212
1954.67	373.678
1954.82	371.77
1954.97	382.395
1955.12	373.187
1955.26	375.156
1955.41	370.222
1955.56	376.516
1955.71	380.113
1955.85	373.399
1956	378.358
1956.15	374.428
1956.3	375.129
1956.45	373.142
1956.59	373.384
1956.74	380.418
1956.89	376.736
1957.04	376.777
1957.18	369.93
1957.33	373.134
1957.48	368.415
1957.63	383.149
1957.78	374.748
1957.92	374.382
1958.07	374.335
1958.22	375.196
1958.37	377.066
1958.51	373.634
1958.66	370.67
1958.81	373.104
1958.96	377.47
1959.1	376.626
1959.25	370.995
1959.4	379.383
1959.55	374.316
1959.7	373.872
1959.84	380.19
1959.99	375.476
1960.14	370.357
1960.29	373.066
1960.43	375.642
1960.58	376.211
1960.73	375.418
1960.88	375.97
1961.02	375.462
1961.17	370.233
1961.32	383.744
1961.47	376.432
1961.61	376.465
1961.76	368.478
1961.91	382.969
1962.06	377.047
1962.2	374.342
1962.35	379.017
1962.5	375.967
1962.65	380.981
1962.79	372.946
1962.94	371.074
1963.09	373.795
1963.24	375.065
1963.38	383.091
1963.53	370.337
1963.68	376.685
1963.83	393.573
1963.97	373.45
1964.12	379.721
1964.27	375.829
1964.42	376.108
1964.56	373.524
1964.71	383.18
1964.86	370.435
1965.01	373
1965.15	384.044
1965.3	382.961
1965.45	371.761
1965.6	371.682
1965.74	375.743
1965.89	378.604
1966.04	378.688
1966.19	376.048
1966.33	374.447
1966.48	385.684
1966.63	373.173
1966.77	376.085
1966.92	375.178
1967.07	374.218
1967.22	376.102
1967.36	379.724
1967.51	381.622
1967.66	381.234
1967.81	378.656
1967.95	380.599
1968.1	377.456
1968.25	379.161
1968.39	375.077
1968.54	373.993
1968.69	377.557
1968.84	374.404
1968.98	380.048
1969.13	377.106
1969.28	372.261
1969.43	373.284
1969.57	373.597
1969.72	377.226
1969.87	375.095
1970.01	376.497
1970.16	371.65
1970.31	375.071
1970.46	380.675
1970.6	375.553
1970.75	373.148
1970.9	374.825
1971.04	381.948
1971.19	372.011
1971.34	370.769
1971.49	376.777
1971.63	377.189
1971.78	383.913
1971.93	378.141
1972.07	372.895
1972.22	372.239
1972.37	371.533
1972.52	375.514
1972.66	372.707
1972.81	389.259
1972.96	372.942
1973.1	377.181
1973.25	376.13
1973.4	369.797
1973.55	373.466
1973.69	377.949
1973.84	373.865
1973.99	373.935
1974.13	377.231
1974.28	367.909
1974.43	372.863
1974.57	374.064
1974.72	373.565
1974.87	374.079
1975.02	373.81
1975.16	376.522
1975.31	372.658
1975.46	373.619
1975.6	374.728
1975.75	371.02
1975.9	377.464
1976.04	377.04
1976.19	380.956
1976.34	380.552
1976.49	376.984
1976.63	382.1
1976.78	373.266
1976.93	377.272
1977.07	380.805
1977.22	375.738
1977.37	382.793
1977.51	378.262
1977.66	379.518
1977.81	380.687
1977.95	377.185
1978.1	375.675
1978.25	377.143
1978.39	372.912
1978.54	373.467
1978.69	377.306
1978.84	376.186
1978.98	374.717
1979.13	378.922
1979.28	376.376
1979.42	369.142
1979.57	375.026
1979.72	373.138
1979.86	376.525
1980.01	380.745
1980.16	375.743
1980.3	375.014
1980.45	381.385
1980.6	382.646
1980.74	376.724
1980.89	394.89
1981.04	375.175
1981.18	375.745
1981.33	373.08
1981.48	379.407
1981.62	374.824
1981.77	381.966
1981.92	374.989
1982.06	375.057
1982.21	377.097
1982.36	379.599
1982.5	375.815
1982.65	372.753
1982.8	374.276
1982.94	376.041
1983.09	373.323
1983.24	376.079
1983.38	375.381
1983.53	376.029
1983.68	373.531
1983.82	373.463
1983.97	375.176
1984.12	369.874
1984.26	375.467
1984.41	369.231
1984.56	375.588
1984.7	374.223
1984.85	374.281
1985	375.602
1985.14	380.304
1985.29	374.86
1985.44	378.448
1985.58	376.536
1985.73	374.258
1985.88	375.343
1986.02	376.465
1986.17	380.148
1986.32	381.136
1986.46	375.015
1986.61	379.168
1986.75	379.72
1986.9	377.615
1987.05	373.684
1987.2	378.525
1987.34	374.384
1987.49	377.801
1987.63	373.375
1987.78	377.444
1987.93	375.717
1988.07	375.855
1988.22	375.017
1988.37	374.547
1988.51	373.852
1988.66	379.727
1988.81	371.419
1988.95	375.858
1989.1	376.171
1989.24	383.92
1989.39	375.909
1989.54	374.004
1989.68	375.707
1989.83	373.961
1989.98	375.79
1990.12	370.568
1990.27	377.068
1990.42	380.148
1990.56	378.826
1990.71	375.262
1990.85	376.821
1991	379.018
1991.15	374.76
1991.29	380.185
1991.44	382.494
1991.59	374.509
1991.73	374.081
1991.88	380.812
1992.02	375.43
1992.17	375.85
1992.32	381.954
1992.46	372.638
1992.61	382.707
1992.76	377.491
1992.9	378.64
1993.05	381.826
1993.19	376.202
1993.34	374.752
1993.49	376.473
1993.63	375.068
1993.78	372.477
1993.93	377.325
1994.07	376.907
1994.22	375.931
1994.36	374.452
1994.51	373.026
1994.66	379.717
1994.8	376.914
1994.95	378.27
1995.1	377.061
1995.24	376.602
1995.39	374.715
1995.53	372.787
1995.68	367.961
1995.83	376.887
1995.97	374.813
1996.12	378.326
1996.27	377.876
1996.41	372.692
1996.56	375.259
1996.7	375.114
1996.85	375.053
1996.99	370.646
1997.14	381.451
1997.29	374.321
1997.43	383.889
1997.58	379.975
1997.73	379.941
1997.87	372.579
1998.02	372.748
1998.16	371.189
1998.31	378.292
1998.46	379.086
1998.6	373.017
1998.75	380.528
1998.89	375.182
1999.04	371.09
1999.18	375.372
1999.33	374.426
1999.48	378.35
1999.62	374.166
1999.77	375.342
1999.92	372.632
2000.06	371.971
2000.21	383.731
2000.35	377.606
2000.5	371.645
2000.64	374.838
2000.79	377.82
2000.94	380.026
2001.08	368.614
2001.23	383.474
2001.37	382.222
2001.52	378.822
2001.67	377.937
2001.81	382.206
2001.96	374.563
2002.1	380
2002.25	379.348
2002.4	379.014
2002.54	373.615
2002.69	378.559
2002.83	372.626
2002.98	370.057
2003.12	373.93
2003.27	376.976
2003.42	382.377
2003.56	375.13
2003.71	379.809
2003.85	375.233
2004	375.226
2004.14	372.255
2004.29	370.057
2004.44	378.433
2004.58	376.5
2004.73	376.01
2004.87	378.597
2005.02	378.573
2005.16	377.157
2005.31	377.067
2005.46	378.446
2005.6	371.141
2005.75	377.263
2005.89	369.189
2006.04	384.549
2006.19	377.369
2006.33	374.25
2006.48	376.523
2006.62	375.735
2006.77	372.491
2006.91	375.117
2007.06	377.029
2007.21	370.584
2007.35	372.396
2007.5	369.267
2007.64	379.416
2007.79	379.091
2007.93	379.78
2008.08	376.057
2008.22	378.398
2008.37	380.386
2008.52	377.352
2008.66	375.338
2008.81	377.185
2008.95	374.615
2009.1	374.231
2009.24	381.595
2009.39	371.189
2009.53	373.044
2009.68	384.384
2009.83	376.409
2009.97	378.779
2010.12	379.276
2010.26	375.391
2010.41	374.864
2010.55	378.311
2010.7	373.396
2010.84	377.836
2010.99	376.17
2011.13	372.136
2011.28	376.579
2011.43	374.274
2011.57	374.102
2011.72	374.487
2011.86	370.923
2012.01	373.224
2012.15	374.296
2012.3	371.124
2012.44	379.634
2012.59	379.951
2012.73	377.271
2012.88	375.797
2013.03	373.11
2013.17	373.223
2013.32	371.539
2013.46	372.741
2013.61	384.716
2013.75	375.223
2013.9	375.068
2014.04	381.248
2014.19	379.405
2014.33	379.45
2014.48	375.149
2014.62	378.6
2014.77	381.093
2014.91	375.156
2015.06	373.518
2015.21	378.042
2015.35	378.059
2015.5	375.79
2015.64	377.214
2015.79	377.677
2015.93	377.383
2016.08	372.439
2016.22	377.812
2016.37	371.055
2016.51	377.089
2016.66	379.451
2016.8	375.718
2016.95	373.575
2017.09	374.798
2017.24	371.873
2017.38	376.419
2017.53	378.597
2017.67	378.817
2017.82	375.438
2017.96	379.016
2018.11	373.571
2018.26	375.008
2018.4	378.127
2018.55	378.193
2018.69	375.222
2018.84	379.886
2018.98	381.029
2019.13	378.495
2019.27	372.272
2019.42	373.632
2019.56	383.949
2019.71	371.505
2019.85	375.015
2020	374.21
2020.14	374.396
2020.29	375.248
2020.43	372.156
2020.58	375.479
2020.72	379.828
2020.87	378.424
2021.01	379.067
2021.16	379.835
2021.3	370.03
2021.45	373.187
2021.59	378.674
2021.74	372.802
2021.88	378.256
2022.03	372.865
2022.17	373.934
2022.32	375.596
2022.46	378.324
2022.61	375.48
2022.75	376.003
2022.9	371.418
2023.04	377.544
2023.19	371.74
2023.33	379.844
2023.48	376.276
2023.62	376.203
2023.77	377.697
2023.91	380.122
2024.06	384.252
2024.2	373.896
2024.35	373.639
2024.49	375.218
2024.64	373.025
2024.78	381.498
2024.93	373.653
2025.07	376.972
2025.22	377.268
2025.36	378.711
2025.51	378.042
2025.65	377.998
2025.8	374.568
2025.94	377.964
2026.09	376.073
2026.23	374.698
2026.38	377.75
2026.52	376.43
2026.67	380.268
2026.81	377.232
2026.95	378.663
2027.1	379.318
2027.24	372.53
2027.39	375.178
2027.53	380.739
2027.68	382.045
2027.82	378.95
2027.97	371.629
2028.11	377.185
2028.26	381.87
2028.4	374
2028.55	380.463
2028.69	373.935
2028.84	379.553
2028.98	377.945
2029.13	383.569
2029.27	382.61
2029.42	373.795
2029.56	376.476
2029.71	380.419
2029.85	380.757
2029.99	373.646
2030.14	372.908
2030.28	382.217
2030.43	375.613
2030.57	377.654
2030.72	377.193
2030.86	380.647
2031.01	379.168
2031.15	382.978
2031.3	379.039
2031.44	376.499
2031.59	376.646
2031.73	374.906
2031.87	374.242
2032.02	377.372
2032.16	376.998
2032.31	375.624
2032.45	373.912
2032.6	375.311
2032.74	374.399
2032.89	377.211
2033.03	378.992
2033.18	376.54
2033.32	375.895
2033.47	379.443
2033.61	375.21
2033.75	375.467
2033.9	380.145
2034.04	375.914
2034.19	378.264
2034.33	377.581
2034.48	376.589
2034.62	378.954
2034.77	375.735
2034.91	375.538
2035.05	380.825
2035.2	380.874
2035.34	384.827
2035.49	376.394
2035.63	379.071
2035.78	376.195
2035.92	382.328
2036.07	380.056
2036.21	377.26
2036.35	379.206
2036.5	375.465
2036.64	369.26
2036.79	378.415
2036.93	379.028
2037.08	375.668
2037.22	384.148
2037.37	375.105
2037.51	377.803
2037.65	379.55
2037.8	381.978
2037.94	379.199
2038.09	377.952
2038.23	374.458
2038.37	373.327
2038.52	378.598
2038.66	378.989
2038.81	380.268
2038.95	376.24
2039.1	377.211
2039.24	376.049
2039.39	376.388
2039.53	379.094
2039.67	384.007
2039.82	376.072
2039.96	370.301
2040.11	382.491
2040.25	381.363
2040.39	378.769
2040.54	374.843
2040.68	380.182
2040.83	384.265
2040.97	375.54
2041.12	380.593
2041.26	377.758
2041.41	378.617
2041.55	400.583
2041.69	377.086
2041.84	379.254
2041.98	374.709
2042.13	377.095
2042.27	378.146
2042.41	377.442
2042.56	374.605
2042.7	375.129
2042.85	375.355
2042.99	377.765
2043.13	376.613
2043.28	380.748
2043.42	382.395
2043.57	381.269
2043.71	378.765
2043.86	381.095
2044	377.338
2044.14	382.23
2044.29	377.245
2044.43	378.698
2044.58	377.958
2044.72	377.898
2044.86	371.613
2045.01	385.58
2045.15	372.028
2045.3	384.265
2045.44	379.342
2045.58	378.274
2045.73	377.537
2045.87	378.414
2046.02	379.184
2046.16	383.821
2046.3	385.936
2046.45	383.188
2046.59	386.316
2046.74	379.757
2046.88	382.88
2047.02	381.99
2047.17	383.049
2047.31	376.024
2047.46	382.947
2047.6	380.067
2047.74	380.047
2047.89	380.917
2048.03	378.771
2048.17	375.021
2048.32	382.711
2048.46	379.272
2048.61	382.945
2048.75	374.893
2048.89	382.091
2049.04	391.066
2049.18	379.011
2049.33	377.703
2049.47	376.681
2049.61	381.931
2049.76	381.72
2049.9	380.391
2050.05	376.58
2050.19	380.317
2050.33	375.24
2050.48	381.781
2050.62	379.313
2050.76	381.755
2050.91	378.548
2051.05	379.843
2051.2	374.813
2051.34	380.326
2051.48	379.2
2051.63	384.029
2051.77	379.782
2051.92	383.637
2052.06	378.147
2052.2	377.139
2052.35	378.293
2052.49	377.075
2052.63	378.549
2052.78	378.111
2052.92	378.49
2053.06	382.021
2053.21	380.024
2053.35	383.396
2053.49	378.065
2053.64	371.913
2053.78	381.286
2053.93	377.353
2054.07	378.017
2054.21	378.725
2054.36	376.105
2054.5	379.623
2054.64	379.361
2054.79	377.877
2054.93	384.114
2055.08	378.958
2055.22	381.644
2055.36	384.487
2055.51	383.751
2055.65	374.764
2055.79	377.936
2055.94	379.428
2056.08	378.592
2056.22	379.08
2056.37	381.902
2056.51	379.437
2056.65	379.037
2056.8	378.526
2056.94	375.713
2057.08	382.531
2057.23	378.679
2057.37	380.787
2057.52	382.703
2057.66	378.161
2057.8	380.953
2057.95	383.911
2058.09	377.191
2058.23	384.458
2058.38	379.38
2058.52	381.414
2058.66	380.086
2058.81	380.33
2058.95	380.325
2059.09	385.255
2059.24	379.894
2059.38	382.27
2059.52	378.813
2059.67	385.043
2059.81	378.98
2059.96	384.456
2060.1	384.259
2060.24	383.065
2060.39	380.906
2060.53	387.131
2060.67	381.968
2060.81	381.281
2060.96	380.06
2061.1	385.656
2061.24	383.012
2061.39	381.604
2061.53	382.429
2061.67	383.904
2061.82	382.278
2061.96	375.03
2062.1	380.007
2062.25	385.376
2062.39	376.326
2062.54	383.596
2062.68	379.561
2062.82	382.847
2062.97	385.758
2063.11	384.138
2063.25	379.416
2063.4	382.367
2063.54	386.224
2063.68	384.776
2063.83	377.401
2063.97	378.506
2064.11	387.648
2064.25	380.93
2064.4	383.459
2064.54	386.601
2064.68	386.721
2064.83	380.579
2064.97	380.8
2065.11	381.588
2065.26	386.291
2065.4	378.665
2065.54	387.065
2065.69	378.986
2065.83	381.609
2065.97	377.261
2066.12	380.722
2066.26	381.226
2066.4	381.905
2066.54	387.943
2066.69	382.549
2066.83	386.44
2066.97	379.447
2067.12	381.934
2067.26	383.939
2067.4	392.364
2067.55	382.203
2067.69	381.152
2067.83	388.52
2067.98	376.591
2068.12	382.033
2068.26	388.999
2068.41	384.69
2068.55	381.381
2068.69	381.144
2068.83	377.794
2068.98	381.351
2069.12	381.201
2069.26	383.759
2069.41	388.047
2069.55	379.414
2069.69	379.36
2069.84	381.667
2069.98	377.23
2070.12	382.978
2070.26	382.135
2070.41	383.121
2070.55	383.386
2070.69	384.456
2070.84	384.997
2070.98	383.409
2071.12	379.892
2071.27	384.099
2071.41	381.367
2071.55	376.773
2071.69	381.906
2071.84	385.241
2071.98	385.91
2072.12	386.381
2072.27	380.073
2072.41	380.964
2072.55	378.95
2072.69	382.6
2072.84	388.515
2072.98	385.167
2073.12	380.664
2073.27	383.64
2073.41	380.477
2073.55	379.247
2073.69	388.326
2073.84	381.678
2073.98	379.406
2074.12	386.807
2074.27	384.356
2074.41	382.907
2074.55	386.899
2074.69	387.061
2074.84	378.571
2074.98	379.025
2075.12	381.08
2075.26	377.332
2075.41	387.195
2075.55	381.403
2075.69	384.446
2075.84	378.63
2075.98	377.591
2076.12	388.158
2076.26	380.916
2076.41	385.034
2076.55	381.135
2076.69	384.071
2076.83	380.505
2076.98	380.345
2077.12	385.104
2077.26	377.447
2077.41	380.635
2077.55	385.451
2077.69	384.658
2077.83	383.375
2077.98	385.494
2078.12	384.194
2078.26	385.786
2078.4	381.375
2078.55	382.359
2078.69	379.558
2078.83	384.125
2078.97	381.471
2079.12	385.883
2079.26	384.785
2079.4	388.873
2079.54	380.917
2079.69	386.544
2079.83	381.975
2079.97	379.046
2080.11	388.242
2080.26	386.065
2080.4	383.088
2080.54	386.105
2080.68	377.087
2080.83	380.344
2080.97	381.142
2081.11	393.515
2081.25	385.916
2081.4	386.308
2081.54	393.213
2081.68	383.983
2081.82	392.063
2081.97	384.633
2082.11	386.983
2082.25	382.689
2082.4	388.892
2082.54	382.768
2082.68	385.674
2082.82	382.523
2082.96	381.907
2083.11	380.626
2083.25	382.388
2083.39	389.738
2083.53	387.487
2083.68	387.895
2083.82	390.552
2083.96	380.452
2084.1	380.509
2084.25	387.151
2084.39	390.909
2084.53	388.105
2084.67	392.656
2084.82	381.44
2084.96	381.98
2085.1	388.156
2085.24	383.238
2085.39	381.29
2085.53	381.876
2085.67	384.572
2085.81	387.341
2085.95	384.701
2086.1	383.651
2086.24	385.111
2086.38	385.468
2086.52	390.174
2086.67	382.733
2086.81	383.732
2086.95	383.342
2087.09	387.692
2087.23	391.85
2087.38	388.104
2087.52	386.129
2087.66	380.979
2087.8	387.376
2087.95	390.105
2088.09	385.676
2088.23	386.925
2088.37	389.525
2088.51	386.677
2088.66	382.529
2088.8	390.158
2088.94	392.951
2089.08	384.432
2089.23	382.256
2089.37	388.604
2089.51	386.732
2089.65	386.654
2089.79	388.419
2089.94	390.825
2090.08	387.333
2090.22	385.521
2090.36	389.052
2090.5	386.639
2090.65	381.074
2090.79	387.029
2090.93	392.758
2091.07	378.442
2091.22	391.66
2091.36	381.792
2091.5	389.448
2091.64	386.768
2091.78	385.324
2091.93	388.707
2092.07	386.449
2092.21	384.025
2092.35	385.447
2092.49	381.999
2092.64	387.651
2092.78	389.056
2092.92	387.33
2093.06	388.534
2093.2	385.694
2093.34	382.197
2093.49	387.944
2093.63	387.611
2093.77	390.73
2093.91	387.738
2094.05	383.725
2094.2	385.274
2094.34	383.212
2094.48	383.413
2094.62	387.846
2094.76	384.235
2094.91	387.378
2095.05	390.043
2095.19	385.394
2095.33	384.792
2095.47	384.679
2095.62	392.215
2095.76	389.806
2095.9	387.893
2096.04	392.175
2096.18	387.306
2096.33	388.508
2096.47	387.807
2096.61	387.876
2096.75	387.105
2096.89	381.764
2097.03	383.023
2097.18	388.199
2097.32	389.036
2097.46	386.324
2097.6	400.461
2097.74	385.515
2097.89	385.682
2098.03	384.647
2098.17	384.998
2098.31	388.078
2098.45	384.707
2098.59	387.963
2098.74	389.095
2098.88	384.342
2099.02	384.137
2099.16	389.208
2099.3	391.366
2099.45	389.273
2099.59	383.902
2099.73	384.805
2099.87	384.83
2100.01	392.064
2100.15	387.512
2100.3	390.03
2100.44	388.003
2100.58	387.183
2100.72	390.014
2100.86	384.068
2101	385.701
2101.15	391.499
2101.29	389.146
2101.43	392.889
2101.57	387.452
2101.71	383.339
2101.85	390.742
2102	384.336
2102.14	390.38
2102.28	392.859
2102.42	389.019
2102.56	392.884
2102.7	398.236
2102.84	403.68
2102.99	391.798
2103.13	392.403
2103.27	384.763
2103.41	389.261
2103.55	393.137
2103.69	386.661
2103.84	381.899
2103.98	390.981
2104.12	389.382
2104.26	385.273
2104.4	388.878
2104.54	390.134
2104.69	392.948
2104.83	384.728
2104.97	386.962
2105.11	390.818
2105.25	385.738
2105.39	388.618
2105.53	386.384
2105.67	385.939
2105.82	390.8
2105.96	387.944
2106.1	384.873
2106.24	388.663
2106.38	385.957
2106.52	393.909
2106.67	393.624
2106.81	390.308
2106.95	386.066
2107.09	391.52
2107.23	387.112
2107.37	393.997
2107.51	387.202
2107.66	384.472
2107.8	399.326
2107.94	390.99
2108.08	388.088
2108.22	392.778
2108.36	384.16
2108.5	394.422
2108.64	390.895
2108.79	390.364
2108.93	397.487
2109.07	392.487
2109.21	395.662
2109.35	385.84
2109.49	393.112
2109.63	387.578
2109.78	392.537
2109.92	388.979
2110.06	391.045
2110.2	392.542
2110.34	392.476
2110.48	389.482
2110.62	391.541
2110.76	387.591
2110.9	388.589
2111.05	394.316
2111.19	391.509
2111.33	391.941
2111.47	393.42
2111.61	395.933
2111.75	390.152
2111.89	392.569
2112.03	398.049
2112.18	390.296
2112.32	391.729
2112.46	391.453
2112.6	390.71
2112.74	395.301
2112.88	387.739
2113.02	390.584
2113.16	383.912
2113.31	389.929
2113.45	395.374
2113.59	392.125
2113.73	386.567
2113.87	383.166
2114.01	391.991
2114.15	392.327
2114.29	392.641
2114.43	390.069
2114.57	388.408
2114.72	384.08
2114.86	391.131
2115	400.156
2115.14	393.07
2115.28	393.139
2115.42	392.625
2115.56	392.635
2115.7	385.92
2115.84	393.086
2115.98	392.557
2116.13	389.841
2116.27	387.506
2116.41	393.489
2116.55	387.248
2116.69	391.428
2116.83	391.093
2116.97	389.513
2117.11	394.787
2117.25	391.728
2117.4	395.144
2117.54	391.893
2117.68	385.85
2117.82	395.089
2117.96	388.031
2118.1	392.797
2118.24	392.95
2118.38	388.577
2118.52	390.874
2118.66	387.771
2118.8	388.374
2118.95	387.533
2119.09	389.065
2119.23	390.932
2119.37	393.523
2119.51	391.499
2119.65	387.355
2119.79	389.637
2119.93	389.424
2120.07	397.838
2120.21	389.444
2120.35	394.878
2120.49	400.824
2120.64	392.552
2120.78	388.044
2120.92	395.318
2121.06	394.545
2121.2	390.964
2121.34	386.808
2121.48	392.411
2121.62	386.777
2121.76	398.86
2121.9	391.523
2122.04	391.826
2122.18	394.168
2122.32	389.494
2122.46	391.882
2122.61	394.4
2122.75	392.737
2122.89	391.029
2123.03	390.901
2123.17	396.077
2123.31	393.42
2123.45	395.821
2123.59	393.829
2123.73	393.79
2123.87	392.825
2124.01	392.83
2124.15	391.941
2124.29	399.419
2124.44	387.593
2124.58	389.486
2124.72	391.875
2124.86	397.493
2125	396.455
2125.14	391.895
2125.28	393.734
2125.42	395.564
2125.56	390.507
2125.7	391.682
2125.84	391.19
2125.98	389.745
2126.12	392.923
2126.26	393.294
2126.4	392.557
2126.54	392.15
2126.68	393.693
2126.83	393.444
2126.97	388.943
2127.11	396.945
2127.25	393.587
2127.39	395.183
2127.53	399.807
2127.67	395.753
2127.81	395.699
2127.95	400.209
2128.09	396.301
2128.23	398.93
2128.37	394.231
2128.51	387.62
2128.65	393.655
2128.79	395.8
2128.93	392.761
2129.07	395.844
2129.21	401.607
2129.35	396.913
2129.49	408.971
2129.64	395.642
2129.78	395.671
2129.92	391.154
2130.06	392.335
2130.2	395.124
2130.34	399.385
2130.48	397.591
2130.62	397.617
2130.76	389.074
2130.9	394.288
2131.04	395.834
2131.18	401.573
2131.32	391.705
2131.46	391.602
2131.6	393.667
2131.74	392.35
2131.88	394.158
2132.02	394.827
2132.16	397.305
2132.3	394.442
2132.44	402.201
2132.58	396.72
2132.72	399.076
2132.86	391.469
2133	396.786
2133.14	393.129
2133.28	398.336
2133.43	396.061
2133.57	396.798
2133.7	392.629
2133.84	393.467
2133.99	397.868
2134.13	397.278
2134.27	400.114
2134.41	394.809
2134.55	393.567
2134.69	392.623
2134.83	392.003
2134.97	393.16
2135.11	391.63
2135.25	390.714
2135.39	392.843
2135.53	392.287
2135.67	394.179
2135.81	397.314
2135.95	394.701
2136.09	396.629
2136.23	396.397
2136.37	397.47
2136.51	395.895
2136.65	395.817
2136.79	394.991
2136.93	396.491
2137.07	395.894
2137.21	394.034
2137.35	393.346
2137.49	397.729
2137.63	399.729
2137.77	401.674
2137.91	393.874
2138.05	396.286
2138.19	399.785
2138.33	399.581
2138.47	393.505
2138.61	393.22
2138.75	396.448
2138.89	401.507
2139.03	398.261
2139.17	396.023
2139.31	396.447
2139.45	398.401
2139.59	397.559
2139.73	394.427
2139.87	396.25
2140.01	394.611
2140.15	395.538
2140.29	396.295
2140.43	398.17
2140.57	397.422
2140.71	397.908
2140.85	395.331
2140.99	397.141
2141.13	398.109
2141.27	397.661
2141.41	394.872
2141.55	394.93
2141.69	395.033
2141.83	396.03
2141.97	397.27
2142.11	395.424
2142.25	400.636
2142.39	399.043
2142.53	395.944
2142.67	397.33
2142.81	396.071
2142.95	397.133
2143.09	395.543
2143.23	397.644
2143.37	398.707
2143.51	395.463
2143.65	396.369
2143.79	399.725
2143.93	400.705
2144.07	396.829
2144.21	395.388
2144.35	397.636
2144.49	396.749
2144.63	395.431
2144.77	397.845
2144.91	402.571
2145.05	392.317
2145.19	394.402
2145.33	397.748
2145.45	399.177
2145.59	395.515
2145.73	395.322
2145.87	399.68
2146.02	396.198
2146.16	404.134
2146.3	394.203
2146.44	400.42
2146.58	397.87
2146.73	394.254
2146.87	394.898
2147.01	398.947
2147.15	400.075
2147.29	398.669
2147.44	399.965
2147.58	398.732
2147.72	398.513
2147.86	400.432
2148.01	402.086
2148.15	393.001
2148.29	390.878
2148.43	398.95
2148.57	394.925
2148.72	397.532
2148.86	401.898
2149	399.6
2149.14	403.609
2149.29	401.917
2149.43	394.663
2149.57	399.596
2149.71	406.03
2149.85	399.712
2150	395.358
2150.14	400.851
2150.28	391.572
2150.42	399.227
2150.56	397.447
2150.71	399.169
2150.85	397.844
2150.99	399.024
2151.13	395.065
2151.27	394.47
2151.42	404.788
2151.56	395.887
2151.7	405.32
2151.84	393.24
2151.98	399.195
2152.12	396.622
2152.27	402.106
2152.41	397.424
2152.55	396.865
2152.69	395.131
2152.84	404.948
2152.98	396.911
2153.12	402.1
2153.26	398.114
2153.4	400.656
2153.55	399.726
2153.69	398.508
2153.83	396.22
2153.97	395.362
2154.11	401.438
2154.25	401.168
2154.4	401.324
2154.54	396.608
2154.68	415.287
2154.82	404.449
2154.96	400.818
2155.11	406.392
2155.25	397.512
2155.39	397.799
2155.53	399.6
2155.67	397.854
2155.81	396.479
2155.96	403.342
2156.1	405.081
2156.24	397.308
2156.38	405.764
2156.52	399.442
2156.67	397.858
2156.81	402.674
2156.95	396.921
2157.09	393.575
2157.23	404.386
2157.37	399.472
2157.52	400.303
2157.66	400.315
2157.8	401.128
2157.94	406.071
2158.08	395.483
2158.22	394.693
2158.37	402.848
2158.51	394.596
2158.65	396.974
2158.79	399.859
2158.93	405.006
2159.07	411.97
2159.22	396.171
2159.36	405.234
2159.5	396.724
2159.64	394.092
2159.78	400.751
2159.92	398.021
2160.07	397.786
2160.21	402.812
2160.35	405.403
2160.49	397.983
2160.63	399.835
2160.77	401.996
2160.92	401.339
2161.06	398.946
2161.2	402.592
2161.34	404.089
2161.48	400.469
2161.62	400.881
2161.77	402.732
2161.91	398.976
2162.05	403.753
2162.19	404.425
2162.33	395.98
2162.47	399.668
2162.61	401.207
2162.76	399.451
2162.9	393.915
2163.04	396.277
2163.18	394.126
2163.32	404.044
2163.46	407.774
2163.61	402.891
2163.75	399.032
2163.89	395.508
2164.03	395.206
2164.17	403.696
2164.31	404.246
2164.45	400.912
2164.6	402.149
2164.74	403.899
2164.88	398.459
2165.02	400.794
2165.16	398.143
2165.3	397.986
2165.44	396.932
2165.59	403.874
2165.73	399.769
2165.87	407.626
2166.01	402.146
2166.15	400.866
2166.29	396.632
2166.43	400.45
2166.58	403.052
2166.72	403.311
2166.86	399.241
2167	403.298
2167.14	396.516
2167.28	404.042
2167.42	400.29
2167.56	398.587
2167.71	398.514
2167.85	403.476
2167.99	398.382
2168.13	397.328
2168.27	398.463
2168.41	400.855
2168.55	402.823
2168.7	406.901
2168.84	396.213
2168.98	399.479
2169.12	394.572
2169.26	400.859
2169.4	405.928
2169.54	402.346
2169.68	396.285
2169.82	397.737
2169.97	397.235
2170.11	402.728
2170.25	397.151
2170.39	409.267
2170.53	399.723
2170.67	398.128
2170.81	396.727
2170.95	397.599
2171.1	396.302
2171.24	406.736
2171.38	402.578
2171.52	402.55
2171.66	400.23
2171.8	396.636
2171.94	406.801
2172.08	398.059
2172.23	406.248
2172.37	399.997
2172.51	408.488
2172.65	400.687
2172.79	395.649
2172.93	400.022
2173.07	399.038
2173.21	400.071
2173.35	396.151
2173.5	399.234
2173.64	395.728
2173.78	401.389
2173.92	406.55
2174.06	405.522
2174.2	401.845
2174.34	407.97
2174.48	401.156
2174.62	398.227
2174.76	396.348
2174.91	399.614
2175.05	403.144
2175.19	398.53
2175.33	401.935
2175.47	400.404
2175.61	400.253
2175.75	401.547
2175.89	403.715
2176.03	401.672
2176.18	402.348
2176.32	394.428
2176.46	396.663
2176.6	401.862
2176.74	401.788
2176.88	398.656
2177.02	397.391
2177.16	395.326
2177.3	397.713
2177.44	404.895
2177.58	399.504
2177.73	397.161
2177.87	397.512
2178.01	404.765
2178.15	399.341
2178.29	403.161
2178.43	403.483
2178.57	397.353
2178.71	410.829
2178.85	403.09
2178.99	401.471
2179.13	404.502
2179.27	399.502
2179.42	399.656
2179.56	407.348
2179.7	399.591
2179.84	399.537
2179.98	398.017
2180.12	401.346
2180.26	406.151
2180.4	400.189
2180.54	404.176
2180.68	402.63
2180.82	406.406
2180.96	401.48
2181.1	400.256
2181.25	405.694
2181.39	399.001
2181.53	403.035
2181.67	405.95
2181.81	402.821
2181.95	397.463
2182.09	402.603
2182.23	403.258
2182.37	399.039
2182.51	399.756
2182.65	395.286
2182.79	401.394
2182.93	402.473
2183.08	400.65
2183.22	396.678
2183.36	399.702
2183.5	399.548
2183.64	397.348
2183.78	399.404
2183.92	403.023
2184.06	401.595
2184.2	401.719
2184.34	400.962
2184.48	402.206
2184.62	396.569
2184.76	399.678
2184.9	399.77
2185.04	404.333
2185.18	401.238
2185.33	401.058
2185.47	403.033
2185.61	399.436
2185.75	409.225
2185.89	404.625
2186.03	399.955
2186.17	401.463
2186.31	402.333
2186.45	404.574
2186.59	397.993
2186.73	403.055
2186.87	407.771
2187.01	403.034
2187.15	392.816
2187.29	410.632
2187.43	399.182
2187.57	398.397
2187.71	402.69
2187.85	396.81
2188	396.538
2188.14	396.748
2188.28	395.623
2188.42	399.691
2188.56	398.695
2188.7	402.498
2188.84	401.679
2188.98	400.44
2189.12	399.846
2189.26	403.988
2189.4	405.039
2189.54	399.641
2189.68	403.543
2189.82	395.378
2189.96	402.366
2190.1	394.603
2190.24	401.7
2190.38	402.776
2190.52	401.359
2190.66	398.235
2190.8	399.008
2190.94	404.385
2191.08	394.664
2191.22	405.211
2191.36	401.504
2191.51	394.302
2191.65	402.211
2191.79	395.181
2191.93	397.059
2192.07	396.153
2192.21	401.936
2192.35	402.154
2192.49	396.993
2192.63	402.271
2192.77	398.38
2192.91	395.874
2193.05	397.801
2193.19	396.598
2193.33	396.174
2193.47	402.808
2193.61	404.202
2193.75	399.583
2193.89	401.088
2194.03	396.29
2194.17	398.744
2194.31	396.793
2194.45	398.593
2194.59	403.251
2194.73	394.805
2194.87	395
2195.01	408.479
2195.15	399.45
2195.29	401.705
2195.43	402.017
2195.57	398.464
2195.71	398.861
2195.85	403.956
2195.99	402.383
2196.13	401.437
2196.27	400.068
2196.41	400.535
2196.55	397.69
2196.69	405.274
2196.83	402.067
2196.97	402.914
2197.11	404.107
2197.25	403.186
2197.39	396.869
2197.53	396.72
2197.67	398.485
2197.81	401.785
2197.95	402.176
2198.09	401.012
2198.23	398.735
2198.37	398.253
2198.51	401.591
2198.65	404.305
2198.79	402.375
2198.93	400.273
2199.07	399.87
2199.21	403.003
2199.35	400.75
2199.49	399.771
2199.63	402.258
2199.77	399.127
2199.91	396.297
2200.05	396.587
2200.19	404.029
2200.33	402.621
2200.47	401.17
2200.61	400.672
2200.75	400.894
2200.89	403.788
2201.03	404.515
2201.17	399.219
2201.31	401.187
2201.45	402.615
2201.59	403.678
2201.73	400.649
2201.87	399.647
2202.01	399.794
2202.15	400.29
2202.29	397.473
2202.43	406.599
2202.57	402.737
2202.71	399.525
2202.85	409.591
2202.99	403.855
2203.13	397.34
2203.27	402.156
2203.41	398.368
2203.55	396.143
2203.69	398.865
2203.83	396.345
2203.97	401.938
2204.11	398.617
2204.25	401.755
2204.39	393.724
2204.53	401.677
2204.67	401.911
2204.81	402.174
2204.95	403.446
2205.09	401.394
2205.23	397.327
2205.37	396.414
2205.51	402.198
2205.65	400.682
2205.79	400.256
2205.93	397.107
2206.07	398.047
2206.21	408.377
2206.35	398.497
2206.49	404.358
2206.63	399.036
2206.77	397.734
2206.91	403.067
2207.04	400.519
2207.18	401.883
2207.32	404.644
2207.46	400.457
2207.6	399.669
2207.74	399.494
2207.88	397.404
2208.02	396.584
2208.16	407.461
2208.3	399.233
2208.44	404.208
2208.58	399.785
2208.72	402.073
2208.86	402.268
2209	398.69
2209.14	398.964
2209.28	399.345
2209.42	405.017
2209.56	401.128
2209.7	408.69
2209.84	396.611
2209.98	402.534
2210.12	401.892
2210.26	400.037
2210.4	401.274
2210.53	396.874
2210.67	397.521
2210.81	402.548
2210.95	398.282
2211.09	398.27
2211.23	400.557
2211.37	397.985
2211.51	405.018
2211.65	400.227
2211.79	402.555
2211.93	403.988
2212.07	400.312
2212.21	401.397
2212.35	396.13
2212.49	401.454
2212.63	400.539
2212.77	404.302
2212.91	403.362
2213.05	401.253
2213.19	402.046
2213.32	402.046
2213.46	410.186
2213.6	405.824
2213.74	402.157
2213.88	401.709
2214.02	400.213
2214.16	404.163
2214.3	406.766
2214.44	408.161
2214.58	403.727
2214.72	398.439
2214.86	400.828
2215	398.327
2215.14	398.642
2215.28	404.259
2215.41	395.355
2215.55	403.005
2215.69	397.667
2215.83	412.606
2215.97	401.721
2216.11	403.153
2216.25	401.598
2216.39	404.775
2216.53	402.37
2216.67	402.615
2216.81	407.465
2216.95	403.978
2217.09	402.614
2217.23	399.791
2217.37	400.028
2217.5	404.17
2217.64	400.228
2217.78	403.11
2217.92	399.647
2218.06	399.624
2218.2	400.237
2218.34	406.173
2218.48	407.954
2218.62	402.535
2218.76	398.813
2218.9	402.855
2219.04	400.837
2219.17	401.233
2219.31	402.735
2219.45	410.007
2219.59	401.81
2219.73	405.794
2219.87	400.753
2220.01	403.642
2220.15	408.132
2220.29	409.484
2220.43	402.568
2220.57	404.258
2220.7	404.794
2220.84	400.264
2220.98	406.139
2221.12	404.643
2221.26	400.884
2221.4	405.45
2221.54	403.391
2221.68	398.204
2221.82	406.204
2221.96	400.068
2222.1	405.106
2222.23	407.832
2222.37	404.948
2222.51	403.632
2222.65	413.227
2222.79	408.523
2222.93	401.478
2223.07	405.497
2223.21	403.784
2223.35	403.933
2223.49	403.467
2223.63	400.671
2223.76	404.169
2223.9	406.63
2224.04	405.223
2224.18	403.923
2224.32	405.046
2224.46	405.052
2224.6	404.482
2224.74	406.444
2224.88	404.379
2225.01	405.3
2225.15	407.337
2225.29	404.188
2225.43	410.883
2225.57	405.252
2225.71	404.287
2225.85	404.266
2225.99	405.23
2226.13	404.729
2226.26	408.985
2226.4	401.242
2226.54	403.024
2226.68	409.786
2226.82	409.846
2226.96	405.935
2227.1	410.708
2227.24	406.62
2227.38	403.72
2227.51	407.291
2227.65	404.607
2227.79	405.091
2227.93	408.157
2228.07	400.256
2228.21	401.867
2228.35	401.713
2228.49	402.508
2228.62	400.639
2228.76	400.757
2228.9	407.197
2229.04	404.906
2229.18	403.485
2229.32	407.753
2229.46	405.984
2229.6	405.612
2229.73	402.84
2229.87	409.348
2230.01	400.462
2230.15	408.658
2230.29	402.132
2230.43	401.455
2230.57	402.905
2230.71	403.995
2230.84	403.2
2230.98	410.915
2231.12	406.105
2231.26	403.597
2231.4	409.438
2231.54	409.734
2231.68	410.62
2231.81	405.018
2231.95	408.029
2232.09	404.12
2232.23	409.122
2232.37	406.638
2232.51	407.997
2232.65	407.072
2232.79	403.212
2232.92	408.894
2233.06	405.12
2233.2	408.678
2233.34	405.202
2233.48	405.681
2233.62	406.578
2233.76	402.99
2233.89	406.209
2234.03	408.699
2234.17	402.535
2234.31	413.003
2234.45	410.071
2234.59	410.209
2234.72	409.208
2234.86	408.672
2235	409.922
2235.14	408.603
2235.28	411.147
2235.42	409.522
2235.56	409.202
2235.69	409.433
2235.83	403.009
2235.97	407.242
2236.11	401.986
2236.25	409.148
2236.39	404.815
2236.52	407.423
2236.66	404.65
2236.8	413.234
2236.94	405.285
2237.08	402.519
2237.22	410.493
2237.35	408.809
2237.49	402.912
2237.63	407.338
2237.77	410.153
2237.91	406.058
2238.05	409.085
2238.19	406.094
2238.32	408.09
2238.46	403.349
2238.6	408.841
2238.74	408.414
2238.88	409.337
2239.01	412.226
2239.15	407.359
2239.29	407.232
2239.43	408.773
2239.57	409.385
2239.71	404.967
2239.84	406.928
2239.98	408.192
2240.12	411.062
2240.26	410.417
2240.4	413.47
2240.54	411.853
2240.67	403.456
2240.81	410.56
2240.95	413.452
2241.09	410.392
2241.23	402.254
2241.37	404.418
2241.5	401.312
2241.64	406.781
2241.78	410.745
2241.92	413.607
2242.06	409.318
2242.2	413.238
2242.33	409.482
2242.47	403.398
2242.61	404.293
2242.75	404.837
2242.89	408.16
2243.02	407.017
2243.16	405.84
2243.3	408.775
2243.44	412.547
2243.58	405.699
2243.72	403.268
2243.85	410.001
2243.99	410.215
2244.13	417.46
2244.27	409.465
2244.41	413.183
2244.54	405.433
2244.68	410.73
2244.82	407.553
2244.96	407.477
2245.1	405.999
2245.23	411.736
2245.37	409.292
2245.51	412.232
2245.65	414.708
2245.79	410.642
2245.92	413.987
2246.06	406.614
2246.2	412.799
2246.34	409.019
2246.48	412.067
2246.61	409.582
2246.75	415.015
2246.89	407.961
2247.03	419.505
2247.17	410.238
2247.3	412.772
2247.44	411.537
2247.58	419.419
2247.72	412.326
2247.86	407.748
2247.99	412.627
2248.13	411.657
2248.27	409.686
2248.41	409.774
2248.55	408.624
2248.68	408.397
2248.82	409.689
2248.96	412.195
2249.1	409.188
2249.24	413.853
2249.37	406.943
2249.51	409.444
2249.65	410.992
2249.79	412.859
2249.92	405.688
2250.06	412.984
2250.2	414.941
2250.34	416.961
2250.48	412.863
2250.61	411.329
2250.75	415.146
2250.89	407.217
2251.03	410.668
2251.17	413.605
2251.3	412.752
2251.44	410.291
2251.58	408.896
2251.72	409.223
2251.85	409.398
2251.99	403.461
2252.13	409.034
2252.27	415.011
2252.41	409.838
2252.54	410.366
2252.68	410.951
2252.82	416.651
2252.96	426.361
2253.09	415.601
2253.23	409.904
2253.37	420.956
2253.51	414.007
2253.65	410.652
2253.78	409.441
2253.92	413.286
2254.06	414.154
2254.2	414.914
2254.33	408.304
2254.47	407.412
2254.61	418.585
2254.75	415.38
2254.88	412.699
2255.02	412.854
2255.16	408.682
2255.3	412.129
2255.44	409.557
2255.57	411.205
2255.71	412.912
2255.85	410.827
2255.99	415.732
2256.12	413.392
2256.26	417.717
2256.4	405.492
2256.54	412.601
2256.67	414.414
2256.81	412.24
2256.95	410.784
2257.09	409.469
2257.22	412.85
2257.36	412.68
2257.5	417.138
2257.64	416.893
2257.77	408.951
2257.91	417.868
2258.05	408.924
2258.19	415.663
2258.32	413.357
2258.46	417.398
2258.6	409.593
2258.74	412.2
2258.87	414.423
2259.01	414.819
2259.15	411.481
2259.29	416.021
2259.42	407.9
2259.56	411.709
2259.7	412.517
2259.84	423.591
2259.97	411.258
2260.11	417.284
2260.25	416.45
2260.39	416.157
2260.52	412.947
2260.66	414.537
2260.8	414.211
2260.94	416.981
2261.07	407.094
2261.21	418.465
2261.35	410.025
2261.49	412.021
2261.62	415.31
2261.76	415.841
2261.9	411.654
2262.04	412.727
2262.17	410.81
2262.31	415.557
2262.45	413.365
2262.58	408.922
2262.72	411.134
2262.86	416.058
2263	411.22
2263.13	420.242
2263.27	412.248
2263.41	410.797
2263.54	417.362
2263.68	413.329
2263.82	419.336
2263.96	410.742
2264.09	416.307
2264.23	411.515
2264.37	415.336
2264.51	409.148
2264.64	414.907
2264.78	414.677
2264.92	416.281
2265.06	410.379
2265.19	409.966
2265.33	411.311
2265.47	410.606
2265.6	416.419
2265.74	411.306
2265.88	410.653
2266.02	413.718
2266.15	412.1
2266.29	411.797
2266.43	412.365
2266.56	415.009
2266.7	420.314
2266.84	410.893
2266.98	411.014
2267.11	411.331
2267.25	411.41
2267.39	416.766
2267.52	416.503
2267.66	412.278
2267.8	410.092
2267.94	409.594
2268.07	415.989
2268.21	418.785
2268.35	412.52
2268.48	419.61
2268.62	420.992
2268.76	414.73
2268.9	415.379
2269.03	420.396
2269.17	418.664
2269.31	412.932
2269.44	412.272
2269.58	419.376
2269.72	418.972
2269.85	416.193
2269.99	421.585
2270.13	418.05
2270.26	420.571
2270.4	421.192
2270.54	416.409
2270.68	418.018
2270.81	420.64
2270.95	414.979
2271.09	420.953
2271.22	411.134
2271.36	419.392
2271.5	413.949
2271.64	414.026
2271.77	421.019
2271.91	412.175
2272.05	411.519
2272.18	421.334
2272.32	419.374
2272.46	411.987
2272.59	418.809
2272.73	413.907
2272.87	422.92
2273	417.021
2273.14	415.237
2273.28	422.463
2273.42	418.548
2273.55	419.141
2273.69	410.978
2273.83	411.023
2273.96	415.705
2274.1	418.514
2274.24	415.899
2274.37	413.711
2274.51	416.629
2274.65	418.734
2274.78	422.076
2274.92	413.552
2275.06	415.965
2275.19	413.928
2275.33	419.568
2275.47	418.505
2275.6	413.636
2275.74	414.789
2275.88	411.943
2276.01	411.779
2276.15	418.789
2276.29	415.609
2276.42	419.095
2276.56	418.406
2276.7	409.721
2276.83	418.021
2276.97	410.88
2277.11	419.986
2277.25	418.195
2277.38	412.713
2277.52	417.494
2277.66	428.915
2277.79	417.652
2277.93	415.442
2278.06	418.355
2278.2	419.004
2278.34	419.733
2278.47	412.385
2278.61	418.458
2278.75	422.041
2278.89	419.812
2279.02	419.472
2279.16	411.965
2279.3	418.2
2279.43	418.154
2279.57	429.231
2279.71	415.524
2279.84	417.489
2279.98	416.8
2280.11	418.722
2280.25	418.339
2280.39	415.206
2280.52	420.486
2280.66	416.242
2280.8	417.831
2280.93	416.245
2281.07	415.399
2281.21	417.937
2281.34	416.68
2281.48	417.478
2281.62	416.206
2281.75	415.263
2281.89	419.802
2282.03	421.303
2282.16	417.346
2282.3	420.61
2282.44	428.908
2282.57	418.504
2282.71	416.798
2282.85	423.685
2282.98	415.683
2283.12	421.031
2283.25	415.583
2283.39	417.392
2283.53	419.002
2283.66	417.273
2283.8	416.691
2283.94	419.885
2284.07	411.856
2284.21	416.426
2284.35	421.594
2284.48	415.455
2284.62	414.682
2284.76	413.274
2284.89	419.379
2285.03	413.675
2285.16	417.512
2285.3	420.309
2285.44	414.637
2285.57	418.863
2285.71	417.148
2285.85	417.991
2285.98	417.859
2286.12	420.88
2286.26	418.991
2286.39	420.916
2286.53	413.322
2286.66	417.869
2286.8	419.831
2286.94	413.026
2287.07	417.481
2287.21	416.718
2287.35	417.436
2287.48	420.165
2287.62	416.059
2287.75	412.858
2287.89	429.055
2288.03	414.674
2288.16	421.138
2288.3	415.778
2288.44	416.975
2288.57	413.629
2288.71	415.578
2288.84	417.318
2288.98	411.738
2289.12	421.458
2289.25	415.151
2289.39	417.376
2289.53	415.642
2289.66	412.748
2289.8	418.735
2289.93	414.354
2290.07	415.741
2290.21	417.598
2290.34	413.044
2290.48	417.834
2290.61	419.857
2290.75	419.278
2290.89	417.719
2291.02	418.951
2291.16	422.719
2291.3	411.867
2291.43	421.043
2291.57	419.282
2291.7	413.001
2291.84	421.042
2291.98	413.3
2292.11	418.511
2292.25	415.178
2292.38	414.901
2292.52	417.117
2292.66	423.91
2292.79	416.748
2292.93	418.853
2293.06	416.074
2293.2	421.769
2293.34	412.791
2293.47	415.828
2293.61	415.447
2293.74	415.635
2293.88	411.688
2294.02	420.435
2294.15	420.152
2294.29	416.876
2294.42	425.614
2294.56	416.839
2294.7	414.763
2294.83	417.16
2294.97	417.366
2295.1	413.192
2295.24	422.84
2295.38	417.537
2295.51	422.432
2295.65	416.326
2295.78	419.822
2295.92	419.84
2296.06	417.858
2296.19	418.292
2296.33	418.363
2296.46	420.056
2296.6	427.596
2296.74	415.404
2296.87	417.075
2297.01	421.492
2297.14	418.791
2297.28	410.963
2297.41	419.856
2297.55	424.197
2297.69	415.341
2297.82	421.5
2297.96	415.652
2298.09	421.599
2298.23	420.186
2298.37	415.403
2298.5	419.947
2298.64	415.025
2298.77	418.681
2298.91	419.132
2299.04	414.57
2299.18	426.705
2299.32	414.914
2299.45	419.51
2299.59	411.727
2299.72	418.85
2299.86	419.577
2299.99	422.221
2300.13	415.263
2300.27	423.118
2300.4	420.244
2300.54	409.788
2300.67	415.828
2300.81	414.671
2300.94	421.728
2301.08	412.382
2301.22	422.097
2301.35	420.483
2301.49	421.226
2301.62	416.387
2301.76	417.974
2301.89	421.46
2302.03	420.851
2302.17	416.943
2302.3	421.981
2302.44	418.269
2302.57	418.146
2302.71	419.555
2302.84	419.115
2302.98	417.018
2303.11	414.916
2303.25	413.485
2303.39	421.88
2303.52	413.382
2303.66	414.2
2303.79	419.456
2303.93	420.641
2304.06	414.341
2304.2	421.189
2304.33	419.055
2304.47	425.636
2304.61	420.764
2304.74	415.924
2304.88	417.035
2305.01	416.446
2305.15	418.185
2305.28	427.315
2305.42	415.377
2305.55	417.362
2305.69	417.651
2305.83	424.717
2305.96	425.44
2306.1	415.736
2306.23	413.12
2306.37	409.397
2306.5	444.617
2306.64	416.216
2306.77	420.114
2306.91	416.301
2307.04	414.494
2307.18	419.27
2307.32	418.364
2307.45	420.334
2307.59	417.397
2307.72	419.662
2307.86	417.992
2307.99	422.641
2308.13	416.347
2308.26	417.012
2308.4	419.311
2308.53	421.615
2308.67	415.679
2308.81	419.003
2308.94	418.532
2309.08	421.587
2309.21	422.685
2309.35	416.547
2309.48	421.153
2309.62	416.666
2309.75	418.398
2309.89	422.999
2310.02	421.664
2310.16	425.162
2310.29	420.723
2310.43	419.383
2310.56	420.262
2310.7	416.717
2310.83	424.202
2310.97	418.391
2311.11	425.281
2311.24	420.641
2311.38	424.079
2311.51	421.462
2311.65	414.241
2311.78	413.513
2311.92	418.836
2312.05	415.169
2312.19	421.315
2312.32	419.461
2312.46	421.403
2312.59	417.521
2312.73	412.97
2312.86	421.118
2313	418.019
2313.13	420.586
2313.27	424.439
2313.4	420.931
2313.54	426.959
2313.67	417.833
2313.81	423.3
2313.95	419.119
2314.08	419.254
2314.22	421.981
2314.35	418.601
2314.48	418.265
2314.62	416.587
2314.76	422.97
2314.89	416.803
2315.03	423.503
2315.16	422.438
2315.3	416.486
2315.43	420.347
2315.57	419.556
2315.7	417.539
2315.84	416.531
2315.97	422.438
2316.11	415.166
2316.24	420.231
2316.38	420.277
2316.51	422.085
2316.65	418.629
2316.78	423.819
2316.92	417.898
2317.05	424.407
2317.19	417.624
2317.32	420.669
2317.46	418.98
2317.59	425.713
2317.73	419.982
2317.86	425.936
2318	420.166
2318.13	425.659
2318.27	418.57
2318.4	419.982
2318.54	419.938
2318.67	422.314
2318.81	428.346
2318.94	414.722
2319.08	419.305
2319.21	420.666
2319.35	416.075
2319.48	416.038
2319.62	417.287
2319.75	422.496
2319.89	420.984
2320.02	415.451
2320.16	424
2320.29	421.287
2320.42	419.908
2320.56	422.012
2320.69	421.553
2320.83	424.062
2320.96	415.949
2321.1	425.562
2321.23	418.835
2321.37	418.385
2321.5	420.309
2321.64	425.152
2321.77	418.471
2321.91	421.108
2322.04	422.327
2322.18	420.893
2322.31	420.455
2322.45	422.749
2322.58	417.626
2322.72	421.93
2322.85	427.943
2322.99	421.474
2323.12	421.464
2323.26	429.59
2323.39	417.796
2323.53	417.327
2323.66	427.283
2323.79	419.19
2323.93	424.777
2324.06	422.412
2324.2	422.772
2324.33	426.71
2324.47	423.407
2324.6	419.41
2324.74	420.152
2324.87	419.437
2325.01	419.429
2325.14	419.634
2325.28	423.355
2325.41	423.323
2325.55	415.972
2325.68	420.781
2325.81	420.302
2325.95	429.677
2326.08	423.843
2326.22	428.007
2326.35	418.465
2326.49	425.872
2326.62	425.22
2326.76	425.043
2326.89	420.96
2327.03	425.152
2327.16	430.146
2327.3	424.216
2327.43	428.582
2327.56	431.99
2327.7	444.892
2327.83	431.112
2327.97	442.361
2328.1	449.878
2328.24	445.653
2328.37	458.95
2328.51	449.974
2328.64	432.711
2328.78	431.906
2328.91	436.87
2329.04	436.032
2329.18	436.247
2329.31	419.556
2329.45	419.779
2329.58	425.882
2329.72	423.224
2329.85	419.685
2329.99	418.224
2330.12	420.9
2330.25	422.251
2330.39	430.679
2330.52	424.106
2330.66	424.362
2330.79	426.415
2330.93	422.014
2331.06	420.155
2331.2	420.282
2331.33	420.487
2331.46	419.061
2331.6	424.896
2331.73	421.234
2331.87	425.191
2332	427.399
2332.14	424.288
2332.27	422.737
2332.4	423.027
2332.54	420.28
2332.67	427.614
2332.81	424.937
2332.94	417.793
2333.08	418.769
2333.21	421.995
2333.34	423.275
2333.48	424.899
2333.61	429.353
2333.75	420.301
2333.88	422.967
2334.02	419.926
2334.15	421.556
2334.29	428.565
2334.42	426.472
2334.55	423.277
2334.69	424.194
2334.82	426.584
2334.96	427.18
2335.09	424.566
2335.23	424.604
2335.36	430.743
2335.49	425.076
2335.63	427.411
2335.76	430.521
2335.9	434.981
2336.03	425.933
2336.17	426.631
2336.3	422.179
2336.43	425.191
2336.57	419.731
2336.7	423.106
2336.84	424.912
2336.97	437.684
2337.1	420.523
2337.24	421.639
2337.37	427.79
2337.51	426.163
2337.64	421.905
2337.77	418.168
2337.91	425.343
2338.04	427.952
2338.18	429.797
2338.31	422.714
2338.45	425.76
2338.58	419.897
2338.71	422.752
2338.85	421.796
2338.98	428.011
2339.12	422.86
2339.25	427.921
2339.38	428.111
2339.52	424.985
2339.65	424.553
2339.79	429.426
2339.92	426.088
2340.05	426.397
2340.19	424.245
2340.32	427.781
2340.46	429.138
2340.59	427.977
2340.72	426.24
2340.86	424.321
2340.99	428.871
2341.13	423.922
2341.26	420.517
2341.39	426.292
2341.53	427.493
2341.66	425.32
2341.8	425.267
2341.93	426.211
2342.06	429.408
2342.2	428.557
2342.33	422.164
2342.47	425.526
2342.6	424.346
2342.73	427.784
2342.87	425.545
2343	424.403
2343.13	425.878
2343.27	424.225
2343.4	428.608
2343.54	424.891
2343.67	424.478
2343.8	424.006
2343.94	428.173
2344.07	425.856
2344.21	424.976
2344.34	424.133
2344.47	430.015
2344.61	420.81
2344.74	422.652
2344.87	426.831
2345.01	426.805
2345.14	428.223
2345.28	425.211
2345.41	428.314
2345.54	424.559
2345.68	425.119
2345.81	427.15
2345.94	424.694
2346.08	429.615
2346.21	426.881
2346.35	426.432
2346.48	427.069
2346.61	427.051
2346.75	427.71
2346.88	428.31
2347.02	430.009
2347.15	427.865
2347.28	428.932
2347.42	435.263
2347.55	424.697
2347.68	422.999
2347.82	425.004
2347.95	428.78
2348.08	427.361
2348.22	425.599
2348.35	426.06
2348.49	425.228
2348.62	425.593
2348.75	428.879
2348.89	430.055
2349.02	425.832
2349.15	426.368
2349.29	432.02
2349.42	431.324
2349.55	429.961
2349.69	430.162
2349.82	429.393
2349.96	425.913
2350.09	428.461
2350.22	430.927
2350.36	427.03
2350.49	425.971
2350.62	428.126
2350.76	429.345
2350.89	427.566
2351.02	428.824
2351.16	429.247
2351.29	426.356
2351.42	427.248
2351.56	426.525
2351.69	429.278
2351.83	429.125
2351.96	429.57
2352.09	432.525
2352.21	427.111
2352.35	426.476
2352.48	428.118
2352.62	438.216
2352.75	432.295
2352.89	427.809
2353.03	428.23
2353.16	430.312
2353.3	429.784
2353.43	426.055
2353.57	431.445
2353.71	429.928
2353.84	427.733
2353.98	429.539
2354.11	423.891
2354.25	431.013
2354.38	430.656
2354.52	425.492
2354.66	432.347
2354.79	431.389
2354.93	427.253
2355.06	427.503
2355.2	430.474
2355.34	433.653
2355.47	426.614
2355.61	430.708
2355.74	423.04
2355.88	428.274
2356.01	430.129
2356.15	425.217
2356.29	429.757
2356.42	425.526
2356.56	425.191
2356.69	425.013
2356.83	427.532
2356.96	429.795
2357.1	423.01
2357.24	424.741
2357.37	425.173
2357.51	426.078
2357.64	426.29
2357.78	431.7
2357.91	427.416
2358.05	425.374
2358.19	427.997
2358.32	431.488
2358.46	423.582
2358.59	427.18
2358.73	438.906
2358.86	429.154
2359	431.586
2359.14	425.178
2359.27	424.997
2359.41	427.456
2359.54	445.052
2359.68	425.113
2359.81	430.595
2359.95	429.239
2360.09	425.815
2360.22	428.839
2360.36	430.943
2360.49	427.429
2360.63	429.638
2360.76	430.79
2360.9	425.659
2361.03	428.611
2361.17	430.41
2361.31	429.295
2361.44	430.448
2361.58	426.388
2361.71	434.364
2361.85	431.002
2361.98	426.908
2362.12	428.425
2362.25	439.536
2362.39	434.423
2362.53	425.372
2362.66	433.335
2362.8	428.452
2362.93	425.454
2363.07	436.231
2363.2	434.319
2363.34	430.431
2363.47	435.87
2363.61	423.824
2363.74	442.97
2363.88	434.98
2364.02	428.544
2364.15	432.33
2364.29	425.409
2364.42	434.058
2364.56	430.578
2364.69	428.839
2364.83	428.487
2364.96	427.532
2365.1	431.874
2365.24	427.275
2365.37	437.818
2365.51	430.565
2365.64	428.386
2365.78	432.38
2365.91	433.759
2366.05	424.064
2366.18	431.125
2366.32	435.707
2366.45	436.831
2366.59	428.295
2366.72	434.265
2366.86	435.537
2366.99	431.162
2367.13	429.064
2367.26	429.743
2367.4	434.396
2367.54	430.335
2367.67	429.615
2367.81	431.488
2367.94	431.237
2368.08	433.332
2368.21	434.245
2368.35	427.747
2368.48	429.484
2368.62	432.944
2368.75	427.49
2368.89	433.972
2369.02	434.186
2369.16	433.738
2369.29	430.591
2369.43	430.448
2369.56	431.554
2369.7	430.081
2369.83	429.395
2369.97	432.507
2370.1	431.934
2370.24	433.58
2370.38	432.815
2370.51	429.478
2370.65	436.468
2370.78	434.379
2370.92	436.501
2371.05	432.803
2371.19	431.481
2371.32	432.245
2371.46	435.497
2371.59	429.878
2371.73	433.741
2371.86	431.421
2372	435.711
2372.13	434.641
2372.27	432.167
2372.4	443.24
2372.54	432.018
2372.67	432.421
2372.81	430.864
2372.94	427.278
2373.08	442.725
2373.21	429.755
2373.35	430.299
2373.48	430.362
2373.62	438.117
2373.75	435.187
2373.89	439.44
2374.02	432.991
2374.16	432.175
2374.29	429.057
2374.43	433.852
2374.56	439.423
2374.7	431.067
2374.83	437.914
2374.97	432.149
2375.1	429.588
2375.24	435.884
2375.37	434.164
2375.51	433.881
2375.64	432.657
2375.78	431.199
2375.91	433.916
2376.05	433.118
2376.18	435.143
2376.32	437.133
2376.45	432.948
2376.59	428.367
2376.72	430.818
2376.86	433.211
2376.99	433.152
2377.13	436.82
2377.26	430.992
2377.4	438.419
2377.53	430.627
2377.67	434.84
2377.8	432.64
2377.94	433.659
2378.07	434.89
2378.21	432.008
2378.34	432.18
2378.48	430.313
2378.61	433.831
2378.75	435.233
2378.88	435.393
2379.02	439.272
2379.15	433.881
2379.29	435.387
2379.42	435.03
2379.56	436.845
2379.69	434.272
2379.83	433.993
2379.96	431.521
2380.09	441.054
2380.23	439.617
2380.36	433.815
2380.5	434.177
2380.63	428.88
2380.77	434.25
2380.9	434.234
2381.04	439.712
2381.17	432.783
2381.31	431.84
2381.44	433.551
2381.58	434.577
2381.71	433.285
2381.85	432.927
2381.98	434.68
2382.12	439.853
2382.25	438.4
2382.39	432.862
2382.52	448.161
2382.65	438.469
2382.79	443.362
2382.92	433.524
2383.06	433.221
2383.19	433.736
2383.33	431.485
2383.46	436.142
2383.6	432.612
2383.73	441.823
2383.87	433.47
2384	432.614
2384.14	437.645
2384.27	441.226
2384.4	434.369
2384.54	431.932
2384.67	436.784
2384.81	424.293
2384.94	433.227
2385.08	432.132
2385.21	439.479
2385.35	436.77
2385.48	440.65
2385.62	429.709
2385.75	438.963
2385.88	437.311
2386.02	433.146
2386.15	442.519
2386.29	435.167
2386.42	437.58
2386.56	437.656
2386.69	433.483
2386.83	433.685
2386.96	433.848
2387.1	431.338
2387.23	439.624
2387.36	439.459
2387.5	433.782
2387.63	434.407
2387.77	436.836
2387.9	434.563
2388.04	437.091
2388.17	432.943
2388.31	434.363
2388.44	439.085
2388.57	434.324
2388.71	436.267
2388.84	434.478
2388.98	437.611
2389.11	430.998
2389.25	433.739
2389.38	435.391
2389.52	435.911
2389.65	435.06
2389.78	434.738
2389.92	436.64
2390.05	434.187
2390.19	432.711
2390.32	433.999
2390.46	431.743
2390.59	436.165
2390.73	448.191
2390.86	434.997
2390.99	432.718
2391.13	441.635
2391.26	439.774
2391.4	435.877
2391.53	439.68
2391.67	440.327
2391.8	440.337
2391.93	436.866
2392.07	433.239
2392.2	439.514
2392.34	433.158
2392.47	437.112
2392.6	434.455
2392.74	435.837
2392.87	438.435
2393.01	439.737
2393.14	440.055
2393.28	434.193
2393.41	437.913
2393.54	436.502
2393.68	434.161
2393.81	434.337
2393.95	435.246
2394.08	435.039
2394.22	438.351
2394.35	432.465
2394.48	438.873
2394.62	442.028
2394.75	434.637
2394.89	435.01
2395.02	436.163
2395.16	439.402
2395.29	433.909
2395.42	437.303
2395.56	439.655
2395.69	436.27
2395.83	434.342
2395.96	436.338
2396.09	439.209
2396.23	438.379
2396.36	438.943
2396.5	438.491
2396.63	439.473
2396.76	437.467
2396.9	436.416
2397.03	435.475
2397.17	442.87
2397.3	440.196
2397.44	433.153
2397.57	434.56
2397.7	434.265
2397.84	434.607
2397.97	433.47
2398.11	444.186
2398.24	435.395
2398.37	437.477
2398.51	435.509
2398.64	439.357
2398.78	436.146
2398.91	433.069
2399.04	430.825
2399.18	436.741
2399.31	435.025
2399.44	439.072
2399.58	438.596
2399.71	433
2399.85	436.942
2399.98	435.797
