#Acq. time (s)=	45
#Accumulations=	2
#Range (cm-¹)=	100...4000
#Windows=	1
#Auto scanning=	Off
#Autofocus=	Off
#Macrospot=	Off
#AutoExposure=	Off
#Spike filter=	Multiple accum.
#Delay time (s)=	2
#Binning=	1
#Readout mode=	Signal
#DeNoise=	Off
#ICS correction=	On
#Dark correction=	Off
#Inst. Process=	Off
#Detector Gain=	Best Dynamic
#Detector ADC=	50 kHz HS
#Detector temperature (°C)=	-60.09
#Instrument=	LabRAM HR Evol
#Detector=	SIN-EM FIVIS
#Objective=	x100_VIS_LWD
#Grating=	150 (500nm)
#ND Filter=	100%
#Laser=	633nm_Edge
#Hole=	49.98
#Temperature=	0
#Range=	Visible
#StageXY=	75x50mm Scan+
#StageZ=	Z motor
#X (µm)=	0
#Y (µm)=	0
#Z (µm)=	5.7
#Full time(mm:ss)=	1:34
#Project=	21_11_22
#Sample=	BU04w
#Site=	
#Title=	BU04w-A-FF3-FI04-V_150 (500nm)_633nm_Edge_100%_x100_VIS_LWD_H50um_45sX2
#Remark=	
#Date=	22.11.2021 12:16
#Acquired=	22.11.2021 12:16:11
100.177	870.693
103.438	869.085
106.695	799.848
109.954	814.582
113.209	806.392
116.464	800.083
119.717	756.37
122.969	785.354
126.219	797.049
129.469	778.198
132.716	807.993
135.963	796.628
139.208	792.779
142.452	791.851
145.694	779.517
148.936	747.034
152.175	750.997
155.414	777.073
158.651	807.92
161.887	810.089
165.121	831.417
168.353	790.359
171.586	767.435
174.815	741.526
178.045	750.956
181.272	740.196
184.5	723.494
187.724	739.3
190.947	739.628
194.17	745.737
197.39	767.173
200.611	738.207
203.829	740.14
207.045	754.336
210.262	764.673
213.475	764.511
216.688	777.737
219.9	757.536
223.11	795.454
226.32	821.763
229.527	853.458
232.733	881.493
235.939	868.675
239.142	857.811
242.344	822.269
245.546	814.65
248.745	830.609
251.943	793.321
255.141	810.114
258.336	817.511
261.53	816.388
264.723	782.09
267.916	806.651
271.106	811.345
274.294	796.152
277.483	842.631
280.669	816.941
283.854	832.903
287.038	829.861
290.221	860.846
293.402	839.622
296.582	836.432
299.76	828.517
302.938	833.812
306.114	847.569
309.288	867.969
312.461	878.921
315.634	900.273
318.805	942.384
321.974	1008.28
325.142	1066.63
328.309	1083.43
331.475	1041.87
334.639	976.683
337.802	928.469
340.963	909.508
344.123	895.241
347.282	878.974
350.441	899.526
353.597	887.883
356.752	882.798
359.906	900.263
363.058	895.104
366.209	906.856
369.36	912.038
372.509	887.168
375.656	890.41
378.802	908.737
381.947	885.756
385.09	896.824
388.232	934.509
391.373	924.601
394.512	913.946
397.652	946.662
400.789	921.556
403.925	923.42
407.059	926.311
410.192	952.742
413.324	989.436
416.455	960.701
419.584	960.535
422.712	976.943
425.839	1003.3
428.964	1038.15
432.089	1049.26
435.212	1037.66
438.333	1036.39
441.454	1030.43
444.573	1008.42
447.691	995.727
450.807	1008.27
453.923	1005
457.037	1014.02
460.15	1014.85
463.261	1015.97
466.371	990.366
469.48	964.733
472.588	955.211
475.695	995.285
478.8	955.401
481.904	1008.55
485.007	960.149
488.108	970.445
491.208	984.51
494.307	1024.74
497.405	1010.83
500.502	1033.36
503.597	1021.53
506.691	1030.16
509.784	1028.6
512.874	1036.47
515.964	1058.38
519.053	1021.69
522.141	1020.67
525.227	1055.3
528.312	1022.7
531.396	1019.29
534.479	1042.33
537.559	1026.83
540.639	1015.72
543.718	1016.7
546.796	1002.35
549.873	1040.33
552.948	1006.87
556.022	1028.91
559.093	994.728
562.165	1020.49
565.235	1013.1
568.304	1004.47
571.372	989.999
574.437	1014.79
577.503	1002.77
580.567	1000.22
583.63	1007.32
586.691	993.902
589.75	1064.73
592.81	1037.99
595.868	1062.58
598.924	1083
601.98	1049.05
605.033	1048.91
608.086	1065.6
611.138	1045.18
614.188	1009.84
617.236	1022.62
620.285	1039.07
623.332	1011.66
626.376	1021.01
629.42	1025.86
632.464	1013.36
635.506	994.697
638.545	1026.55
641.585	1018.45
644.623	1032.42
647.659	995.023
650.695	1018.63
653.73	1058.68
656.762	1016.94
659.794	1028.69
662.825	1012.32
665.854	1007.34
668.883	984.636
671.91	989.642
674.935	990.885
677.96	997.371
680.982	1023.46
684.005	980.961
687.027	988.03
690.045	994.577
693.064	965.766
696.082	1007.14
699.097	982.936
702.113	985.838
705.126	1002.76
708.139	958.414
711.149	965.47
714.16	971.483
717.169	964.704
720.176	978.389
723.183	944.437
726.187	941
729.192	934.552
732.194	954.328
735.196	943.176
738.196	967.564
741.196	975.146
744.193	962.215
747.19	976.531
750.185	931.17
753.18	964.559
756.173	939.056
759.165	949.685
762.155	944.89
765.146	933.913
768.133	941.805
771.121	951.571
774.107	937.031
777.092	954.209
780.075	944.873
783.058	915.53
786.039	928.373
789.02	931.731
791.998	927.407
794.975	902.146
797.952	917.263
800.927	937.763
803.902	927.95
806.874	922.705
809.845	926.885
812.817	919.485
815.786	911.05
818.755	899.691
821.721	892.072
824.686	896.581
827.652	906.67
830.615	878.768
833.576	878.618
836.538	918.883
839.498	915.659
842.458	886.719
845.415	907.064
848.37	902.346
851.327	911.804
854.28	877.195
857.233	878.332
860.184	913.452
863.135	878.859
866.084	866.846
869.032	882.222
871.98	896.438
874.925	885.726
877.87	866.246
880.813	879.901
883.756	881.073
886.697	901.994
889.636	881.957
892.576	841.881
895.513	843.474
898.45	849.457
901.385	865.534
904.318	871.098
907.253	863.419
910.184	839.615
913.114	875.25
916.044	852.52
918.973	858.508
921.9	857.122
924.826	868.349
927.75	871.278
930.674	852.206
933.596	873.359
936.519	867.907
939.439	865.633
942.357	890.843
945.275	894.384
948.192	912.353
951.107	917.023
954.023	901.59
956.936	915.542
959.848	873.885
962.759	879.839
965.669	871.149
968.577	876.846
971.485	877.467
974.391	892.269
977.296	875.982
980.201	882.305
983.104	938.328
986.006	960.606
988.907	978.96
991.806	941.742
994.704	927.475
997.602	903.785
1000.5	898.374
1003.39	892.113
1006.29	871.762
1009.18	886.909
1012.07	859.679
1014.96	887.778
1017.85	907.246
1020.74	906.816
1023.63	936.355
1026.51	954.695
1029.4	880.189
1032.28	866.941
1035.16	863.41
1038.04	803.164
1040.92	809.227
1043.8	809.495
1046.68	781.802
1049.56	777.931
1052.43	765.206
1055.31	778.551
1058.18	785.925
1061.05	760.071
1063.93	781.624
1066.8	772.66
1069.67	782.276
1072.53	753.993
1075.4	768.345
1078.26	768.99
1081.13	786.078
1083.99	787.644
1086.85	800.839
1089.72	776.436
1092.58	815.887
1095.44	855.358
1098.29	863.748
1101.15	852.846
1104	785.009
1106.86	788.322
1109.71	761.216
1112.56	749.253
1115.42	745.646
1118.27	732.365
1121.11	753.788
1123.96	742.939
1126.81	735.93
1129.65	736.903
1132.5	745.627
1135.34	748.552
1138.18	761.192
1141.03	745.521
1143.87	747.262
1146.7	777.236
1149.54	798.563
1152.38	840.281
1155.21	880.768
1158.05	816.622
1160.88	787.723
1163.71	774.13
1166.55	749.85
1169.37	737.381
1172.2	720.988
1175.03	695.777
1177.86	672.528
1180.68	720.839
1183.51	675.418
1186.33	683.11
1189.15	715.361
1191.98	701.767
1194.8	685.622
1197.61	710.507
1200.43	690.77
1203.25	699.711
1206.06	690.071
1208.88	696.323
1211.69	705.482
1214.51	655.605
1217.32	662.029
1220.13	681.46
1222.94	667.192
1225.74	663.818
1228.55	670.379
1231.36	669.832
1234.16	675.161
1236.97	654.244
1239.77	673.365
1242.57	663.029
1245.37	689.84
1248.17	659.948
1250.97	669.208
1253.77	691.632
1256.56	643.004
1259.36	693.223
1262.15	663.443
1264.94	650.898
1267.74	675.672
1270.53	670.069
1273.32	657.302
1276.11	762.105
1278.89	857.574
1281.68	727.316
1284.46	658.533
1287.25	633.994
1290.03	643.579
1292.81	597.282
1295.59	623.137
1298.38	627.084
1301.15	636.083
1303.93	638.339
1306.71	640.782
1309.48	614.402
1312.26	622.356
1315.03	634.375
1317.81	619.309
1320.58	626.436
1323.35	608.413
1326.12	630.881
1328.88	611.878
1331.65	627.347
1334.42	625.408
1337.18	624.455
1339.95	622.384
1342.71	604.74
1345.47	601.296
1348.23	620.321
1350.99	631.151
1353.75	615.244
1356.51	631.04
1359.26	613.877
1362.02	621.258
1364.77	607.946
1367.53	611.995
1370.28	607.785
1373.03	610.737
1375.78	633.239
1378.53	690.622
1381.28	931.747
1384.03	792.949
1386.77	633.695
1389.52	591.478
1392.26	602.784
1395	588.539
1397.74	606.534
1400.49	607.961
1403.23	622.784
1405.96	630.48
1408.7	605.271
1411.44	601.717
1414.17	579.632
1416.91	599.935
1419.64	573.704
1422.37	580.613
1425.11	580.326
1427.84	587.285
1430.56	563.113
1433.29	577.361
1436.02	569.753
1438.74	561.071
1441.47	564.841
1444.19	578.181
1446.92	545.307
1449.64	565.697
1452.36	574.434
1455.08	569.461
1457.8	533.905
1460.52	556.024
1463.23	529.764
1465.95	560.154
1468.66	561.114
1471.38	546.344
1474.09	540.006
1476.8	562.082
1479.51	527.562
1482.22	542.373
1484.93	573.018
1487.64	543.852
1490.34	555.74
1493.05	551.931
1495.75	539.789
1498.46	543.433
1501.16	556.673
1503.86	547.77
1506.56	534.676
1509.26	522.694
1511.96	547.805
1514.65	512.529
1517.35	558.031
1520.05	522.737
1522.74	508.665
1525.43	550.228
1528.13	529.722
1530.82	517.809
1533.51	525.286
1536.2	526.189
1538.88	532.302
1541.57	536.279
1544.25	506.511
1546.94	532.705
1549.62	527.369
1552.31	503.476
1554.99	535.601
1557.67	529.804
1560.35	536.024
1563.03	512.032
1565.71	508.536
1568.38	524.437
1571.06	521.999
1573.73	504.506
1576.41	504.317
1579.08	534.454
1581.75	515.084
1584.42	528.057
1587.09	527.075
1589.76	516.441
1592.43	527.419
1595.09	514.756
1597.76	526.972
1600.42	523.019
1603.09	508.369
1605.75	509.958
1608.41	507.353
1611.07	497.236
1613.73	518.718
1616.39	485.929
1619.05	506.501
1621.7	497.645
1624.36	507.348
1627.01	498.433
1629.67	499.367
1632.32	505.763
1634.97	487.79
1637.62	495.045
1640.27	505.195
1642.92	516.637
1645.57	510.423
1648.22	493.062
1650.86	485.599
1653.51	500.262
1656.15	494.897
1658.79	491.681
1661.43	503.954
1664.07	477.411
1666.71	485.192
1669.35	477.444
1671.99	474.121
1674.63	488.542
1677.26	472.939
1679.9	489.566
1682.53	476.103
1685.16	498.042
1687.79	488.955
1690.43	478.82
1693.05	495.333
1695.68	472.115
1698.31	472.305
1700.94	477.213
1703.56	498.628
1706.19	481.905
1708.81	490.786
1711.44	484.444
1714.06	473.293
1716.68	475.966
1719.3	473.513
1721.92	473.943
1724.53	466.394
1727.15	472.493
1729.77	476.348
1732.38	463.366
1735	477.323
1737.61	487.91
1740.22	454.581
1742.83	456.141
1745.44	471.252
1748.05	450.157
1750.66	470.806
1753.27	462.036
1755.87	474.721
1758.48	470.33
1761.08	470.401
1763.69	458.023
1766.29	450.199
1768.89	459.386
1771.49	454.996
1774.09	456.282
1776.69	445.158
1779.29	467.006
1781.88	456.005
1784.48	441.6
1787.07	448.827
1789.66	458.447
1792.26	431.585
1794.85	452.628
1797.44	448.6
1800.03	443.502
1802.62	469.318
1805.21	435.549
1807.79	461.38
1810.38	429.665
1812.96	446.248
1815.55	465.172
1818.13	461.08
1820.71	465.018
1823.29	440.101
1825.87	447.548
1828.45	453.861
1831.03	452.095
1833.61	452.63
1836.18	428.804
1838.76	445.549
1841.33	448.302
1843.91	428.863
1846.48	439.741
1849.05	438.918
1851.62	441.627
1854.19	432.466
1856.76	432.817
1859.33	443.729
1861.89	440.655
1864.46	430.5
1867.02	432.172
1869.59	399.616
1872.15	448.225
1874.71	463.84
1877.27	438.206
1879.83	440.814
1882.39	428.1
1884.95	435.381
1887.51	433.234
1890.06	423.825
1892.62	460.49
1895.17	407.293
1897.73	422.727
1900.28	427.61
1902.83	433.872
1905.38	420.076
1907.93	405.066
1910.48	411.55
1913.03	413.387
1915.57	429.602
1918.12	435.007
1920.66	417.173
1923.21	454.578
1925.75	421.539
1928.29	406.391
1930.83	384.018
1933.37	409.564
1935.91	418.315
1938.45	430.655
1940.99	415.324
1943.53	417.983
1946.06	426.626
1948.6	406.366
1951.13	401.678
1953.66	392.135
1956.19	410.283
1958.73	434.443
1961.26	429.668
1963.78	405.582
1966.31	406.789
1968.84	417.561
1971.36	388.535
1973.89	388.419
1976.41	406.377
1978.94	413.489
1981.46	386.891
1983.98	397.615
1986.5	415.561
1989.02	398.645
1991.54	384.147
1994.06	422.568
1996.58	408.11
1999.09	400.901
2001.61	378.086
2004.12	409.405
2006.63	419.143
2009.15	377.163
2011.66	390.571
2014.17	393.131
2016.68	400.524
2019.19	384.953
2021.69	369.415
2024.2	379.26
2026.71	378.291
2029.21	384.602
2031.72	395.812
2034.22	388.941
2036.72	392.94
2039.22	381.203
2041.72	385.226
2044.22	371.052
2046.72	393.344
2049.22	387.699
2051.71	395.429
2054.21	393.222
2056.71	374.107
2059.2	389.187
2061.69	385.952
2064.18	376.587
2066.68	380.702
2069.17	376.193
2071.66	377.819
2074.14	392.984
2076.63	399.534
2079.12	374.04
2081.6	353.412
2084.09	379.623
2086.57	376.186
2089.06	367.757
2091.54	377.973
2094.02	372.151
2096.5	394.903
2098.98	370.529
2101.46	362.275
2103.93	398.822
2106.41	364.461
2108.89	383.683
2111.36	356.75
2113.84	378.579
2116.31	361.621
2118.78	358.417
2121.25	366.51
2123.72	388.463
2126.19	366.331
2128.66	364.319
2131.13	366.07
2133.59	350.071
2136.06	347.953
2138.53	363.576
2140.99	360.162
2143.45	355.466
2145.92	346.898
2148.38	357.39
2150.84	367.843
2153.3	361.705
2155.76	352.972
2158.21	356.977
2160.67	355.842
2163.13	362.339
2165.58	357.294
2168.04	365.001
2170.49	367.638
2172.94	372.902
2175.39	351.288
2177.84	361.635
2180.29	355.256
2182.74	346.307
2185.19	348.812
2187.64	357.781
2190.08	345.027
2192.53	363.044
2194.98	350.336
2197.42	341.534
2199.86	337.894
2202.3	347.119
2204.74	342.266
2207.18	346.43
2209.62	339.06
2212.06	344.582
2214.5	343.672
2216.93	344.096
2219.37	341.946
2221.81	317.789
2224.24	331.154
2226.67	340.66
2229.11	319.004
2231.54	332.419
2233.97	344.566
2236.4	335.871
2238.83	333.683
2241.25	338.019
2243.68	329.288
2246.1	342.824
2248.53	311.759
2250.96	343.694
2253.38	329.637
2255.8	324.773
2258.22	329.162
2260.64	324.299
2263.06	344.519
2265.48	332.961
2267.9	345.201
2270.32	336.202
2272.73	323.177
2275.15	339.319
2277.56	312.94
2279.98	322.393
2282.39	319.836
2284.8	318.567
2287.21	318.597
2289.62	321.311
2292.03	347.959
2294.44	326.704
2296.85	321.447
2299.26	304.263
2301.66	315.049
2304.07	324.568
2306.47	326.156
2308.88	323.775
2311.28	318.764
2313.68	323.119
2316.08	322.169
2318.48	325.271
2320.88	335.081
2323.28	340.87
2325.68	329.218
2328.07	322.923
2330.47	299.069
2332.86	306.286
2335.26	309.464
2337.65	318.089
2340.04	305.004
2342.43	317.771
2344.82	318.319
2347.21	310.744
2349.6	297.591
2351.99	320.04
2354.38	324.668
2356.76	311.369
2359.15	298.02
2361.53	295.511
2363.92	317.903
2366.3	311.349
2368.68	302.012
2371.06	300.942
2373.44	301.244
2375.82	307.089
2378.2	301.846
2380.58	292.343
2382.95	312
2385.33	302.409
2387.71	292.809
2390.08	288.728
2392.45	290.168
2394.83	299.959
2397.2	291.599
2399.57	299.947
2401.94	273.509
2404.31	319.395
2406.68	292.928
2409.04	306.918
2411.41	290.44
2413.78	278.215
2416.14	285.779
2418.51	283.845
2420.87	294.211
2423.23	286.057
2425.59	296.037
2427.95	290.767
2430.31	288.314
2432.67	295.762
2435.03	277.816
2437.39	288.159
2439.75	292.847
2442.1	283.339
2444.46	300.828
2446.81	295.581
2449.16	278.909
2451.52	263.614
2453.87	289.748
2456.22	293.033
2458.57	286.29
2460.92	283.827
2463.27	290
2465.61	281.759
2467.96	277.811
2470.3	269.503
2472.65	277.073
2474.99	293.364
2477.34	279.252
2479.68	279.618
2482.02	268.328
2484.36	275.923
2486.7	284.951
2489.04	269.199
2491.38	270.93
2493.72	291.671
2496.05	281.747
2498.39	268.839
2500.72	272.03
2503.06	264.94
2505.39	282.799
2507.72	263.915
2510.06	272.94
2512.39	293.737
2514.72	264.455
2517.04	248.401
2519.37	272.194
2521.7	253.226
2524.03	275.593
2526.35	271.357
2528.68	273.047
2531	270.291
2533.33	260.156
2535.65	272.271
2537.97	247.29
2540.29	244.567
2542.61	255.237
2544.93	286.789
2547.25	276.68
2549.57	268.02
2551.88	277.288
2554.2	261.126
2556.51	247.886
2558.83	252.6
2561.14	254.379
2563.46	268.178
2565.77	244.448
2568.08	268.849
2570.39	252.619
2572.7	265.032
2575.01	262.344
2577.31	258.112
2579.62	268.996
2581.93	254.083
2584.23	248.185
2586.54	258.98
2588.84	272.795
2591.15	237.889
2593.45	265.403
2595.75	267.105
2598.05	264.295
2600.35	256.861
2602.65	252.452
2604.95	254.132
2607.24	255.803
2609.54	242.196
2611.84	254.503
2614.13	248.489
2616.42	251.644
2618.72	257.891
2621.01	239.622
2623.3	227.482
2625.59	255.196
2627.88	223.14
2630.17	241.75
2632.46	269.666
2634.75	249.986
2637.04	256.505
2639.32	230.692
2641.61	249.589
2643.89	239.157
2646.18	255.067
2648.46	243.033
2650.74	244.962
2653.02	225.099
2655.3	230.008
2657.58	238.019
2659.86	221.037
2662.14	235.275
2664.42	224.477
2666.69	237.125
2668.97	224.802
2671.24	228.139
2673.52	242.556
2675.79	211.493
2678.06	213.541
2680.33	223.598
2682.61	235.19
2684.88	223.026
2687.15	237.854
2689.41	241.569
2691.68	230.843
2693.95	232.877
2696.22	229.783
2698.48	239.657
2700.74	206.224
2703.01	248.206
2705.27	233.969
2707.53	242.239
2709.8	237.617
2712.06	220.082
2714.32	238.042
2716.57	239.962
2718.83	224.004
2721.09	229.084
2723.35	213.08
2725.6	224.574
2727.86	231.211
2730.11	221.595
2732.37	220.044
2734.62	229.9
2736.87	226.725
2739.12	226.792
2741.37	222.046
2743.62	220.551
2745.87	222.337
2748.12	222.518
2750.37	216.215
2752.61	226.405
2754.86	218.503
2757.1	228.553
2759.35	243.501
2761.59	227.248
2763.83	202.817
2766.08	214.526
2768.32	216.397
2770.56	223.162
2772.8	211.856
2775.04	225.31
2777.27	223.963
2779.51	199.444
2781.75	211.402
2783.98	215.071
2786.22	210.45
2788.45	219.131
2790.68	214.477
2792.92	219.828
2795.15	205.092
2797.38	217.096
2799.61	203.954
2801.84	219.322
2804.07	216.199
2806.3	211.368
2808.52	203.145
2810.75	196.584
2812.98	205.203
2815.2	201.969
2817.42	207.192
2819.65	193.81
2821.87	214.293
2824.09	200.912
2826.31	226.538
2828.53	206.34
2830.75	204.798
2832.97	208.35
2835.19	218.702
2837.41	188.201
2839.62	195.154
2841.84	203.824
2844.05	221.05
2846.27	202.458
2848.48	206.06
2850.69	211.401
2852.9	201.361
2855.12	210.194
2857.33	225.922
2859.54	217.597
2861.74	211.005
2863.95	187.166
2866.16	211.652
2868.37	205.063
2870.57	198.448
2872.78	195.279
2874.98	195.583
2877.18	194.152
2879.39	189.242
2881.59	200.05
2883.79	191.656
2885.99	202.528
2888.19	204.637
2890.39	203.225
2892.59	208.849
2894.78	182.714
2896.98	177.753
2899.18	208.213
2901.37	221.015
2903.57	198.247
2905.76	205.672
2907.95	195.28
2910.15	216.992
2912.34	204.722
2914.53	192.421
2916.72	210.547
2918.91	214.393
2921.09	211.067
2923.28	204.137
2925.47	184.609
2927.65	192.092
2929.84	206.824
2932.02	203.519
2934.21	192.91
2936.39	187.693
2938.57	200.586
2940.75	198.951
2942.94	184.593
2945.12	195.671
2947.29	197.619
2949.47	199.582
2951.65	177.843
2953.83	212.652
2956	201.842
2958.18	187.357
2960.36	183.834
2962.53	185.806
2964.7	193.28
2966.88	195.283
2969.05	180.777
2971.22	190.128
2973.39	173.759
2975.56	190.487
2977.73	201.719
2979.9	168.717
2982.06	176.279
2984.23	183.88
2986.4	193.361
2988.56	180.647
2990.73	182.749
2992.89	188.587
2995.05	190.707
2997.21	187.268
2999.38	183.828
3001.54	200.949
3003.7	188.18
3005.86	181.001
3008.01	181.304
3010.17	204.184
3012.33	181.862
3014.49	189.723
3016.64	191.949
3018.8	180.934
3020.95	171.773
3023.1	175.865
3025.26	193.271
3027.41	174.465
3029.56	186.145
3031.71	190.195
3033.86	173.177
3036.01	182.918
3038.16	181.146
3040.31	181.367
3042.45	179.626
3044.6	185.558
3046.74	183.796
3048.89	180.101
3051.03	178.325
3053.18	174.616
3055.32	190.228
3057.46	205.869
3059.6	184.768
3061.74	188.803
3063.88	183.154
3066.02	187.196
3068.16	175.71
3070.3	173.92
3072.43	179.907
3074.57	201.486
3076.7	189.982
3078.84	194.062
3080.97	178.624
3083.1	182.697
3085.24	182.905
3087.37	169.408
3089.5	173.558
3091.63	177.735
3093.76	185.875
3095.89	170.422
3098.02	182.541
3100.14	178.882
3102.27	177.207
3104.4	177.526
3106.52	161.96
3108.65	190.141
3110.77	174.557
3112.89	188.9
3115.01	181.25
3117.14	195.657
3119.26	179.956
3121.38	174.292
3123.5	174.664
3125.62	181.121
3127.73	175.449
3129.85	198.23
3131.97	188.532
3134.08	180.819
3136.2	197.641
3138.31	179.629
3140.43	175.917
3142.54	182.483
3144.65	182.858
3146.76	195.641
3148.87	175.282
3150.98	192.213
3153.09	182.1
3155.2	182.377
3157.31	178.468
3159.42	166.188
3161.52	187.371
3163.63	198.136
3165.73	179.51
3167.84	188.154
3169.94	201.014
3172.05	180.246
3174.15	178.359
3176.25	159.521
3178.35	185.039
3180.45	176.718
3182.55	181.078
3184.65	200.27
3186.75	189.79
3188.84	204.706
3190.94	194.245
3193.04	175.286
3195.13	171.187
3197.23	186.286
3199.32	188.69
3201.41	197.593
3203.51	182.954
3205.6	170.428
3207.69	200.849
3209.78	179.725
3211.87	193.032
3213.96	178.31
3216.05	178.707
3218.13	179.083
3220.22	172.911
3222.31	181.976
3224.39	173.602
3226.48	187.087
3228.56	202.804
3230.64	157.06
3232.73	166.177
3234.81	181.896
3236.89	175.588
3238.97	173.708
3241.05	171.845
3243.13	161.086
3245.21	179.28
3247.29	179.609
3249.36	177.718
3251.44	169.012
3253.52	160.287
3255.59	169.443
3257.66	167.389
3259.74	147.415
3261.81	158.929
3263.88	159.216
3265.95	168.601
3268.03	155.53
3270.1	160.271
3272.17	165.269
3274.23	151.804
3276.3	154.22
3278.37	152.101
3280.44	161.412
3282.5	147.826
3284.57	150.27
3286.63	173.386
3288.7	157.465
3290.76	146.109
3292.82	166.967
3294.88	153.283
3296.94	162.642
3299	153.556
3301.06	156.048
3303.12	156.19
3305.18	137.817
3307.24	147.227
3309.3	154.327
3311.35	154.463
3313.41	159.238
3315.46	145.434
3317.52	154.875
3319.57	157.37
3321.63	164.54
3323.68	134.37
3325.73	146.231
3327.78	155.803
3329.83	144.278
3331.88	146.884
3333.93	149.51
3335.98	173.356
3338.02	142.949
3340.07	143.133
3342.12	159.882
3344.16	160.043
3346.21	138.846
3348.25	160.319
3350.3	153.345
3352.34	174.893
3354.38	148.843
3356.42	175.243
3358.46	151.57
3360.5	144.569
3362.54	154.31
3364.58	164.053
3366.62	154.633
3368.66	142.798
3370.69	154.966
3372.73	133.468
3374.76	160.059
3376.8	148.135
3378.83	162.703
3380.87	138.695
3382.9	146.028
3384.93	136.46
3386.96	131.71
3388.99	141.459
3391.02	143.951
3393.05	141.606
3395.08	136.855
3397.11	136.957
3399.14	158.894
3401.16	132.295
3403.19	151.785
3405.21	139.706
3407.24	151.931
3409.26	144.707
3411.29	142.323
3413.31	139.946
3415.33	147.305
3417.35	135.188
3419.37	142.549
3421.39	147.475
3423.41	147.522
3425.43	135.381
3427.45	157.413
3429.46	137.965
3431.48	138.052
3433.5	135.7
3435.51	140.698
3437.53	133.468
3439.54	140.941
3441.55	131.255
3443.57	143.664
3445.58	141.372
3447.59	136.633
3449.6	141.732
3451.61	136.973
3453.62	134.694
3455.63	152.226
3457.64	137.607
3459.64	140.329
3461.65	143.063
3463.66	135.838
3465.66	136.079
3467.67	151.327
3469.67	119.01
3471.67	129.244
3473.68	136.921
3475.68	127.068
3477.68	119.702
3479.68	147.646
3481.68	107.424
3483.68	135.424
3485.68	115.338
3487.68	130.73
3489.67	130.908
3491.67	138.722
3493.67	121.062
3495.66	144.169
3497.66	139.221
3499.65	131.696
3501.64	129.264
3503.64	134.493
3505.63	137.172
3507.62	139.825
3509.61	119.353
3511.6	145.069
3513.59	134.843
3515.58	134.884
3517.57	132.353
3519.56	134.962
3521.54	129.857
3523.53	124.751
3525.52	142.811
3527.5	135.147
3529.49	132.596
3531.47	122.366
3533.45	127.625
3535.43	127.747
3537.42	125.308
3539.4	125.466
3541.38	123.005
3543.36	117.935
3545.34	131.006
3547.32	136.303
3549.29	120.809
3551.27	131.27
3553.25	120.869
3555.22	128.717
3557.2	131.383
3559.17	144.476
3561.15	126.336
3563.12	142.071
3565.09	108.271
3567.07	124.044
3569.04	111.125
3571.01	121.701
3572.98	127.067
3574.95	114.097
3576.92	127.368
3578.88	130.169
3580.85	127.722
3582.82	133.187
3584.79	133.387
3586.75	138.876
3588.72	120.535
3590.68	110.099
3592.64	126.199
3594.61	113.079
3596.57	110.579
3598.53	116.068
3600.49	118.885
3602.45	116.362
3604.41	119.185
3606.37	122.003
3608.33	116.767
3610.29	116.884
3612.25	106.243
3614.2	119.825
3616.16	106.458
3618.12	125.448
3620.07	117.45
3622.02	120.217
3623.98	114.855
3625.93	123.002
3627.88	123.042
3629.84	114.96
3631.79	112.269
3633.74	128.529
3635.69	115.038
3637.64	123.217
3639.58	112.459
3641.53	128.832
3643.48	123.528
3645.43	115.498
3647.37	110.2
3649.32	110.207
3651.26	118.437
3653.21	123.954
3655.15	102.206
3657.09	110.433
3659.03	110.481
3660.98	113.256
3662.92	121.483
3664.86	102.418
3666.8	118.867
3668.74	127.134
3670.67	102.575
3672.61	113.572
3674.55	121.871
3676.49	105.524
3678.42	124.827
3680.36	108.478
3682.29	114.102
3684.23	119.753
3686.16	111.651
3688.09	117.327
3690.02	103.67
3691.96	103.82
3693.89	98.41
3695.82	106.852
3697.75	118.119
3699.68	98.7947
3701.61	110.079
3703.53	104.627
3705.46	127.127
3707.39	110.519
3709.31	99.4651
3711.24	113.629
3713.16	119.402
3715.09	102.668
3717.01	105.599
3718.93	114.167
3720.86	111.461
3722.78	108.744
3724.7	120.15
3726.62	111.763
3728.54	126.021
3730.46	109.125
3732.38	112.07
3734.29	100.817
3736.21	115.127
3738.13	101.006
3740.04	109.636
3741.96	115.425
3743.87	112.666
3745.79	107.043
3747.7	107.118
3749.62	118.619
3751.53	107.244
3753.44	107.295
3755.35	104.476
3757.26	93.0577
3759.17	98.8121
3761.08	107.43
3762.99	116.052
3764.9	98.8789
3766.81	104.636
3768.71	107.539
3770.62	110.452
3772.52	116.242
3774.43	107.678
3776.33	104.852
3778.24	113.529
3780.14	102.095
3782.04	119.434
3783.95	102.248
3785.85	102.328
3787.75	99.5182
3789.65	111.13
3791.55	111.206
3793.45	105.515
3795.34	99.8261
3797.24	108.615
3799.14	97.127
3801.04	94.3262
3802.93	85.7105
3804.83	94.5328
3806.72	106.291
3808.62	109.33
3810.51	91.9381
3812.4	115.406
3814.29	103.824
3816.19	98.0714
3818.08	109.891
3819.97	107.063
3821.86	101.288
3823.75	121.943
3825.64	107.33
3827.52	92.7028
3829.41	101.62
3831.3	107.614
3833.18	98.8634
3835.07	98.9532
3836.95	99.0373
3838.84	87.2816
3840.72	111.058
3842.61	96.3501
3844.49	99.3837
3846.37	111.305
3848.25	105.397
3850.13	102.466
3852.01	96.5594
3853.89	114.405
3855.77	105.521
3857.65	96.608
3859.53	99.5768
3861.41	108.51
3863.28	90.6947
3865.16	99.6921
3867.03	102.78
3868.91	90.9868
3870.78	94.0603
3872.66	94.0724
3874.53	91.1139
3876.4	94.131
3878.27	97.1487
3880.14	100.17
3882.01	94.2224
3883.89	91.2676
3885.75	106.277
3887.62	94.3484
3889.49	109.381
3891.36	109.445
3893.23	91.5216
3895.09	97.6244
3896.96	85.6761
3898.82	103.792
3900.69	73.7663
3902.55	103.955
3904.42	94.9791
3906.28	85.9995
3908.14	95.1109
3910	110.291
3911.87	95.2674
3913.73	101.4
3915.59	110.583
3917.45	77.3354
3919.3	95.6381
3921.16	95.7572
3923.02	92.831
3924.88	86.8438
3926.73	99.1414
3928.59	90.0841
3930.45	81.0054
3932.3	105.553
3934.15	93.3828
3936.01	87.3242
3937.86	93.5155
3939.71	105.871
3941.56	96.7555
3943.42	99.9374
3945.27	90.7976
3947.12	90.8854
3948.97	78.6318
3950.81	100.294
3952.66	88.0127
3954.51	88.0703
3956.36	97.4049
3958.2	97.4565
3960.05	97.4948
3961.9	88.2445
3963.74	97.5709
3965.58	103.796
3967.43	85.2219
3969.27	85.2289
3971.11	94.5403
3972.96	103.857
3974.8	97.675
3976.64	85.2848
3978.48	91.4966
3980.32	82.1913
3982.16	97.6918
3984	94.5868
3985.83	103.89
3987.67	88.3784
3989.51	91.4819
3991.34	94.5957
3993.18	97.7205
3995.01	88.4406
3996.85	91.5843
3998.68	91.6286
