#Acq. time (s)=	45
#Accumulations=	2
#Range (cm-¹)=	100...4000
#Windows=	1
#Auto scanning=	Off
#Autofocus=	Off
#Macrospot=	Off
#AutoExposure=	Off
#Spike filter=	Multiple accum.
#Delay time (s)=	2
#Binning=	1
#Readout mode=	Signal
#DeNoise=	Off
#ICS correction=	On
#Dark correction=	Off
#Inst. Process=	Off
#Detector Gain=	Best Dynamic
#Detector ADC=	50 kHz EM
#Detector EM gain=	100
#Detector temperature (°C)=	-60.09
#Instrument=	LabRAM HR Evol
#Detector=	SIN-EM FIVIS
#Objective=	x100_VIS_LWD
#Grating=	150 (500nm)
#ND Filter=	100%
#Laser=	633nm_Edge
#Hole=	49.98
#Temperature=	0
#Range=	Visible
#StageXY=	75x50mm Scan+
#StageZ=	Z motor
#X (µm)=	0
#Y (µm)=	0
#Z (µm)=	4.4
#Full time(mm:ss)=	1:34
#Project=	21_11_22
#Sample=	BU04w
#Site=	
#Title=	BU04w-A-FF3-FI10-V_150 (500nm)_633nm_Edge_100%_x100_VIS_LWD_H50um_45sX2
#Remark=	
#Date=	22.11.2021 11:50
#Acquired=	22.11.2021 11:50:46
100.177	1321.05
103.438	1214.72
106.695	1229.58
109.954	1148.15
113.209	1084.74
116.464	1046.08
119.717	1001.49
122.969	973.208
126.219	944.792
129.469	959.475
132.716	916.587
135.963	947.341
139.208	958.798
142.452	910.03
145.694	908.24
148.936	873.853
152.175	851.034
155.414	886.715
158.651	906.096
161.887	1046.27
165.121	1129.96
168.353	1019.94
171.586	830.229
174.815	733.378
178.045	671.883
181.272	672.644
184.5	634.913
187.724	645.99
190.947	610.062
194.17	580.92
197.39	578.602
200.611	583.121
203.829	553.554
207.045	583.048
210.262	555.259
213.475	560.864
216.688	571.263
219.9	595.922
223.11	589.084
226.32	638.355
229.527	797.767
232.733	926.686
235.939	1086.91
239.142	1073.1
242.344	887.348
245.546	760.974
248.745	697.161
251.943	642.823
255.141	674.858
258.336	673.747
261.53	647.038
264.723	641.228
267.916	611.746
271.106	593.691
274.294	628.766
277.483	627.824
280.669	636.294
283.854	694.955
287.038	699.529
290.221	646.227
293.402	631.729
296.582	554.781
299.76	574.426
302.938	603.485
306.114	613.577
309.288	620.855
312.461	746.21
315.634	770.449
318.805	943.799
321.974	1172.94
325.142	1515.26
328.309	1695.19
331.475	1597.01
334.639	1287.47
337.802	1032.68
340.963	856.229
344.123	771.255
347.282	713.548
350.441	640.835
353.597	623.637
356.752	651.622
359.906	664.491
363.058	671.681
366.209	714.578
369.36	711.399
372.509	658.448
375.656	634.599
378.802	564.853
381.947	542.989
385.09	542.876
388.232	572.99
391.373	575.12
394.512	547.335
397.652	570.346
400.789	593.672
403.925	588.616
407.059	619.426
410.192	621.948
413.324	629.083
416.455	648.343
419.584	699.001
422.712	772.093
425.839	794.692
428.964	884.581
432.089	980.816
435.212	1075.85
438.333	1003.9
441.454	901.097
444.573	791.895
447.691	760.748
450.807	769.897
453.923	810.921
457.037	824.853
460.15	822.147
463.261	709.639
466.371	677.644
469.48	610.237
472.588	576.573
475.695	576.585
478.8	539.422
481.904	576.715
485.007	567.424
488.108	569.315
491.208	550.729
494.307	599.282
497.405	622.62
500.502	605.94
503.597	642.48
506.691	706.984
509.784	734.247
512.874	787.738
515.964	789.933
519.053	721.3
522.141	722.839
525.227	718.818
528.312	657.754
531.396	688.598
534.479	656.681
537.559	623.721
540.639	638.536
543.718	622.183
546.796	582.071
549.873	562.391
552.948	587.223
556.022	558.131
559.093	533.48
562.165	542.56
565.235	542.144
568.304	509.537
571.372	540.854
574.437	511.857
577.503	490.368
580.567	484.898
583.63	487.065
586.691	475.243
589.75	487.826
592.81	502.447
595.868	564.599
598.924	590.643
601.98	590.005
605.033	550.339
608.086	545.167
611.138	535.436
614.188	534.152
617.236	547.144
620.285	544.165
623.332	521.573
626.376	541.338
629.42	527.774
632.464	508.328
635.506	500.886
638.545	520.582
641.585	506.162
644.623	494.319
647.659	517.506
650.695	508.609
653.73	539.905
656.762	520.426
659.794	544.08
662.825	532.108
665.854	528.655
668.883	500.947
671.91	475.476
674.935	478.423
677.96	441.1
680.982	411.247
684.005	434.739
687.027	436.843
690.045	440.062
693.064	417.173
696.082	419.524
699.097	431.236
702.113	427.932
705.126	441.495
708.139	432.438
711.149	447.7
714.16	443.677
717.169	423.85
720.176	444.338
723.183	423.611
726.187	429.903
729.192	395.766
732.194	417.899
735.196	414.717
738.196	407.789
741.196	418.654
744.193	400.573
747.19	400.317
750.185	432.712
753.18	420.508
756.173	409.177
759.165	423.326
762.155	423.684
765.146	425.143
768.133	409.847
771.121	417.923
774.107	419.482
777.092	420.021
780.075	404.475
783.058	414.224
786.039	422.03
789.02	403.42
791.998	421.506
794.975	409.338
797.952	412.179
800.927	412.069
803.902	424.152
806.874	404.125
809.845	430.255
812.817	417.649
815.786	432.267
818.755	426.145
821.721	424.707
824.686	427.924
827.652	423.642
830.615	437.282
833.576	432.536
836.538	419.5
839.498	426.279
842.458	439.85
845.415	410.216
848.37	436.876
851.327	427.98
854.28	416.28
857.233	439.401
860.184	434.349
863.135	419.852
866.084	443.107
869.032	456.012
871.98	447.982
874.925	448.313
877.87	459.912
880.813	455.366
883.756	454.533
886.697	442.219
889.636	494.351
892.576	467.659
895.513	469.387
898.45	462.393
901.385	450.513
904.318	453.746
907.253	466.407
910.184	454.457
913.114	447.277
916.044	493.738
918.973	476.479
921.9	474.353
924.826	505.324
927.75	521.358
930.674	549.022
933.596	558.724
936.519	619.732
939.439	639.672
942.357	692.825
945.275	715.886
948.192	814.143
951.107	888.024
954.023	932.548
956.936	908.386
959.848	872.452
962.759	801.854
965.669	806.496
968.577	762.267
971.485	743.616
974.391	788.115
977.296	835.183
980.201	902.936
983.104	979.083
986.006	1048.28
988.907	1097.2
991.806	1147.88
994.704	1025.43
997.602	989.246
1000.5	920.797
1003.39	877.332
1006.29	879.865
1009.18	876.901
1012.07	841.084
1014.96	935.005
1017.85	952.585
1020.74	1052.46
1023.63	1154.79
1026.51	1169.56
1029.4	1085.74
1032.28	963.374
1035.16	831.218
1038.04	709.325
1040.92	675.721
1043.8	631.377
1046.68	605.328
1049.56	597.366
1052.43	575.722
1055.31	562.691
1058.18	558.254
1061.05	553.662
1063.93	512.015
1066.8	530.324
1069.67	523.46
1072.53	518.522
1075.4	546.53
1078.26	581.23
1081.13	577.071
1083.99	612.666
1086.85	655.012
1089.72	687.798
1092.58	756.33
1095.44	912.963
1098.29	1015.21
1101.15	1002.32
1104	902.543
1106.86	784.935
1109.71	697.822
1112.56	621.875
1115.42	569.544
1118.27	556.928
1121.11	542.105
1123.96	529.07
1126.81	522.808
1129.65	525.452
1132.5	555.431
1135.34	518.944
1138.18	585.231
1141.03	588.956
1143.87	653.424
1146.7	737.416
1149.54	853.178
1152.38	996.326
1155.21	1150.07
1158.05	1087.85
1160.88	869.89
1163.71	710.725
1166.55	571.595
1169.37	559.291
1172.2	491.115
1175.03	474.95
1177.86	489.111
1180.68	444.721
1183.51	475.674
1186.33	425.784
1189.15	444.354
1191.98	453.194
1194.8	446.656
1197.61	428.358
1200.43	435.709
1203.25	429.535
1206.06	437.127
1208.88	403.523
1211.69	426.937
1214.51	421.919
1217.32	411.973
1220.13	409.968
1222.94	429.868
1225.74	421.931
1228.55	434.922
1231.36	423.843
1234.16	416.642
1236.97	435.492
1239.77	441.188
1242.57	419.498
1245.37	453.165
1248.17	448.381
1250.97	442.435
1253.77	468.834
1256.56	427.322
1259.36	496.818
1262.15	501.492
1264.94	477.964
1267.74	454.479
1270.53	449.062
1273.32	482.793
1276.11	529.505
1278.89	1071.84
1281.68	1203
1284.46	633.994
1287.25	438.341
1290.03	444.054
1292.81	448.836
1295.59	428.75
1298.38	425.718
1301.15	413.729
1303.93	436.89
1306.71	437.192
1309.48	436.641
1312.26	421.257
1315.03	422.917
1317.81	417.568
1320.58	425.352
1323.35	438.259
1326.12	401.7
1328.88	420.761
1331.65	430.761
1334.42	447.81
1337.18	405.768
1339.95	425.815
1342.71	413.043
1345.47	431.91
1348.23	423.109
1350.99	423.502
1353.75	432.056
1356.51	450.816
1359.26	436.649
1362.02	447.059
1364.77	458.401
1367.53	457.326
1370.28	455.197
1373.03	454.072
1375.78	474.544
1378.53	527.851
1381.28	932.26
1384.03	1806.59
1386.77	949.259
1389.52	502.731
1392.26	469.915
1395	436.145
1397.74	475.572
1400.49	450.189
1403.23	493.702
1405.96	514.678
1408.7	466.703
1411.44	434.143
1414.17	457.305
1416.91	431.994
1419.64	424.199
1422.37	400.887
1425.11	419.038
1427.84	416.448
1430.56	414.926
1433.29	438.357
1436.02	427.445
1438.74	430.068
1441.47	419.059
1444.19	407.081
1446.92	412.778
1449.64	399.5
1452.36	413.382
1455.08	408.332
1457.8	416.835
1460.52	426.338
1463.23	401.129
1465.95	412.634
1468.66	407.319
1471.38	393.62
1474.09	411.433
1476.8	425.104
1479.51	397.903
1482.22	430.538
1484.93	398.118
1487.64	402.503
1490.34	423.771
1493.05	420.92
1495.75	425.512
1498.46	413.241
1501.16	421.067
1503.86	423.637
1506.56	425.202
1509.26	408.835
1511.96	408.335
1514.65	407.899
1517.35	424.508
1520.05	409.238
1522.74	427.001
1525.43	418.152
1528.13	404.924
1530.82	404.589
1533.51	419.368
1536.2	428.707
1538.88	427.136
1541.57	426.647
1544.25	443.265
1546.94	422.919
1549.62	419.732
1552.31	403.429
1554.99	408.591
1557.67	424.491
1560.35	417.807
1563.03	423.007
1565.71	415.242
1568.38	422.568
1571.06	429.881
1573.73	426.434
1576.41	429.504
1579.08	420.889
1581.75	425.2
1584.42	422.015
1587.09	446.856
1589.76	412.507
1592.43	429.909
1595.09	426.897
1597.76	420.715
1600.42	427.483
1603.09	413.826
1605.75	423.974
1608.41	420.177
1611.07	426.203
1613.73	437.787
1616.39	432.058
1619.05	427.445
1621.7	423.9
1624.36	436.747
1627.01	429.892
1629.67	443.882
1632.32	420.46
1634.97	439.838
1637.62	435.992
1640.27	432.867
1642.92	458.619
1645.57	441.297
1648.22	438.278
1650.86	438.534
1653.51	448.74
1656.15	443.357
1658.79	414.631
1661.43	450.177
1664.07	424.735
1666.71	435.841
1669.35	435.855
1671.99	417.004
1674.63	430.316
1677.26	433.574
1679.9	432.46
1682.53	441.185
1685.16	446.521
1687.79	434.135
1690.43	433.982
1693.05	436.115
1695.68	426.177
1698.31	435.207
1700.94	432.319
1703.56	426.919
1706.19	456.834
1708.81	422.109
1711.44	431.484
1714.06	430.367
1716.68	428.537
1719.3	420.404
1721.92	443.167
1724.53	447.917
1727.15	419.246
1729.77	435.39
1732.38	427.981
1735	444.152
1737.61	435.573
1740.22	433.739
1742.83	431.896
1745.44	451.499
1748.05	437.166
1750.66	435.199
1753.27	441.111
1755.87	451.522
1758.48	449.389
1761.08	420.021
1763.69	449.531
1766.29	437.174
1768.89	438.428
1771.49	421.565
1774.09	446.646
1776.69	429.847
1779.29	448.281
1781.88	427.043
1784.48	431.939
1787.07	422.091
1789.66	433.958
1792.26	442.417
1794.85	455.482
1797.44	438.885
1800.03	454.375
1802.62	453.846
1805.21	454.486
1807.79	444.717
1810.38	447.496
1812.96	452.582
1815.55	455.373
1818.13	457.04
1820.71	448.266
1823.29	448.776
1825.87	440.021
1828.45	447.485
1831.03	432.943
1833.61	435.779
1836.18	446.84
1838.76	449.626
1841.33	448.885
1843.91	442.283
1846.48	452.005
1849.05	459.374
1851.62	463.269
1854.19	464.652
1856.76	459.172
1859.33	458.383
1861.89	450.63
1864.46	453.405
1867.02	468.039
1869.59	456.704
1872.15	451.17
1874.71	454.999
1877.27	465.926
1879.83	463.828
1882.39	440.5
1884.95	463.146
1887.51	444.464
1890.06	453.972
1892.62	459.899
1895.17	461.086
1897.73	443.42
1900.28	444.761
1902.83	460.508
1905.38	441.999
1907.93	469.711
1910.48	463.217
1913.03	454.428
1915.57	448.073
1918.12	443.958
1920.66	447.61
1923.21	475.485
1925.75	478.342
1928.29	462.053
1930.83	468.49
1933.37	446.143
1935.91	474.13
1938.45	468.495
1940.99	466.413
1943.53	461.886
1946.06	469.349
1948.6	461.15
1951.13	479.364
1953.66	484.296
1956.19	465.108
1958.73	453.122
1961.26	457.991
1963.78	460.423
1966.31	453.193
1968.84	457.931
1971.36	463.833
1973.89	454.059
1976.41	470.795
1978.94	474.278
1981.46	459.696
1983.98	460.776
1986.5	485.924
1989.02	460.576
1991.54	446.068
1994.06	454.425
1996.58	465.209
1999.09	461.607
2001.61	465.244
2004.12	447.279
2006.63	465.448
2009.15	480.026
2011.66	480.24
2014.17	464.774
2016.68	456.537
2019.19	468.691
2021.69	462.823
2024.2	449.806
2026.71	486.288
2029.21	468.526
2031.72	461.68
2034.22	475.439
2036.72	468.622
2039.22	472.715
2041.72	462.271
2044.22	467.61
2046.72	464.475
2049.22	466.213
2051.71	464.278
2054.21	466.989
2056.71	468.702
2059.2	470.446
2061.69	491.768
2064.18	473.948
2066.68	491.664
2069.17	474.998
2071.66	477.957
2074.14	477.238
2076.63	498.648
2079.12	462.158
2081.6	494.654
2084.09	471.597
2086.57	464.519
2089.06	490.755
2091.54	478.808
2094.02	473.083
2096.5	473.635
2098.98	458.041
2101.46	503.332
2103.93	479.084
2106.41	468.504
2108.89	485.375
2111.36	496.077
2113.84	503.104
2116.31	471.298
2118.78	518.481
2121.25	500.415
2123.72	470.941
2126.19	506.937
2128.66	489.968
2131.13	503.267
2133.59	498.836
2136.06	498.162
2138.53	503.803
2140.99	481.486
2143.45	517.62
2145.92	487.567
2148.38	496.906
2150.84	492.158
2153.3	515.446
2155.76	473.608
2158.21	495.553
2160.67	505.973
2163.13	486.953
2165.58	480.653
2168.04	525.448
2170.49	479.528
2172.94	511.701
2175.39	511.895
2177.84	515.89
2180.29	501.839
2182.74	489.054
2185.19	477.457
2187.64	510.75
2190.08	476.252
2192.53	514.793
2194.98	493.161
2197.42	499.806
2199.86	484.721
2202.3	490.201
2204.74	473.906
2207.18	501.328
2209.62	501.835
2212.06	498.517
2214.5	487.46
2216.93	507.429
2219.37	522.292
2221.81	502.248
2224.24	493.815
2226.67	508.718
2229.11	488.576
2231.54	500.906
2233.97	501.542
2236.4	511.307
2238.83	504.116
2241.25	508.663
2243.68	483.13
2246.1	506.042
2248.53	500.127
2250.96	496.812
2253.38	521.103
2255.8	512.521
2258.22	506.607
2260.64	517.822
2263.06	518.431
2265.48	509.702
2267.9	522.108
2270.32	486.731
2272.73	513.633
2275.15	516.615
2277.56	495.654
2279.98	510.511
2282.39	521.313
2284.8	517.422
2287.21	517.471
2289.62	514.897
2292.03	517.614
2294.44	507.023
2296.85	496.48
2299.26	529.964
2301.66	511.538
2304.07	515.844
2306.47	502.907
2308.88	510.029
2311.28	506.547
2313.68	503.076
2316.08	511.72
2318.48	507.021
2320.88	494.227
2323.28	533.828
2325.68	578.992
2328.07	547.418
2330.47	503.624
2332.86	524.675
2335.26	518.707
2337.65	518.167
2340.04	517.624
2342.43	543
2344.82	486.68
2347.21	516.312
2349.6	504.878
2351.99	522.207
2354.38	523.037
2356.76	532.007
2359.15	560.251
2361.53	534.537
2363.92	522.713
2366.3	538.475
2368.68	540.442
2371.06	535.469
2373.44	523.542
2375.82	537.925
2378.2	537.079
2380.58	519.413
2382.95	518.379
2385.33	536.689
2387.71	532.759
2390.08	534.321
2392.45	524.669
2394.83	528.93
2397.2	510.821
2399.57	545.612
2401.94	528.922
2404.31	523.278
2406.68	530.194
2409.04	533.104
2411.41	537.696
2413.78	521.565
2416.14	528.237
2418.51	538.255
2420.87	518.204
2423.23	535.567
2425.59	542.851
2427.95	526.619
2430.31	521.643
2432.67	532.23
2435.03	538.666
2437.39	538.086
2439.75	543.15
2442.1	529.752
2444.46	551.874
2446.81	554.126
2449.16	532.138
2451.52	544.373
2453.87	539.433
2456.22	528.748
2458.57	539.574
2460.92	546.098
2463.27	536.824
2465.61	559.194
2467.96	551.293
2470.3	526.001
2472.65	578.743
2474.99	544.715
2477.34	533.843
2479.68	565.045
2482.02	549.744
2484.36	550.389
2486.7	550.953
2489.04	544.235
2491.38	565.229
2493.72	540.944
2496.05	575.203
2498.39	549.399
2500.72	564.591
2503.06	546.027
2505.39	553.846
2507.72	571.938
2510.06	559.122
2512.39	549.193
2514.72	577.529
2517.04	548.399
2519.37	560.616
2521.7	558.13
2524.03	542.32
2526.35	588.557
2528.68	560.894
2531	555.393
2533.33	584.055
2535.65	575.701
2537.97	567.356
2540.29	559.011
2542.61	574.468
2544.93	548.25
2547.25	542.919
2549.57	562.917
2551.88	579.987
2554.2	574.627
2556.51	566.169
2558.83	557.67
2561.14	567.287
2563.46	587.437
2565.77	571.632
2568.08	587.402
2570.39	547.466
2572.7	567.819
2575.01	559.465
2577.31	555.585
2579.62	563.755
2581.93	584.011
2584.23	566.195
2586.54	574.16
2588.84	559.267
2591.15	580.661
2593.45	579.476
2595.75	560.082
2598.05	556.009
2600.35	565.55
2602.65	585.751
2604.95	583.053
2607.24	595.601
2609.54	556.21
2611.84	568.619
2614.13	579.553
2616.42	564.479
2618.72	581.595
2621.01	554.268
2623.3	575.981
2625.59	591.626
2627.88	588.907
2630.17	584.805
2632.46	570.064
2634.75	578.428
2637.04	570.01
2639.32	558.6
2641.61	588.813
2643.89	597.505
2646.18	592.315
2648.46	594.771
2650.74	567.689
2653.02	585.726
2655.3	592.563
2657.58	574.367
2659.86	615.466
2662.14	603.429
2664.42	586.613
2666.69	594.768
2668.97	606.262
2671.24	589.554
2673.52	610.708
2675.79	592.809
2678.06	600.438
2680.33	614.697
2682.61	581.245
2684.88	588.916
2687.15	631.627
2689.41	589.971
2691.68	595.878
2693.95	596.997
2696.22	598.877
2698.48	599.542
2700.74	605.029
2703.01	596.016
2705.27	594.973
2707.53	600.367
2709.8	642.773
2712.06	588.498
2714.32	595.507
2716.57	599.502
2718.83	600.039
2721.09	603.876
2723.35	596.299
2725.6	617.781
2727.86	593.848
2730.11	610.401
2732.37	617.097
2734.62	623.898
2736.87	599.724
2739.12	588.52
2741.37	618.15
2743.62	597.36
2745.87	597.785
2748.12	622.723
2750.37	620.088
2752.61	601.567
2754.86	603.953
2757.1	616.029
2759.35	637.857
2761.59	608.729
2763.83	640.475
2766.08	623.031
2768.32	599
2770.56	630.782
2772.8	606.715
2775.04	605.78
2777.27	606.6
2779.51	630.608
2781.75	596.898
2783.98	594.558
2786.22	638.836
2788.45	633.229
2790.68	622.568
2792.92	621.87
2795.15	619.462
2797.38	611.891
2799.61	624.452
2801.84	645.361
2804.07	595.6
2806.3	614.735
2808.52	622.078
2810.75	620.968
2812.98	650.231
2815.2	642.244
2817.42	644.409
2819.65	604.282
2821.87	623.399
2824.09	640.885
2826.31	651.615
2828.53	614.774
2830.75	630.541
2832.97	631.002
2835.19	653.554
2837.41	642.097
2839.62	637.445
2841.84	619.148
2844.05	633.278
2846.27	615.063
2848.48	675.467
2850.69	650.464
2852.9	646.07
2855.12	652.029
2857.33	647.7
2859.54	643.33
2861.74	613.207
2863.95	633.086
2866.16	642.731
2868.37	612.594
2870.57	641.273
2872.78	643.985
2874.98	669.328
2877.18	630.342
2879.39	626.154
2881.59	651.692
2883.79	673.858
2885.99	636.518
2888.19	658.703
2890.39	656.302
2892.59	659.153
2894.78	640.822
2896.98	642.032
2899.18	636.158
2901.37	649.731
2903.57	661.418
2905.76	678.452
2907.95	672.333
2910.15	673.301
2912.34	661.547
2914.53	655.128
2916.72	657.622
2918.91	660.223
2921.09	630.506
2923.28	669.066
2925.47	675.398
2927.65	683.596
2929.84	661.116
2932.02	651.261
2934.21	691.94
2936.39	685.487
2938.57	640.787
2940.75	664.986
2942.94	661.988
2945.12	715.338
2947.29	670.264
2949.47	645.223
2951.65	691.307
2953.83	702.755
2956	677.679
2958.18	658.036
2960.36	693.266
2962.53	688.305
2964.7	690.678
2966.88	663.779
2969.05	690.071
2971.22	672.338
2973.39	684.004
2975.56	692.011
2977.73	681.606
2979.9	678.557
2982.06	694.039
2984.23	681.929
2986.4	699.431
2988.56	696.649
2990.73	675.336
2992.89	676.313
2995.05	723.756
2997.21	700.626
2999.38	666.261
3001.54	725.284
3003.7	677.822
3005.86	699.619
3008.01	708.307
3010.17	675.595
3012.33	734.988
3014.49	675.83
3016.64	743.211
3018.8	691.529
3020.95	715.562
3023.1	726.275
3025.26	719.768
3027.41	713.115
3029.56	704.488
3031.71	690.054
3033.86	732.892
3036.01	739.335
3038.16	736.084
3040.31	715.871
3042.45	749.242
3044.6	740.308
3046.74	723.635
3048.89	726.182
3051.03	721.012
3053.18	750.559
3055.32	728.081
3057.46	757.753
3059.6	706.181
3061.74	726.164
3063.88	742.305
3066.02	760.423
3068.16	730.02
3070.3	736.488
3072.43	754.637
3074.57	724.182
3076.7	752.136
3078.84	756.744
3080.97	737.922
3083.1	724.926
3085.24	782.481
3087.37	744.219
3089.5	760.908
3091.63	754.147
3093.76	743.502
3095.89	788.078
3098.02	779.498
3100.14	778.781
3102.27	766.247
3104.4	797.38
3106.52	796.884
3108.65	814.32
3110.77	748.101
3112.89	787.583
3115.01	793.094
3117.14	806.707
3119.26	826.389
3121.38	793.883
3123.5	809.716
3125.62	821.623
3127.73	809.298
3129.85	809.184
3131.97	894.765
3134.08	847.907
3136.2	813.093
3138.31	841.692
3140.43	847.693
3142.54	861.895
3144.65	859.535
3146.76	861.235
3148.87	881.593
3150.98	870.671
3153.09	869.915
3155.2	883.746
3157.31	851.637
3159.42	894.697
3161.52	889.751
3163.63	893.183
3165.73	888.103
3167.84	903.978
3169.94	955.604
3172.05	900.174
3174.15	882.299
3176.25	916.982
3178.35	915.678
3180.45	920.627
3182.55	944.572
3184.65	934.593
3186.75	945.771
3188.84	937.617
3190.94	951.059
3193.04	941.231
3195.13	899.53
3197.23	885.657
3199.32	872.023
3201.41	937.764
3203.51	922.258
3205.6	962.541
3207.69	955.914
3209.78	919.07
3211.87	972.709
3213.96	929.373
3216.05	911.946
3218.13	974.645
3220.22	987.439
3222.31	948.016
3224.39	917.143
3226.48	940.903
3228.56	947.15
3230.64	951.147
3232.73	911.224
3234.81	895.149
3236.89	934.261
3238.97	907.263
3241.05	906.898
3243.13	877.642
3245.21	906.424
3247.29	923.701
3249.36	938.888
3251.44	915.575
3253.52	905.676
3255.59	940.351
3257.66	889.746
3259.74	897.996
3261.81	903.977
3263.88	925.937
3265.95	871.293
3268.03	874.149
3270.1	920.704
3272.17	914.11
3274.23	910.826
3276.3	909.328
3278.37	905.747
3280.44	918.1
3282.5	898.413
3284.57	887.857
3286.63	920.9
3288.7	878.124
3290.76	867.453
3292.82	898.17
3294.88	852.853
3296.94	899.724
3299	861.299
3301.06	871.555
3303.12	897.804
3305.18	884.807
3307.24	911.182
3309.3	867.945
3311.35	915.166
3313.41	897.311
3315.46	881.91
3317.52	894.317
3319.57	916.244
3321.63	877.546
3323.68	873.988
3325.73	865.686
3327.78	894.991
3329.83	872.706
3331.88	900.106
3333.93	880.581
3335.98	891.547
3338.02	893.134
3340.07	880.093
3342.12	874.021
3344.16	886.757
3346.21	913.774
3348.25	928.661
3350.3	877.276
3352.34	935.142
3354.38	916.875
3356.42	863.1
3358.46	890.327
3360.5	912.818
3362.54	909.112
3364.58	926.837
3366.62	937.385
3368.66	854.385
3370.69	869.732
3372.73	884.978
3374.76	864.076
3376.8	912.898
3378.83	877.39
3380.87	938.303
3382.9	931.681
3384.93	864.65
3386.96	899.011
3388.99	892.277
3391.02	856.445
3393.05	902.891
3395.08	879.262
3397.11	884.768
3399.14	902.419
3401.16	864.164
3403.19	898.57
3405.21	923.275
3407.24	889.708
3409.26	919.316
3411.29	919.625
3413.31	917.56
3415.33	876.523
3417.35	913.43
3419.37	884.538
3421.39	916.537
3423.41	909.518
3425.43	895.22
3427.45	878.582
3429.46	910.815
3431.48	886.951
3433.5	907.113
3435.51	905.358
3437.53	893.868
3439.54	906.927
3441.55	902.837
3443.57	879.176
3445.58	941.663
3447.59	903.501
3449.6	946.525
3451.61	915.622
3453.62	889.723
3455.63	905.929
3457.64	900.023
3459.64	894.13
3461.65	893.212
3463.66	919.713
3465.66	911.354
3467.67	890.454
3469.67	891.951
3471.67	888.399
3473.68	899.407
3475.68	885.705
3477.68	929.892
3479.68	918.684
3481.68	914.996
3483.68	951.764
3485.68	930.309
3487.68	931.607
3489.67	907.457
3491.67	901.057
3493.67	925.167
3495.66	949.216
3497.66	942.618
3499.65	910.365
3501.64	906.13
3503.64	919.679
3505.63	923.023
3507.62	915.919
3509.61	947.127
3511.6	916.628
3513.59	914.361
3515.58	942.906
3517.57	920.047
3519.56	930.598
3521.54	930.853
3523.53	928.559
3525.52	923.771
3527.5	929.298
3529.49	926.882
3531.47	909.371
3533.45	889.504
3535.43	905.844
3537.42	922.371
3539.4	897.661
3541.38	898.582
3543.36	896.828
3545.34	907.965
3547.32	911.282
3549.29	904.121
3551.27	896.793
3553.25	912.364
3555.22	899.717
3557.2	905.374
3559.17	890.282
3561.15	909.099
3563.12	912.381
3565.09	897.476
3567.07	932.289
3569.04	904.691
3571.01	923.884
3572.98	914.36
3574.95	931.135
3576.92	921.777
3578.88	936.168
3580.85	900.637
3582.82	933.63
3584.79	916.542
3586.75	899.387
3588.72	913.948
3590.68	931.197
3592.64	948.488
3594.61	915.272
3596.57	900.62
3598.53	936.55
3600.49	945.734
3602.45	941.593
3604.41	881.164
3606.37	911.668
3608.33	918.027
3610.29	894.766
3612.25	927.946
3614.2	923.596
3616.16	908.259
3618.12	882.18
3620.07	936.898
3622.02	926.62
3623.98	916.141
3625.93	921.839
3627.88	914.029
3629.84	938.617
3631.79	903.563
3633.74	911.877
3635.69	906.767
3637.64	882.831
3639.58	910.512
3641.53	886.909
3643.48	898.633
3645.43	907.68
3647.37	927.856
3649.32	895.259
3651.26	917.548
3653.21	890.838
3655.15	937.565
3657.09	883.466
3659.03	932.952
3660.98	925.153
3662.92	922.728
3664.86	893.085
3666.8	912.68
3668.74	907.708
3670.67	910.868
3672.61	930.473
3674.55	939.362
3676.49	871.603
3678.42	905.339
3680.36	906.273
3682.29	912.817
3684.23	927.742
3686.16	895.962
3688.09	916.535
3690.02	942.71
3691.96	924.69
3693.89	903.708
3695.82	913.1
3697.75	936.61
3699.68	915.591
3701.61	936.366
3703.53	931.881
3705.46	938.786
3707.39	923.321
3709.31	913.398
3711.24	903.418
3713.16	946.789
3715.09	925.419
3717.01	951.8
3718.93	964.081
3720.86	925.553
3722.78	934.92
3724.7	947.068
3726.62	933.719
3728.54	940.199
3730.46	929.688
3732.38	933.441
3734.29	948.529
3736.21	932.384
3738.13	955.996
3740.04	945.437
3741.96	931.947
3743.87	932.704
3745.79	933.412
3747.7	939.78
3749.62	931.8
3751.53	938.028
3753.44	967.089
3755.35	947.443
3757.26	930.577
3759.17	950.887
3761.08	942.516
3762.99	945.608
3764.9	931.468
3766.81	931.687
3768.71	934.875
3770.62	946.731
3772.52	955.769
3774.43	959.053
3776.33	936.487
3778.24	928.354
3780.14	960.555
3782.04	946.838
3783.95	933.19
3785.85	948.338
3787.75	937.49
3789.65	935.222
3791.55	935.866
3793.45	959.753
3795.34	960.646
3797.24	978.985
3799.14	956.773
3801.04	931.652
3802.93	952.985
3804.83	942.419
3806.72	963.903
3808.62	976.685
3810.51	968.998
3812.4	964.148
3814.29	970.972
3816.19	945.584
3818.08	958.249
3819.97	962.096
3821.86	962.973
3823.75	952.04
3825.64	990.969
3827.52	947.629
3829.41	960.232
3831.3	981.791
3833.18	985.683
3835.07	948.178
3836.95	978.548
3838.84	970.453
3840.72	962.502
3842.61	939.784
3844.49	970.104
3846.37	1003.23
3848.25	970.84
3850.13	968.228
3852.01	971.536
3853.89	980.615
3855.77	983.868
3857.65	983.915
3859.53	983.879
3861.41	975.107
3863.28	963.445
3865.16	985.018
3867.03	950.341
3868.91	954.615
3870.78	988.38
3872.66	979.547
3874.53	985.823
3876.4	986.134
3878.27	971.487
3880.14	962.828
3882.01	969.145
3883.89	963.546
3885.75	978.946
3887.62	961.456
3889.49	973.943
3891.36	983.506
3893.23	969.229
3895.09	997.27
3896.96	998.051
3898.82	1004.83
3900.69	981.544
3902.55	970.249
3904.42	992.004
3906.28	989.749
3908.14	1005.46
3910	969.959
3911.87	988.966
3913.73	989.781
3915.59	969.498
3917.45	973.516
3919.3	977.634
3921.16	1006.21
3923.02	977.008
3924.88	996.418
3926.73	985.313
3928.59	983.291
3930.45	993.463
3932.3	985.162
3934.15	1016.49
3936.01	980.482
3937.86	990.345
3939.71	991.202
3941.56	995.199
3943.42	1033.2
3945.27	978.767
3947.12	1007.44
3948.97	986.752
3950.81	1012.19
3952.66	1003.65
3954.51	1016.67
3956.36	998.786
3958.2	1017.88
3960.05	978.043
3961.9	981.527
3963.74	1022.17
3965.58	988.382
3967.43	1016.46
3969.27	994.854
3971.11	988.799
3972.96	970.369
3974.8	1007.76
3976.64	1017.21
3978.48	1001.81
3980.32	989.397
3982.16	976.919
3984	1017.2
3985.83	989.281
3987.67	1032.63
3989.51	983.043
3991.34	1020.39
3993.18	980.307
3995.01	1002.33
3996.85	996.561
3998.68	1000.15
