#Acq. time (s)=	45
#Accumulations=	2
#Range (cm-¹)=	100...4000
#Windows=	1
#Auto scanning=	Off
#Autofocus=	Off
#Macrospot=	Off
#AutoExposure=	Off
#Spike filter=	Multiple accum.
#Delay time (s)=	2
#Binning=	1
#Readout mode=	Signal
#DeNoise=	Off
#ICS correction=	On
#Dark correction=	Off
#Inst. Process=	Off
#Detector Gain=	Best Dynamic
#Detector ADC=	50 kHz HS
#Detector temperature (°C)=	-60.09
#Instrument=	LabRAM HR Evol
#Detector=	SIN-EM FIVIS
#Objective=	x100_VIS_LWD
#Grating=	150 (500nm)
#ND Filter=	100%
#Laser=	633nm_Edge
#Hole=	49.98
#Temperature=	0
#Range=	Visible
#StageXY=	75x50mm Scan+
#StageZ=	Z motor
#X (µm)=	0
#Y (µm)=	0
#Z (µm)=	-9.5
#Full time(mm:ss)=	1:35
#Project=	21_11_22
#Sample=	BU04w
#Site=	
#Title=	BU04w-A-FF3-FI09-V_150 (500nm)_633nm_Edge_100%_x100_VIS_LWD_H50um_45sX2
#Remark=	
#Date=	22.11.2021 12:39
#Acquired=	22.11.2021 12:39:01
100.177	544.719
103.438	522.977
106.695	507.953
109.954	511.082
113.209	485.554
116.464	488.648
119.717	494.531
122.969	488.038
126.219	507.3
129.469	514.175
132.716	547.752
135.963	592.806
139.208	609.057
142.452	593.769
145.694	527.813
148.936	502.011
152.175	506.887
155.414	608.54
158.651	774.396
161.887	950.933
165.121	873.587
168.353	659.99
171.586	479.826
174.815	390.655
178.045	344.568
181.272	311.889
184.5	282.981
187.724	298.113
190.947	282.56
194.17	266.096
197.39	268.773
200.611	260.066
203.829	268.665
207.045	281.027
210.262	275.244
213.475	271.37
216.688	309.474
219.9	321.798
223.11	388.433
226.32	515.924
229.527	686.86
232.733	897.668
235.939	983.738
239.142	825.495
242.344	604.707
245.546	492.59
248.745	465.882
251.943	453.394
255.141	475.058
258.336	484.434
261.53	452.073
264.723	437.762
267.916	395.975
271.106	400.694
274.294	395.942
277.483	471.817
280.669	520.13
283.854	534.252
287.038	485.784
290.221	445.821
293.402	382.163
296.582	371.59
299.76	354.403
302.938	391.13
306.114	423.075
309.288	483.36
312.461	570.047
315.634	732.21
318.805	1033.93
321.974	1477.27
325.142	1829.92
328.309	1764.53
331.475	1375.8
334.639	991.774
337.802	764.372
340.963	591.722
344.123	516.213
347.282	454.804
350.441	416.072
353.597	447.003
356.752	470.355
359.906	464.485
363.058	543.271
366.209	547.687
369.36	491.965
372.509	417.518
375.656	367.523
378.802	333.563
381.947	301.504
385.09	299.566
388.232	282.744
391.373	290.374
394.512	308.404
397.652	323.697
400.789	330.707
403.925	351.757
407.059	356.854
410.192	378.926
413.324	420.806
416.455	453.179
419.584	530.162
422.712	618.337
425.839	737.455
428.964	837.8
432.089	902.936
435.212	912.255
438.333	784.003
441.454	646.664
444.573	592.277
447.691	599.875
450.807	613.951
453.923	619.649
457.037	626.347
460.15	565.984
463.261	454.598
466.371	389.156
469.48	339.59
472.588	329.271
475.695	315.305
478.8	319.088
481.904	334.942
485.007	337.753
488.108	343.359
491.208	351.777
494.307	365.814
497.405	395.662
500.502	420.895
503.597	478.829
506.691	531.171
509.784	563.047
512.874	600.603
515.964	558.836
519.053	541.442
522.141	489.529
525.227	498.399
528.312	469.891
531.396	468.603
534.479	415.71
537.559	422.869
540.639	388.49
543.718	373.781
546.796	352.356
549.873	346.776
552.948	325.239
556.022	300.786
559.093	298.843
562.165	293.926
565.235	270.129
568.304	259.478
571.372	251.615
574.437	237.145
577.503	232.995
580.567	230.748
583.63	235.119
586.691	251.627
589.75	267.232
592.81	301.561
595.868	367.548
598.924	415.034
601.98	391.938
605.033	362.384
608.086	360.8
611.138	370.507
614.188	357.816
617.236	359.298
620.285	359.805
623.332	344.426
626.376	309.269
629.42	311.481
632.464	302.262
635.506	299.494
638.545	271.137
641.585	273.818
644.623	253.75
647.659	278.042
650.695	298.49
653.73	320.657
656.762	323.977
659.794	336.655
662.825	306.266
665.854	267.596
668.883	236.481
671.91	203.709
674.935	180.458
677.96	176.72
680.982	152.469
684.005	145.068
687.027	144.214
690.045	151.826
693.064	137.031
696.082	132.506
699.097	140.152
702.113	133.729
705.126	146.069
708.139	141.482
711.149	130.266
714.16	138.649
717.169	135.801
720.176	133.865
723.183	126.332
726.187	120.617
729.192	125.201
732.194	124.152
735.196	111.87
738.196	122.992
741.196	121.952
744.193	118.118
747.19	129.24
750.185	126.363
753.18	116.083
756.173	116.974
759.165	125.413
762.155	118.053
765.146	123.805
768.133	122.112
771.121	118.536
774.107	118.712
777.092	124.503
780.075	114.288
783.058	125.679
786.039	122.935
789.02	123.005
791.998	123.057
794.975	124.971
797.952	124.031
800.927	109.854
803.902	115.464
806.874	127.643
809.845	118.155
812.817	126.517
815.786	114.175
818.755	130.002
821.721	119.537
824.686	137.179
827.652	131.395
830.615	133.147
833.576	141.532
836.538	139.678
839.498	136.951
842.458	148.332
845.415	138.144
848.37	144.844
851.327	141.252
854.28	145.181
857.233	143.488
860.184	148.395
863.135	152.373
866.084	151.639
869.032	159.415
871.98	182.318
874.925	182.453
877.87	192.973
880.813	200.646
883.756	219.675
886.697	199.758
889.636	208.273
892.576	192.091
895.513	210.039
898.45	207.982
901.385	199.229
904.318	193.315
907.253	199.686
910.184	196.586
913.114	209.514
916.044	211.132
918.973	241.059
921.9	239.994
924.826	253.131
927.75	284.163
930.674	298.484
933.596	341.913
936.519	384.742
939.439	463.715
942.357	525.999
945.275	617.878
948.192	710.24
951.107	771.554
954.023	786.331
956.936	749.514
959.848	666.522
962.759	651.148
965.669	614.45
968.577	603.581
971.485	648.145
974.391	671.482
977.296	772.304
980.201	900.537
983.104	1066.83
986.006	1162.79
988.907	1244.16
991.806	1163.67
994.704	1037.38
997.602	936.251
1000.5	877.382
1003.39	854.921
1006.29	829.819
1009.18	810.657
1012.07	845.375
1014.96	936.436
1017.85	1030.38
1020.74	1172.32
1023.63	1273.81
1026.51	1148.03
1029.4	979.851
1032.28	789.219
1035.16	626.056
1038.04	519.241
1040.92	449.678
1043.8	404.989
1046.68	381.473
1049.56	362.583
1052.43	331.961
1055.31	304.144
1058.18	301.457
1061.05	285.087
1063.93	291.955
1066.8	287.016
1069.67	282.124
1072.53	303.442
1075.4	319.861
1078.26	374.064
1081.13	391.341
1083.99	446.412
1086.85	475.271
1089.72	549.754
1092.58	689.025
1095.44	841.804
1098.29	919.879
1101.15	851.878
1104	677.633
1106.86	517.321
1109.71	422.468
1112.56	345.325
1115.42	316.79
1118.27	300.819
1121.11	283.705
1123.96	271.355
1126.81	279.448
1129.65	284.701
1132.5	307.541
1135.34	371.583
1138.18	409.27
1141.03	473.619
1143.87	508.492
1146.7	645.485
1149.54	893.032
1152.38	1088.38
1155.21	1068.84
1158.05	785.119
1160.88	556.474
1163.71	369.125
1166.55	300.038
1169.37	258.549
1172.2	231.834
1175.03	201.242
1177.86	190.264
1180.68	176.422
1183.51	153.837
1186.33	163.575
1189.15	144.049
1191.98	138.205
1194.8	135.365
1197.61	124.693
1200.43	122.88
1203.25	125.036
1206.06	107.563
1208.88	112.691
1211.69	100.079
1214.51	96.3398
1217.32	99.5271
1220.13	97.7768
1222.94	98.014
1225.74	93.2636
1228.55	105.481
1231.36	96.6922
1234.16	101.902
1236.97	94.0381
1239.77	98.2096
1242.57	95.2946
1245.37	100.423
1248.17	103.511
1250.97	99.4973
1253.77	100.537
1256.56	101.527
1259.36	97.445
1262.15	96.3632
1264.94	94.2819
1267.74	88.175
1270.53	90.1145
1273.32	94.044
1276.11	125.092
1278.89	169.106
1281.68	129.824
1284.46	100.658
1287.25	89.5697
1290.03	85.5105
1292.81	86.4684
1295.59	88.4485
1298.38	82.4454
1301.15	84.4447
1303.93	84.4787
1306.71	84.5372
1309.48	77.6139
1312.26	81.7438
1315.03	83.8801
1317.81	82.0043
1320.58	81.1393
1323.35	81.29
1326.12	81.453
1328.88	72.4926
1331.65	80.7677
1334.42	78.8757
1337.18	72.8956
1339.95	78.1171
1342.71	74.1228
1345.47	75.226
1348.23	75.2991
1350.99	82.547
1353.75	75.4303
1356.51	74.4514
1359.26	71.405
1362.02	78.6208
1364.77	76.5714
1367.53	73.4805
1370.28	80.6612
1373.03	78.5894
1375.78	82.6857
1378.53	103.208
1381.28	185.323
1384.03	171.934
1386.77	96.9784
1389.52	73.3577
1392.26	77.4641
1395	70.2963
1397.74	74.4686
1400.49	82.7402
1403.23	82.7979
1405.96	78.7457
1408.7	69.5418
1411.44	70.6385
1414.17	72.7765
1416.91	75.9607
1419.64	68.8031
1422.37	58.5275
1425.11	68.9753
1427.84	72.1773
1430.56	73.3139
1433.29	66.118
1436.02	75.5847
1438.74	70.4601
1441.47	69.4948
1444.19	68.5445
1446.92	66.5264
1449.64	71.8262
1452.36	66.6238
1455.08	66.6558
1457.8	64.5726
1460.52	63.5307
1463.23	76.1305
1465.95	61.4227
1468.66	65.612
1471.38	65.6033
1474.09	65.5983
1476.8	66.6521
1479.51	68.7668
1482.22	65.6308
1484.93	63.5519
1487.64	67.7844
1490.34	66.7729
1493.05	75.2394
1495.75	67.9344
1498.46	72.2118
1501.16	69.1225
1503.86	72.3669
1506.56	70.3382
1509.26	61.9607
1511.96	66.2881
1514.65	65.3275
1517.35	64.3677
1520.05	63.4105
1522.74	63.5163
1525.43	67.9096
1528.13	63.738
1530.82	60.6347
1533.51	67.2065
1536.2	60.8591
1538.88	67.4142
1541.57	68.5876
1544.25	56.7595
1546.94	67.6021
1549.62	70.8568
1552.31	66.5172
1554.99	69.72
1557.67	61.0274
1560.35	56.6792
1563.03	63.1273
1565.71	68.4879
1568.38	59.8279
1571.06	71.6469
1573.73	60.8422
1576.41	62.9724
1579.08	60.8191
1581.75	64.0491
1584.42	67.2856
1587.09	67.2976
1589.76	71.6232
1592.43	58.7219
1595.09	67.3764
1597.76	63.1072
1600.42	58.8329
1603.09	53.484
1605.75	62.19
1608.41	61.1856
1611.07	56.9355
1613.73	59.2044
1616.39	61.4893
1619.05	60.5184
1621.7	61.7276
1624.36	60.7505
1627.01	65.2514
1629.67	59.8801
1632.32	64.3898
1634.97	67.7946
1637.62	61.2597
1640.27	60.1818
1642.92	59.1232
1645.57	61.3835
1648.22	51.4644
1650.86	61.4612
1653.51	62.602
1656.15	61.5158
1658.79	64.8554
1661.43	62.6477
1664.07	63.7657
1666.71	58.2231
1669.35	63.7701
1671.99	67.0978
1674.63	60.4439
1677.26	55.9987
1679.9	61.5423
1682.53	62.6305
1685.16	61.4935
1687.79	60.358
1690.43	65.8723
1693.05	60.3255
1695.68	61.4359
1698.31	59.2458
1700.94	63.7393
1703.56	60.5914
1706.19	67.4109
1708.81	63.0931
1711.44	61.8795
1714.06	58.5344
1716.68	56.357
1719.3	60.9362
1721.92	58.7532
1724.53	59.9089
1727.15	58.8514
1729.77	56.668
1732.38	64.5903
1735	59.0329
1737.61	57.9639
1740.22	62.526
1742.83	59.2025
1745.44	63.7742
1748.05	61.5648
1750.66	64.9972
1753.27	57.1182
1755.87	68.4639
1758.48	59.428
1761.08	62.8334
1763.69	57.1821
1766.29	61.7254
1768.89	53.8122
1771.49	57.2286
1774.09	61.7823
1776.69	60.6775
1779.29	61.8514
1781.88	60.7628
1784.48	63.0858
1787.07	60.8675
1789.66	59.7974
1792.26	63.2839
1794.85	66.7812
1797.44	63.4327
1800.03	63.5209
1802.62	55.5846
1805.21	61.4015
1807.79	63.7773
1810.38	56.9435
1812.96	62.7627
1815.55	58.2186
1818.13	55.9759
1820.71	58.3439
1823.29	60.7236
1825.87	60.7924
1828.45	62.0218
1831.03	62.0978
1833.61	63.3333
1836.18	64.5824
1838.76	62.3186
1841.33	58.8797
1843.91	56.5983
1846.48	58.9826
1849.05	53.1845
1851.62	60.2484
1854.19	52.0832
1856.76	59.1536
1859.33	55.6859
1861.89	60.4361
1864.46	59.3185
1867.02	58.2109
1869.59	57.088
1872.15	54.7766
1874.71	59.5271
1877.27	64.286
1879.83	59.6013
1882.39	53.7339
1884.95	51.395
1887.51	57.3311
1890.06	56.1554
1892.62	53.7928
1895.17	56.1579
1897.73	57.349
1900.28	58.5523
1902.83	49.1287
1905.38	51.5468
1907.93	52.7832
1910.48	55.2297
1913.03	50.5581
1915.57	56.6049
1918.12	50.721
1920.66	55.5037
1923.21	50.7742
1925.75	59.1949
1928.29	54.4648
1930.83	53.3192
1933.37	54.5685
1935.91	53.4147
1938.45	52.2552
1940.99	48.6848
1943.53	53.5259
1946.06	51.147
1948.6	58.3963
1951.13	53.5972
1953.66	58.4288
1956.19	48.8002
1958.73	56.0377
1961.26	59.6594
1963.78	52.4304
1966.31	58.4571
1968.84	56.0363
1971.36	51.2024
1973.89	54.8002
1976.41	55.9897
1978.94	53.567
1981.46	52.3476
1983.98	48.7243
1986.5	52.321
1989.02	55.9185
1991.54	55.9087
1994.06	51.0928
1996.58	48.6847
1999.09	48.6851
2001.61	55.9014
2004.12	51.1005
2006.63	48.7096
2009.15	53.5367
2011.66	49.9498
2014.17	55.9896
2016.68	51.1948
2019.19	46.3871
2021.69	47.6081
2024.2	51.2513
2026.71	51.2835
2029.21	59.7733
2031.72	44.1134
2034.22	55.0445
2036.72	52.6746
2039.22	52.7259
2041.72	50.3523
2044.22	50.4047
2046.72	52.8917
2049.22	55.3856
2051.71	56.6639
2054.21	54.2585
2056.71	55.5363
2059.2	50.7104
2061.69	55.6603
2064.18	48.3745
2066.68	55.7873
2069.17	59.5281
2071.66	54.6763
2074.14	55.9648
2076.63	57.2521
2079.12	54.8428
2081.6	52.4259
2084.09	49.9991
2086.57	57.4472
2089.06	58.7175
2091.54	55.0567
2094.02	60.0643
2096.5	53.9349
2098.98	51.5141
2101.46	60.2756
2103.93	56.619
2106.41	54.2019
2108.89	59.2682
2111.36	63.103
2113.84	55.6918
2116.31	52.0182
2118.78	63.3978
2121.25	59.7229
2123.72	58.5528
2126.19	56.1161
2128.66	52.4064
2131.13	55.0053
2133.59	62.671
2136.06	56.4076
2138.53	53.9336
2140.99	52.7221
2143.45	52.7794
2145.92	59.1955
2148.38	50.3277
2150.84	58.0134
2153.3	60.6031
2155.76	52.9778
2158.21	56.8353
2160.67	54.3027
2163.13	56.8751
2165.58	56.8858
2168.04	50.4993
2170.49	58.1828
2172.94	49.2512
2175.39	50.5496
2177.84	63.3661
2180.29	51.8481
2182.74	56.971
2185.19	51.8418
2187.64	55.6833
2190.08	56.971
2192.53	51.8635
2194.98	59.5636
2197.42	54.4661
2199.86	46.8051
2202.3	49.4051
2204.74	44.3083
2207.18	55.9173
2209.62	55.9739
2212.06	50.8823
2214.5	52.2279
2216.93	52.2923
2219.37	51.0657
2221.81	49.8365
2224.24	51.1961
2226.67	52.5589
2229.11	47.4282
2231.54	53.9937
2233.97	46.2461
2236.4	54.1307
2238.83	54.199
2241.25	51.6508
2243.68	50.4079
2246.1	50.4731
2248.53	50.5377
2250.96	57.1729
2253.38	54.6105
2255.8	53.3602
2258.22	42.8769
2260.64	45.5736
2263.06	49.5948
2265.48	49.6463
2267.9	48.3679
2270.32	45.7554
2272.73	55.0795
2275.15	52.4584
2277.56	52.4888
2279.98	48.5251
2282.39	47.2107
2284.8	53.8704
2287.21	53.8755
2289.62	47.2321
2292.03	51.2292
2294.44	51.2346
2296.85	51.2452
2299.26	51.2653
2301.66	43.2942
2304.07	49.9849
2306.47	46.022
2308.88	51.4034
2311.28	48.7835
2313.68	51.5117
2316.08	48.8947
2318.48	46.2757
2320.88	50.3628
2323.28	62.5265
2325.68	59.919
2328.07	58.6519
2330.47	42.5313
2332.86	45.3005
2335.26	44.0156
2337.65	52.2236
2340.04	50.9473
2342.43	55.1166
2344.82	45.6688
2347.21	49.8556
2349.6	48.5723
2351.99	48.6571
2354.38	45.9889
2356.76	47.427
2359.15	46.114
2361.53	46.152
2363.92	48.9612
2366.3	46.2536
2368.68	46.3039
2371.06	54.6538
2373.44	43.6285
2375.82	42.2853
2378.2	46.4913
2380.58	52.0802
2382.95	45.1671
2385.33	49.3587
2387.71	49.381
2390.08	49.3969
2392.45	46.6218
2394.83	50.8051
2397.2	45.2362
2399.57	45.2357
2401.94	42.453
2404.31	45.2302
2406.68	43.8349
2409.04	42.4535
2411.41	46.6653
2413.78	41.1395
2416.14	46.8147
2418.51	39.9486
2420.87	40.0239
2423.23	44.2792
2425.59	48.5191
2427.95	38.722
2430.31	47.2298
2432.67	45.8819
2435.03	43.1215
2437.39	46.0205
2439.75	47.5079
2442.1	43.3176
2444.46	43.3819
2446.81	44.8714
2449.16	42.0859
2451.52	46.436
2453.87	43.6411
2456.22	46.57
2458.57	42.3336
2460.92	36.6461
2463.27	41.0174
2465.61	42.516
2467.96	44.0168
2470.3	42.6292
2472.65	51.3634
2474.99	45.6344
2477.34	42.7945
2479.68	47.2082
2482.02	45.812
2484.36	42.9537
2486.7	48.8279
2489.04	45.9608
2491.38	47.4675
2493.72	43.1293
2496.05	51.9585
2498.39	44.6845
2500.72	46.1938
2503.06	46.2362
2505.39	47.7453
2507.72	50.7246
2510.06	44.8769
2512.39	49.3243
2514.72	44.9353
2517.04	44.9628
2519.37	43.5215
2521.7	46.5108
2524.03	43.5925
2526.35	49.5394
2528.68	42.178
2531	42.2099
2533.33	40.7652
2535.65	45.2548
2537.97	39.3584
2540.29	43.8586
2542.61	49.8567
2544.93	46.929
2547.25	44.0003
2549.57	45.5411
2551.88	48.5814
2554.2	39.6553
2556.51	45.6829
2558.83	47.222
2561.14	39.7701
2563.46	51.8327
2565.77	45.881
2568.08	47.444
2570.39	50.5237
2572.7	50.5902
2575.01	46.1181
2577.31	47.6865
2579.62	43.1909
2581.93	50.8165
2584.23	40.2256
2586.54	46.3277
2588.84	46.3523
2591.15	50.9218
2593.45	46.3885
2595.75	43.3759
2598.05	41.8911
2600.35	41.9209
2602.65	46.5245
2604.95	41.9737
2607.24	48.1063
2609.54	38.9653
2611.84	51.2063
2614.13	45.1104
2616.42	48.1872
2618.72	46.6806
2621.01	49.7617
2623.3	51.3175
2625.59	46.7476
2627.88	57.5104
2630.17	46.8151
2632.46	54.5479
2634.75	46.9204
2637.04	46.9873
2639.32	50.1505
2641.61	48.6814
2643.89	47.2122
2646.18	53.4944
2648.46	47.3643
2650.74	47.437
2653.02	52.1857
2655.3	52.2391
2657.58	47.6038
2659.86	47.6439
2662.14	52.3701
2664.42	43.0183
2666.69	50.8683
2668.97	55.6131
2671.24	58.7986
2673.52	52.5931
2675.79	51.1042
2678.06	52.7944
2680.33	48.196
2682.61	53.0564
2684.88	48.4149
2687.15	50.1165
2689.41	51.8218
2691.68	51.9197
2693.95	45.615
2696.22	50.4402
2698.48	50.4962
2700.74	45.7383
2703.01	52.2116
2705.27	50.6531
2707.53	50.7012
2709.8	49.1343
2712.06	44.3389
2714.32	52.4498
2716.57	47.6693
2718.83	49.3294
2721.09	52.6165
2723.35	51.0419
2725.6	55.9408
2727.86	52.7324
2730.11	49.5139
2732.37	51.1541
2734.62	41.4308
2736.87	47.9454
2739.12	52.8368
2741.37	56.1215
2743.62	43.1336
2745.87	54.5662
2748.12	56.2407
2750.37	49.7702
2752.61	51.4928
2754.86	51.557
2757.1	49.9705
2759.35	46.7325
2761.59	51.6845
2763.83	50.0884
2766.08	55.07
2768.32	46.8998
2770.56	48.585
2772.8	50.2848
2775.04	47.0428
2777.27	53.718
2779.51	53.792
2781.75	42.2803
2783.98	47.3322
2786.22	45.75
2788.45	52.4914
2790.68	40.8925
2792.92	44.2999
2795.15	49.3896
2797.38	54.4834
2799.61	47.841
2801.84	52.9398
2804.07	49.6333
2806.3	56.4209
2808.52	53.1042
2810.75	49.7787
2812.98	46.4451
2815.2	44.788
2817.42	49.8952
2819.65	48.241
2821.87	46.5855
2824.09	41.5389
2826.31	46.6651
2828.53	50.099
2830.75	43.3391
2832.97	50.174
2835.19	50.2079
2837.41	50.2437
2839.62	46.8709
2841.84	53.7277
2844.05	46.9411
2846.27	48.6925
2848.48	48.7362
2850.69	52.2083
2852.9	50.5545
2855.12	45.4704
2857.33	43.81
2859.54	50.7439
2861.74	55.9809
2863.95	54.3385
2866.16	52.6971
2868.37	52.78
2870.57	44.1958
2872.78	51.2064
2874.98	44.3321
2877.18	49.6264
2879.39	46.2203
2881.59	48.047
2883.79	51.6333
2885.99	44.7141
2888.19	50.0615
2890.39	50.1464
2892.59	51.9921
2894.78	48.5471
2896.98	50.4075
2899.18	55.8189
2901.37	54.1442
2903.57	56.0071
2905.76	48.9696
2907.95	54.393
2910.15	52.6854
2912.34	43.8052
2914.53	51.014
2916.72	47.485
2918.91	47.5432
2921.09	45.806
2923.28	47.6619
2925.47	47.7281
2927.65	53.2087
2929.84	49.674
2932.02	44.3219
2934.21	49.8124
2936.39	49.8701
2938.57	51.735
2940.75	44.5141
2942.94	48.1942
2945.12	55.516
2947.29	51.909
2949.47	50.1232
2951.65	57.4569
2953.83	50.1968
2956	53.8855
2958.18	50.2666
2960.36	48.4737
2962.53	57.6639
2964.7	50.381
2966.88	48.5915
2969.05	54.1412
2971.22	52.3542
2973.39	56.0809
2975.56	59.8148
2977.73	54.3443
2979.9	54.3952
2982.06	58.1442
2984.23	45.2771
2986.4	56.4356
2988.56	60.2157
2990.73	52.8766
2992.89	54.8111
2995.05	64.1892
2997.21	58.696
2999.38	56.9214
3001.54	70.0983
3003.7	62.7267
3005.86	72.2127
3008.01	49.7881
3010.17	59.2792
3012.33	66.9028
3014.49	59.4655
3016.64	59.5704
3018.8	61.5745
3020.95	63.5844
3023.1	65.5929
3025.26	75.2138
3027.41	58.1551
3029.56	63.9576
3031.71	67.8585
3033.86	71.7584
3036.01	66.0805
3038.16	75.717
3040.31	68.1325
3042.45	68.2002
3044.6	79.7994
3046.74	76.0202
3048.89	62.6019
3051.03	85.7888
3053.18	72.3547
3055.32	80.1468
3057.46	87.9535
3059.6	82.2265
3061.74	84.235
3063.88	72.68
3066.02	88.2634
3068.16	80.574
3070.3	88.4174
3072.43	92.3846
3074.57	80.7891
3076.7	100.35
3078.84	82.8908
3080.97	96.6326
3083.1	90.8599
3085.24	100.744
3087.37	89.1105
3089.5	100.997
3091.63	101.142
3093.76	107.198
3095.89	105.405
3098.02	101.631
3100.14	93.8886
3102.27	115.828
3104.4	112.07
3106.52	104.33
3108.65	112.492
3110.77	118.699
3112.89	116.938
3115.01	111.153
3117.14	119.401
3119.26	133.71
3121.38	129.963
3123.5	134.279
3125.62	126.481
3127.73	140.968
3129.85	135.203
3131.97	135.54
3134.08	129.74
3136.2	138.246
3138.31	144.73
3140.43	149.169
3142.54	147.429
3144.65	164.262
3146.76	174.938
3148.87	158.687
3150.98	173.511
3153.09	161.288
3155.2	167.787
3157.31	176.381
3159.42	170.369
3161.52	189.465
3163.63	193.942
3165.73	211.003
3167.84	198.665
3169.94	196.804
3172.05	205.543
3174.15	193.135
3176.25	216.568
3178.35	212.53
3180.45	214.813
3182.55	214.964
3184.65	221.463
3186.75	225.84
3188.84	213.191
3190.94	232.458
3193.04	209.281
3195.13	213.718
3197.23	224.608
3199.32	227.067
3201.41	223.226
3203.51	217.191
3205.6	209.015
3207.69	226.627
3209.78	227.077
3211.87	208.13
3213.96	221.537
3216.05	198.202
3218.13	205.131
3220.22	207.71
3222.31	203.769
3224.39	193.255
3226.48	189.275
3228.56	187.457
3230.64	190.01
3232.73	172.78
3234.81	179.691
3236.89	168.962
3238.97	162.643
3241.05	162.976
3243.13	167.752
3245.21	145.874
3247.29	148.372
3249.36	144.186
3251.44	148.865
3253.52	144.594
3255.59	149.244
3257.66	124.699
3259.74	129.41
3261.81	118.351
3263.88	118.565
3265.95	127.865
3268.03	114.661
3270.1	112.53
3272.17	112.839
3274.23	108.432
3276.3	108.525
3278.37	104.069
3280.44	97.3049
3282.5	111.156
3284.57	90.6211
3286.63	97.6017
3288.7	118.386
3290.76	100.091
3292.82	113.998
3294.88	88.7428
3296.94	88.8189
3299	98.1372
3301.06	100.564
3303.12	93.714
3305.18	98.4406
3307.24	86.9448
3309.3	89.3472
3311.35	96.3943
3313.41	82.5247
3315.46	87.2602
3317.52	80.3488
3319.57	80.4336
3321.63	87.5212
3323.68	89.9693
3325.73	85.3987
3327.78	92.5449
3329.83	83.2824
3331.88	92.8307
3333.93	74.1666
3335.98	90.8057
3338.02	86.2417
3340.07	79.2557
3342.12	91.1919
3344.16	86.5418
3346.21	86.6305
3348.25	77.1905
3350.3	67.7571
3352.34	101.129
3354.38	77.3986
3356.42	79.8725
3358.46	79.9624
3360.5	72.882
3362.54	72.9682
3364.58	68.2555
3366.62	80.3131
3368.66	75.5987
3370.69	75.6811
3372.73	78.157
3374.76	68.5966
3376.8	71.0567
3378.83	71.1071
3380.87	78.3929
3382.9	71.2036
3384.93	76.0795
3386.96	71.2926
3388.99	66.4976
3391.02	76.2091
3393.05	76.2495
3395.08	66.6107
3397.11	69.0846
3399.14	66.7111
3401.16	66.7542
3403.19	69.2142
3405.21	69.2456
3407.24	61.9879
3409.26	62.0173
3411.29	69.3368
3413.31	64.4969
3415.33	54.7827
3417.35	64.549
3419.37	64.5737
3421.39	69.4716
3423.41	52.4253
3425.43	62.202
3427.45	62.2329
3429.46	59.8257
3431.48	62.3065
3433.5	57.4586
3435.51	59.9494
3437.53	64.8973
3439.54	62.5044
3441.55	60.1073
3443.57	67.5344
3445.58	57.7783
3447.59	52.9299
3449.6	57.9254
3451.61	62.9336
3453.62	63.0221
3455.63	50.7419
3457.64	55.7866
3459.64	58.3668
3461.65	58.4693
3463.66	63.5574
3465.66	53.6825
3467.67	53.7774
3469.67	46.3514
3471.67	53.9564
3473.68	56.527
3475.68	49.066
3477.68	49.1406
3479.68	59.3106
3481.68	56.8713
3483.68	51.8914
3485.68	54.5004
3487.68	54.5764
3489.67	49.567
3491.67	52.1799
3493.67	59.8937
3495.66	52.3089
3497.66	62.5857
3499.65	47.3083
3501.64	49.9139
3503.64	57.64
3505.63	57.689
3507.62	55.1604
3509.61	60.3184
3511.6	60.3382
3513.59	55.2212
3515.58	55.2384
3517.57	47.5443
3519.56	44.9875
3521.54	50.1426
3523.53	50.1576
3525.52	55.3233
3527.5	60.4945
3529.49	52.7808
3531.47	47.6583
3533.45	50.2763
3535.43	50.3247
3537.42	55.549
3539.4	55.6188
3541.38	53.0863
3543.36	55.7277
3545.34	53.1808
3547.32	45.4343
3549.29	53.26
3551.27	58.4865
3553.25	55.8856
3555.22	53.3069
3557.2	55.9355
3559.17	53.3649
3561.15	48.1901
3563.12	58.653
3565.09	45.6565
3567.07	50.9234
3569.04	56.2163
3571.01	53.6533
3572.98	58.9487
3574.95	56.3927
3576.92	64.3406
3578.88	59.1679
3580.85	56.619
3582.82	61.9783
3584.79	62.0713
3586.75	62.1635
3588.72	54.3071
3590.68	57.0391
3592.64	62.4355
3594.61	54.5438
3596.57	54.6234
3598.53	52.0306
3600.49	46.7524
3602.45	57.5121
3604.41	49.5487
3606.37	49.6055
3608.33	46.9751
3610.29	52.3962
3612.25	41.6903
3614.2	44.4295
3616.16	39.0794
3618.12	47.2115
3620.07	33.7499
3622.02	49.978
3623.98	44.5909
3625.93	44.6051
3627.88	55.4367
3629.84	44.6316
3631.79	39.2265
3633.74	50.0585
3635.69	44.6617
3637.64	44.6832
3639.58	50.1324
3641.53	44.7523
3643.48	39.3661
3645.43	42.1229
3647.37	44.8963
3649.32	39.4567
3651.26	39.479
3653.21	44.9505
3655.15	47.6959
3657.09	50.4448
3659.03	50.4667
3660.98	45.0296
3662.92	50.5044
3664.86	42.3328
3666.8	34.1572
3668.74	47.846
3670.67	50.6038
3672.61	36.9452
3674.55	47.9266
3676.49	45.2247
3678.42	34.2932
3680.36	48.0599
3682.29	45.3659
3684.23	48.1765
3686.16	37.2169
3688.09	42.79
3690.02	37.3213
3691.96	45.6808
3693.89	45.7398
3695.82	43.0184
3697.75	40.2993
3699.68	48.7016
3701.61	48.7691
3703.53	40.4559
3705.46	48.8951
3707.39	40.5702
3709.31	43.4284
3711.24	46.2932
3713.16	35.1183
3715.09	46.4116
3717.01	43.6476
3718.93	46.5127
3720.86	43.738
3722.78	40.9557
3724.7	46.6466
3726.62	43.8565
3728.54	43.8948
3730.46	38.2646
3732.38	46.8139
3734.29	44.0186
3736.21	44.0608
3738.13	44.101
3740.04	44.1394
3741.96	41.3249
3743.87	38.5061
3745.79	47.0988
3747.7	41.4189
3749.62	47.1616
3751.53	50.0472
3753.44	47.21
3755.35	38.6419
3757.26	41.5181
3759.17	38.6656
3761.08	44.4042
3762.99	35.8185
3764.9	41.5578
3766.81	41.5676
3768.71	47.3173
3770.62	44.4677
3772.52	50.2281
3774.43	41.6356
3776.33	44.5262
3778.24	47.4236
3780.14	38.8248
3782.04	53.2416
3783.95	41.7631
3785.85	47.561
3787.75	44.7111
3789.65	44.7406
3791.55	36.1059
3793.45	47.6986
3795.34	36.1689
3797.24	53.5835
3799.14	44.9393
3801.04	42.084
3802.93	47.9398
3804.83	39.2675
3806.72	36.4012
3808.62	45.1899
3810.51	39.402
3812.4	42.3641
3814.29	42.4069
3816.19	45.3763
3818.08	36.6303
3819.97	42.5317
3821.86	45.5063
3823.75	51.4219
3825.64	45.5787
3827.52	45.6157
3829.41	45.6552
3831.3	48.6473
3833.18	39.8405
3835.07	42.8305
3836.95	51.7359
3838.84	42.9011
3840.72	42.9424
3842.61	45.9516
3844.49	51.9169
3846.37	46.0062
3848.25	43.0495
3850.13	46.0354
3852.01	43.0803
3853.89	46.0592
3855.77	43.1
3857.65	37.1569
3859.53	43.1004
3861.41	46.0797
3863.28	34.1964
3865.16	40.1744
3867.03	40.2182
3868.91	40.2728
3870.78	49.2697
3872.66	43.3032
3874.53	49.2911
3876.4	34.3653
3878.27	40.3541
3880.14	43.3572
3882.01	43.3722
3883.89	40.3971
3885.75	43.4089
3887.62	46.4254
3889.49	49.4463
3891.36	46.4767
3893.23	40.5096
3895.09	40.5517
3896.96	46.5958
3898.82	43.6227
3900.69	49.6794
3902.55	49.7177
3904.42	43.7205
3906.28	40.7366
3908.14	43.7812
3910	40.7927
3911.87	46.8776
3913.73	40.8625
3915.59	40.9007
3917.45	50.0405
3919.3	37.9516
3921.16	37.9989
3923.02	41.0891
3924.88	50.278
3926.73	38.1313
3928.59	41.2249
3930.45	35.1533
3932.3	44.3629
3934.15	41.3334
3936.01	41.3641
3937.86	41.3921
3939.71	44.4967
3941.56	47.6098
3943.42	38.4375
3945.27	44.6293
3947.12	32.349
3948.97	44.7122
3950.81	44.7463
3952.66	41.6903
3954.51	44.8077
3956.36	44.8372
3958.2	41.7671
3960.05	54.1638
3961.9	38.7037
3963.74	41.8161
3965.58	44.9264
3967.43	44.9352
3969.27	44.9389
3971.11	41.8457
3972.96	41.853
3974.8	38.7599
3976.64	44.9683
3978.48	41.8713
3980.32	38.7695
3982.16	44.9693
3984	38.7651
3985.83	48.0685
3987.67	48.0654
3989.51	41.8646
3991.34	41.8702
3993.18	48.0847
3995.01	44.9961
3996.85	45.016
3998.68	41.9318
