#Acq. time (s)=	30
#Accumulations=	2
#Range (cm-¹)=	1200...2365
#Windows=	3
#Auto scanning=	Off
#Autofocus=	Off
#Macrospot=	Off
#AutoExposure=	Off
#Spike filter=	Multiple accum.
#Delay time (s)=	2
#Binning=	1
#Readout mode=	Signal
#DeNoise=	Off
#ICS correction=	On
#Dark correction=	Off
#Inst. Process=	Off
#Detector Gain=	Best Dynamic
#Detector ADC=	50 kHz HS
#Detector temperature (°C)=	-60.09
#Instrument=	LabRAM HR Evol
#Detector=	SIN-EM FIVIS
#Objective=	x100_VIS_LWD
#Grating=	1800 (450-850nm)
#ND Filter=	100%
#Laser=	532nm_Edge
#Hole=	100.021
#Temperature=	0
#Range=	Visible
#StageXY=	75x50mm Scan+
#StageZ=	Z motor
#X (µm)=	0
#Y (µm)=	0
#Z (µm)=	-14.5
#Full time(mm:ss)=	3:20
#Project=	21_11_26
#Sample=	BU19(2)w
#Site=	
#Title=	BU19(2)w-A-FF1-FI04-V_1800 (450-850nm)_532nm_Edge_100%_x100_VIS_LWD_H100um_30sX2
#Remark=	
#Date=	26.11.2021 13:26
#Acquired=	26.11.2021 13:26:35
1202.72	409.197
1203	404.403
1203.28	414.233
1203.56	390.297
1203.84	384.619
1204.11	391.96
1204.39	396.106
1204.67	415.473
1204.95	398.319
1205.23	407.915
1205.5	405.61
1205.78	403.294
1206.06	421.355
1206.34	376.085
1206.61	403.793
1206.89	406.818
1207.17	380.908
1207.45	393.613
1207.73	403.149
1208	410.545
1208.28	379.436
1208.56	401.831
1208.84	393.151
1209.11	383.416
1209.39	407.909
1209.67	389.683
1209.95	384.321
1210.23	390.699
1210.5	379.931
1210.78	402.207
1211.06	404.181
1211.34	395.509
1211.61	391.09
1211.89	403.774
1212.17	379.083
1212.45	392.795
1212.72	393.753
1213	387.245
1213.28	371.15
1213.56	391.308
1213.83	388.063
1214.11	400.755
1214.39	396.514
1214.67	375.234
1214.94	376.303
1215.22	398.656
1215.5	405.027
1215.78	393.295
1216.05	390.069
1216.33	399.545
1216.61	377.062
1216.89	398.165
1217.16	401.194
1217.44	398.945
1217.72	394.579
1218	385.968
1218.27	386.939
1218.55	403.836
1218.83	400.566
1219.1	383.539
1219.38	380.328
1219.66	391.962
1219.94	399.337
1220.21	391.841
1220.49	381.221
1220.77	395.009
1221.04	401.35
1221.32	389.643
1221.6	404.416
1221.88	392.681
1222.15	379.848
1222.43	406.184
1222.71	403.879
1222.98	390.975
1223.26	386.557
1223.54	394.839
1223.81	407.357
1224.09	383.968
1224.37	389.113
1224.65	392.184
1224.92	393.163
1225.2	387.831
1225.48	404.708
1225.76	375.197
1226.03	397.407
1226.31	396.401
1226.59	374.204
1226.86	380.51
1227.14	381.493
1227.42	389.87
1227.69	397.051
1227.97	378.753
1228.25	396.428
1228.52	390.937
1228.8	389.513
1229.08	386.062
1229.35	399.69
1229.63	388.036
1229.91	387.805
1230.18	384.274
1230.46	400.767
1230.74	392.198
1231.01	396.453
1231.29	396.218
1231.57	388.084
1231.84	385.001
1232.12	394.45
1232.4	383.927
1232.67	402.792
1232.95	392.274
1233.23	390.15
1233.5	399.565
1233.78	389.049
1234.06	396.422
1234.33	394.355
1234.61	396.495
1234.89	386.043
1235.16	399.769
1235.44	371.42
1235.71	399.836
1235.99	401.986
1236.27	378.886
1236.54	397.804
1236.82	385.138
1237.1	390.331
1237.37	398.652
1237.65	403.769
1237.93	363.717
1238.2	390.88
1238.48	393.886
1238.76	401.086
1239.03	390.486
1239.31	415.583
1239.58	388.266
1239.86	396.61
1240.14	396.583
1240.41	399.713
1240.69	370.361
1240.97	394.479
1241.24	417.56
1241.52	393.463
1241.79	398.667
1242.07	406.978
1242.35	381.781
1242.62	391.217
1242.9	395.432
1243.18	400.728
1243.45	392.394
1243.73	396.58
1244	399.727
1244.28	396.607
1244.56	401.843
1244.83	393.429
1245.11	400.726
1245.39	405.878
1245.66	403.679
1245.94	388.876
1246.21	392.933
1246.49	407.531
1246.76	406.451
1247.04	403.312
1247.32	399.115
1247.59	400.127
1247.87	414.77
1248.14	404.259
1248.42	406.2
1248.7	406.12
1248.97	397.732
1249.25	394.617
1249.52	406.151
1249.8	383.113
1250.08	374.732
1250.35	398.79
1250.63	395.568
1250.9	401.737
1251.18	397.465
1251.45	397.386
1251.73	411.942
1252.01	390.977
1252.28	395.082
1252.56	410.672
1252.83	400.154
1253.11	412.593
1253.39	404.164
1253.66	385.34
1253.94	400.993
1254.21	409.406
1254.49	376.078
1254.76	397.04
1255.04	398.117
1255.31	399.16
1255.59	401.279
1255.87	396.056
1256.14	400.212
1256.42	411.716
1256.69	404.437
1256.97	401.361
1257.24	407.647
1257.52	403.446
1257.79	389.811
1258.07	425.28
1258.35	422.114
1258.62	427.297
1258.9	409.501
1259.17	425.059
1259.45	412.523
1259.72	419.876
1260	403.233
1260.27	408.62
1260.55	436.705
1260.82	439.73
1261.1	430.179
1261.37	448.851
1261.65	434.174
1261.92	429.017
1262.2	459.678
1262.48	468.643
1262.75	464.752
1263.02	490.102
1263.3	479.079
1263.58	510.141
1263.85	521.077
1264.13	514.162
1264.4	507.326
1264.68	491.888
1264.95	453.944
1265.23	472.644
1265.5	420.384
1265.78	441.248
1266.05	422.359
1266.33	425.49
1266.6	438.059
1266.88	411.99
1267.15	416.247
1267.43	429.934
1267.7	411.223
1267.98	420.757
1268.25	409.383
1268.53	398.048
1268.8	408.664
1269.08	401.411
1269.35	415.095
1269.63	423.528
1269.9	409.881
1270.18	397.219
1270.45	406.522
1270.73	422.139
1271	407.382
1271.28	412.543
1271.55	409.375
1271.83	422.921
1272.1	419.813
1272.38	409.443
1272.65	420.027
1272.93	397.145
1273.2	411.914
1273.47	426.692
1273.75	395.36
1274.03	414.335
1274.3	420.736
1274.57	416.609
1274.85	432.362
1275.12	422.903
1275.4	420.806
1275.67	433.439
1275.95	409.378
1276.22	414.696
1276.5	425.291
1276.77	424.318
1277.05	418.099
1277.32	421.307
1277.6	427.712
1277.87	432.018
1278.14	426.866
1278.42	418.541
1278.69	431.234
1278.97	437.667
1279.24	440.892
1279.52	447.276
1279.79	441.99
1280.07	467.199
1280.34	466.09
1280.61	481.847
1280.89	494.505
1281.16	532.42
1281.44	579.899
1281.71	635.861
1281.99	715.946
1282.26	849.61
1282.53	986.541
1282.81	1178.27
1283.08	1485.44
1283.36	1800.35
1283.63	2163.55
1283.91	2370.82
1284.18	2377.08
1284.45	2008.26
1284.73	1523.57
1285	1118.16
1285.28	832.579
1285.55	695.259
1285.83	593.947
1286.1	558.161
1286.37	521.423
1286.65	500.356
1286.92	476.046
1287.2	454.981
1287.47	448.636
1287.75	458.043
1288.02	446.385
1288.29	438.97
1288.57	416.865
1288.84	440.028
1289.12	435.849
1289.39	416.967
1289.66	434.939
1289.94	438.177
1290.21	441.428
1290.49	409.901
1290.76	415.166
1291.03	425.653
1291.31	426.682
1291.58	417.196
1291.86	427.723
1292.13	421.387
1292.4	414.018
1292.68	402.458
1292.95	435.084
1293.22	409.774
1293.5	406.635
1293.77	425.73
1294.05	411.15
1294.32	414.488
1294.59	403.99
1294.87	407.155
1295.14	410.289
1295.42	417.745
1295.69	405.259
1295.96	424.482
1296.24	390.979
1296.51	419.676
1296.79	415.492
1297.06	380.621
1297.33	408.059
1297.61	415.385
1297.88	402.623
1298.15	417.319
1298.43	405.592
1298.7	402.471
1298.97	400.327
1299.25	419.266
1299.52	394.927
1299.79	417.03
1300.07	414.914
1300.34	417.098
1300.62	406.582
1300.89	398.146
1301.16	393.904
1301.44	399.168
1301.71	413.969
1301.98	411.927
1302.25	407.766
1302.53	400.406
1302.8	387.742
1303.08	397.243
1303.35	399.33
1303.62	406.679
1303.9	417.165
1304.17	398.143
1304.44	402.375
1304.72	409.768
1304.99	406.594
1305.26	403.377
1305.54	413.862
1305.81	407.436
1306.08	388.351
1306.35	394.586
1306.63	396.617
1306.9	409.237
1307.18	399.744
1307.45	415.599
1307.72	408.228
1308	412.441
1308.27	404
1308.54	389.254
1308.81	412.435
1309.09	406.128
1309.36	401.972
1309.63	410.469
1309.91	407.363
1310.18	402.124
1310.45	405.279
1310.73	384.147
1311	398.921
1311.27	409.491
1311.55	394.737
1311.82	411.642
1312.09	404.287
1312.37	393.799
1312.64	392.8
1312.91	395.995
1313.18	421.319
1313.46	423.363
1313.73	412.791
1314	393.753
1314.28	411.668
1314.55	405.334
1314.82	409.58
1315.09	395.896
1315.37	408.615
1315.64	411.831
1315.91	407.661
1316.18	406.658
1316.46	410.865
1316.73	407.67
1317	404.484
1317.28	404.473
1317.55	410.808
1317.82	415.091
1318.09	404.568
1318.37	402.481
1318.64	402.497
1318.91	390.885
1319.18	404.62
1319.46	403.552
1319.73	405.648
1320	394.013
1320.28	406.716
1320.55	389.818
1320.82	420.431
1321.09	400.302
1321.37	407.604
1321.64	377.929
1321.91	388.363
1322.18	397.789
1322.46	397.677
1322.73	412.389
1323	412.332
1323.27	408.052
1323.55	397.431
1323.82	412.238
1324.09	433.344
1324.36	393.281
1324.64	397.487
1324.91	395.384
1325.18	406.971
1325.45	397.506
1325.73	399.512
1326	400.386
1326.27	401.209
1326.54	403.029
1326.81	411.328
1327.09	411.296
1327.36	396.699
1327.63	410.649
1327.9	390.778
1328.18	411.991
1328.45	401.608
1328.72	391.217
1328.99	412.44
1329.27	413.533
1329.54	413.482
1329.81	405.085
1330.08	407.177
1330.35	390.264
1330.63	388.104
1330.9	397.523
1331.17	398.483
1331.44	401.526
1331.71	399.263
1331.99	411.727
1332.26	406.32
1332.53	420.942
1332.8	434.493
1333.07	416.462
1333.35	397.387
1333.62	399.359
1333.89	403.441
1334.16	406.477
1334.43	400.062
1334.71	429.355
1334.98	404.057
1335.25	411.319
1335.52	402.844
1335.79	412.21
1336.07	416.333
1336.34	396.336
1336.61	417.249
1336.88	399.368
1337.15	417.143
1337.43	408.717
1337.7	404.489
1337.97	409.685
1338.24	413.774
1338.51	403.203
1338.78	408.38
1339.06	411.454
1339.33	401.984
1339.6	414.537
1339.87	401.986
1340.14	405.149
1340.42	415.629
1340.69	400.983
1340.96	417.752
1341.23	406.223
1341.5	400.968
1341.77	394.656
1342.04	400.894
1342.32	417.579
1342.59	403.882
1342.86	407.96
1343.13	390.069
1343.4	403.612
1343.67	423.453
1343.95	411.933
1344.22	410.883
1344.49	408.799
1344.76	409.844
1345.03	410.852
1345.3	405.556
1345.58	406.509
1345.85	396.975
1346.12	412.546
1346.39	415.539
1346.66	412.201
1346.93	398.502
1347.2	409.858
1347.47	398.258
1347.75	408.573
1348.02	400.158
1348.29	403.233
1348.56	428.211
1348.83	415.673
1349.1	399.977
1349.37	414.488
1349.65	385.241
1349.92	393.501
1350.19	413.213
1350.46	402.729
1350.73	412.022
1351	407.758
1351.27	407.655
1351.54	419.029
1351.81	403.323
1352.09	413.69
1352.36	401.204
1352.63	422.049
1352.9	399.255
1353.17	410.821
1353.44	412.967
1353.71	417.481
1353.98	424.123
1354.25	402.894
1354.53	417.891
1354.8	408.114
1355.07	412.314
1355.34	418.582
1355.61	424.668
1355.88	402.78
1356.15	413.305
1356.42	406.063
1356.69	425.713
1356.96	420.477
1357.24	413.169
1357.51	411.051
1357.78	414.112
1358.05	418.2
1358.32	406.709
1358.59	413.899
1358.86	430.432
1359.13	407.519
1359.4	429.223
1359.67	414.641
1359.94	411.476
1360.22	410.333
1360.49	415.393
1360.76	401.807
1361.03	428.665
1361.3	416.2
1361.57	428.622
1361.84	420.319
1362.11	419.258
1362.38	416.101
1362.65	407.772
1362.92	423.263
1363.19	418.07
1363.46	418.096
1363.73	419.202
1364	431.683
1364.28	418.269
1364.55	434.838
1364.82	424.45
1365.09	420.261
1365.36	421.221
1365.63	427.339
1365.9	432.412
1366.17	414.722
1366.44	419.801
1366.71	429.011
1366.98	417.512
1367.25	422.536
1367.52	414.201
1367.79	415.194
1368.06	425.583
1368.33	428.716
1368.6	452.516
1368.87	459.78
1369.15	508.397
1369.41	510.506
1369.68	482.623
1369.95	454.65
1370.23	442.192
1370.5	426.636
1370.77	415.158
1371.04	434.735
1371.31	428.456
1371.58	436.599
1371.85	440.583
1372.12	424.928
1372.39	425.797
1372.66	427.711
1372.93	421.411
1373.2	433.709
1373.47	438.804
1373.74	442.871
1374.01	436.642
1374.28	425.27
1374.55	430.391
1374.82	444.785
1375.09	430.328
1375.36	432.333
1375.63	444.711
1375.9	441.675
1376.17	445.784
1376.44	429.325
1376.71	436.424
1376.98	443.525
1377.25	434.114
1377.52	451.426
1377.79	445.307
1378.06	449.538
1378.33	450.744
1378.6	442.724
1378.87	453.275
1379.14	457.474
1379.41	443.023
1379.68	445.026
1379.95	460.422
1380.22	475.784
1380.49	453.948
1380.76	473.138
1381.03	465.719
1381.3	473.772
1381.57	486.192
1381.84	449.047
1382.11	480.701
1382.38	470.189
1382.65	481.287
1382.92	491.377
1383.19	505.555
1383.46	508.49
1383.73	522.699
1384	552.341
1384.27	533.809
1384.54	526.649
1384.81	610.772
1385.08	641.648
1385.34	727.992
1385.61	817.556
1385.88	939.924
1386.15	1199.89
1386.42	1639.54
1386.69	2338.27
1386.96	3472.47
1387.23	4656.72
1387.5	4935.27
1387.77	3854.31
1388.04	2469.3
1388.31	1537.82
1388.58	1034.14
1388.85	809.255
1389.12	687.11
1389.39	620.804
1389.66	552.058
1389.93	543.908
1390.2	509.848
1390.46	485.859
1390.73	504.139
1391	490.791
1391.27	497.766
1391.54	462.877
1391.81	479.231
1392.08	457.606
1392.35	458.512
1392.62	446.121
1392.89	459.355
1393.16	459.292
1393.43	443.885
1393.7	446.91
1393.97	431.517
1394.23	424.318
1394.5	439.638
1394.77	436.54
1395.04	447.778
1395.31	428.383
1395.58	438.688
1395.85	424.41
1396.12	447.974
1396.39	457.172
1396.66	434.616
1396.93	431.494
1397.2	433.485
1397.46	421.127
1397.73	422.071
1398	424.077
1398.27	431.232
1398.54	439.444
1398.81	426.196
1399.08	421.11
1399.35	432.387
1399.62	443.716
1399.89	433.53
1400.16	421.289
1400.42	409.003
1400.69	431.58
1400.96	429.641
1401.23	435.836
1401.5	435.819
1401.77	437.92
1402.04	436.892
1402.31	415.526
1402.58	426.011
1402.84	413.962
1403.11	429.537
1403.38	446.097
1403.65	416.393
1403.92	444.117
1404.19	429.656
1404.46	448.906
1404.73	432.556
1404.99	432.518
1405.26	429.39
1405.53	439.571
1405.8	463.075
1406.07	445.564
1406.34	459.845
1406.61	476.197
1406.87	477.184
1407.14	472.082
1407.41	498.768
1407.68	524.439
1407.95	558.304
1408.22	574.742
1408.49	610.662
1408.76	666.071
1409.02	641.509
1409.29	617.98
1409.56	557.518
1409.83	533.97
1410.1	498.097
1410.37	468.35
1410.63	456.977
1410.9	456.852
1411.17	440.311
1411.44	444.309
1411.71	442.183
1411.98	440.077
1412.25	435.964
1412.51	419.632
1412.78	425.902
1413.05	423.092
1413.32	438.998
1413.59	419.745
1413.86	420.451
1414.12	413.748
1414.39	413.84
1414.66	426.431
1414.93	431.763
1415.2	425.576
1415.47	404.032
1415.73	436.888
1416	418.421
1416.27	410.242
1416.54	398.984
1416.81	421.618
1417.07	416.527
1417.34	414.523
1417.61	420.737
1417.88	440.305
1418.15	426.973
1418.42	426.983
1418.68	438.305
1418.95	409.552
1419.22	417.78
1419.49	413.678
1419.76	417.746
1420.02	400.203
1420.29	411.423
1420.56	426.754
1420.83	418.453
1421.1	422.471
1421.36	421.368
1421.63	412.094
1421.9	410.066
1422.17	407.095
1422.44	412.368
1422.7	435.11
1422.97	428.149
1423.24	423.371
1423.51	426.834
1423.77	426.859
1424.04	416.744
1424.31	429.163
1424.58	424.655
1424.85	413.389
1425.11	438.104
1425.38	413.795
1425.65	409.746
1425.92	421.996
1426.19	409.832
1426.45	419.036
1426.72	419.988
1426.99	436.288
1427.26	406.441
1427.52	426.821
1427.79	398.989
1428.06	430.606
1428.33	420.299
1428.59	411.058
1428.86	427.448
1429.13	393.683
1429.4	414.198
1429.67	431.658
1429.93	413.288
1430.2	415.426
1430.47	408.364
1430.74	406.401
1431	397.297
1431.27	410.808
1431.54	407.871
1431.81	423.338
1432.07	412.051
1432.34	415.055
1432.61	415.985
1432.87	402.588
1433.14	417.85
1433.41	410.519
1433.68	409.323
1433.95	410.187
1434.21	394.727
1434.48	410.048
1434.75	423.557
1435.01	405.203
1435.28	386.775
1435.55	410.348
1435.82	419.562
1436.08	408.272
1436.35	427.716
1436.62	411.295
1436.89	395.891
1437.15	421.463
1437.42	419.38
1437.69	407.078
1437.95	407.034
1438.22	413.159
1438.49	407.036
1438.76	411.197
1439.02	422.505
1439.29	410.225
1439.56	416.396
1439.82	401.091
1440.09	437.056
1440.36	402.321
1440.63	407.499
1440.89	399.322
1441.16	414.711
1441.43	403.455
1441.69	402.4
1441.96	416.689
1442.23	394.099
1442.49	413.664
1442.76	421.879
1443.03	391.195
1443.3	418.836
1443.56	423.892
1443.83	407.43
1444.1	429.943
1444.36	409.426
1444.63	403.302
1444.9	416.749
1445.16	414.8
1445.43	399.543
1445.7	411.822
1445.97	403.578
1446.23	414.828
1446.5	408.64
1446.77	407.585
1447.03	396.273
1447.3	415.728
1447.57	414.661
1447.83	409.484
1448.1	416.62
1448.37	413.543
1448.63	420.793
1448.9	426.017
1449.17	406.556
1449.43	404.5
1449.7	386.006
1449.97	402.365
1450.23	400.249
1450.5	421.713
1450.77	415.528
1451.03	396.021
1451.3	401.115
1451.57	414.405
1451.83	394.895
1452.1	402.029
1452.37	416.343
1452.63	408.13
1452.9	409.161
1453.17	414.305
1453.43	412.303
1453.7	420.542
1453.97	410.298
1454.23	400.023
1454.5	405.125
1454.77	421.521
1455.03	413.325
1455.3	404.092
1455.56	402.016
1455.83	408.174
1456.1	409.27
1456.36	412.384
1456.63	406.234
1456.9	409.275
1457.16	424.578
1457.43	414.265
1457.7	408.088
1457.96	409.087
1458.23	422.388
1458.49	400.879
1458.76	406.011
1459.03	408.084
1459.29	409.128
1459.56	417.34
1459.82	413.251
1460.09	423.482
1460.36	413.21
1460.62	406.01
1460.89	410.074
1461.16	421.298
1461.42	422.268
1461.69	393.543
1461.95	402.701
1462.22	392.398
1462.49	405.632
1462.75	404.528
1463.02	405.464
1463.28	408.44
1463.55	414.479
1463.82	414.393
1464.08	404.155
1464.35	405.303
1464.61	403.444
1464.88	411.776
1465.15	407.872
1465.41	399.376
1465.68	399.676
1465.94	403.434
1466.21	410.538
1466.48	403.519
1466.74	397.357
1467.01	416.569
1467.27	400.191
1467.54	414.513
1467.8	407.346
1468.07	402.216
1468.34	417.5
1468.6	402.192
1468.87	425.644
1469.13	403.18
1469.4	406.2
1469.67	419.407
1469.93	419.328
1470.2	406.997
1470.46	407.94
1470.73	412.979
1470.99	418.026
1471.26	403.732
1471.53	403.677
1471.79	420.912
1472.06	409.653
1472.32	408.605
1472.59	420.809
1472.85	407.56
1473.12	391.257
1473.39	397.336
1473.65	412.548
1473.92	407.398
1474.18	405.313
1474.45	400.196
1474.71	410.371
1474.98	411.425
1475.24	408.399
1475.51	407.386
1475.78	405.338
1476.04	415.478
1476.31	412.37
1476.57	404.19
1476.84	422.468
1477.1	407.142
1477.37	407.075
1477.63	415.177
1477.9	407.027
1478.16	405.999
1478.43	421.205
1478.69	415.023
1478.96	405.814
1479.22	408.803
1479.49	405.685
1479.76	391.385
1480.02	415.679
1480.29	401.374
1480.55	405.292
1480.82	414.31
1481.08	405.096
1481.35	410.132
1481.61	423.25
1481.88	396.91
1482.14	414.223
1482.41	407.193
1482.67	423.518
1482.94	397.186
1483.2	423.582
1483.47	410.433
1483.73	403.351
1484	396.244
1484.26	415.523
1484.53	412.311
1484.79	427.3
1485.06	417.726
1485.32	400.972
1485.59	404.825
1485.85	400.471
1486.12	401.392
1486.38	411.638
1486.65	415.848
1486.91	408.321
1487.18	395.356
1487.44	402.509
1487.71	410.495
1487.97	421.543
1488.24	415.407
1488.5	416.352
1488.77	405.125
1489.03	408.063
1489.3	424.178
1489.56	401.871
1489.83	410.942
1490.09	401.808
1490.36	403.828
1490.62	409.892
1490.89	405.796
1491.15	399.647
1491.42	417.768
1491.68	409.64
1491.95	400.522
1492.21	412.652
1492.48	394.471
1492.74	417.711
1493	410.611
1493.27	420.706
1493.53	399.476
1493.8	413.599
1494.06	408.529
1494.33	414.598
1494.59	398.451
1494.86	421.736
1495.12	410.599
1495.39	419.63
1495.65	423.549
1495.92	406.224
1496.18	416.206
1496.45	418.149
1496.71	411.025
1496.97	416.021
1497.24	425.047
1497.5	416.969
1497.77	405.862
1498.03	405.838
1498.3	407.847
1498.56	420.969
1498.82	416.941
1499.09	410.899
1499.35	408.897
1499.62	410.942
1499.88	414.006
1500.15	417.069
1500.41	404.968
1500.68	413.041
1500.94	425.141
1501.2	416.042
1501.47	413.978
1501.73	419.953
1502	407.816
1502.26	403.767
1502.52	410.814
1502.79	409.766
1503.05	408.67
1503.32	420.692
1503.58	414.591
1503.85	421.575
1504.11	419.556
1504.37	419.595
1504.64	428.689
1504.9	411.548
1505.17	398.419
1505.43	421.569
1505.7	424.528
1505.96	406.267
1506.22	422.244
1506.49	416.169
1506.75	406.082
1507.02	423.225
1507.28	418.247
1507.54	418.263
1507.81	423.319
1508.07	429.361
1508.34	415.225
1508.6	387.997
1508.86	410.171
1509.13	418.246
1509.39	416.237
1509.66	404.138
1509.92	414.212
1510.18	404.18
1510.45	428.393
1510.71	422.265
1510.98	420.168
1511.24	407.984
1511.5	417.94
1511.77	404.687
1512.03	429.625
1512.29	421.358
1512.56	412.106
1512.82	404.9
1513.08	404.795
1513.35	390.645
1513.61	419.682
1513.88	409.61
1514.14	418.741
1514.4	414.883
1514.67	415.927
1514.93	425.924
1515.2	419.802
1515.46	420.693
1515.72	408.542
1515.99	413.435
1516.25	418.327
1516.51	419.242
1516.78	421.206
1517.04	416.158
1517.3	409.111
1517.57	417.121
1517.83	415.122
1518.09	403.119
1518.36	406.199
1518.62	419.259
1518.88	410.261
1519.15	416.303
1519.41	421.355
1519.67	427.406
1519.94	406.358
1520.2	402.335
1520.47	421.358
1520.73	415.309
1520.99	421.352
1521.26	422.396
1521.52	405.376
1521.78	408.4
1522.05	430.457
1522.31	415.369
1522.57	421.341
1522.84	418.281
1523.1	422.249
1523.36	401.12
1523.62	412.028
1523.89	415.873
1524.15	417.766
1524.41	400.65
1524.68	398.577
1524.94	414.534
1525.2	420.589
1525.47	416.603
1525.73	412.611
1525.99	417.679
1526.26	415.752
1526.52	418.868
1526.78	411.937
1527.05	417.983
1527.31	407.949
1527.57	400.875
1527.84	420.892
1528.1	425.867
1528.36	428.838
1528.63	399.731
1528.89	413.713
1529.15	420.687
1529.41	425.674
1529.68	385.6
1529.94	421.63
1530.2	419.56
1530.47	417.538
1530.73	423.584
1530.99	426.675
1531.25	411.732
1531.52	413.799
1531.78	409.799
1532.04	414.781
1532.31	419.802
1532.57	416.74
1532.83	426.809
1533.09	413.892
1533.36	409.025
1533.62	423.193
1533.88	414.224
1534.15	418.269
1534.41	415.255
1534.67	405.201
1534.94	417.205
1535.2	402.117
1535.46	412.109
1535.72	410.025
1535.99	405.812
1536.25	419.715
1536.51	403.594
1536.77	431.492
1537.04	430.33
1537.3	412.178
1537.56	418.123
1537.82	412.025
1538.09	407.028
1538.35	426.945
1538.61	424.812
1538.87	420.77
1539.14	426.726
1539.4	398.846
1539.66	405.075
1539.92	419.384
1540.19	422.598
1540.45	399.729
1540.71	412.934
1540.97	416.054
1541.24	415.097
1541.5	413.922
1541.76	415.907
1542.02	423.81
1542.29	432.721
1542.55	421.595
1542.81	421.489
1543.07	411.38
1543.34	422.297
1543.6	412.186
1543.86	417.054
1544.12	395.912
1544.39	412.93
1544.65	424.956
1544.91	418.041
1545.17	414.164
1545.43	420.259
1545.7	422.427
1545.96	429.528
1546.22	397.531
1546.48	420.614
1546.74	407.567
1547.01	415.599
1547.27	423.66
1547.53	417.699
1547.79	421.75
1548.06	412.641
1548.32	422.441
1548.58	413.427
1548.84	431.473
1549.1	414.57
1549.37	407.184
1549.63	435.757
1549.89	400.677
1550.15	415.9
1550.42	418.333
1550.68	409.938
1550.94	417.412
1551.2	414.801
1551.46	411.511
1551.73	420.587
1551.99	407.452
1552.25	396.284
1552.51	423.569
1552.77	425.75
1553.03	428.707
1553.3	417.539
1553.56	407.203
1553.82	404.128
1554.08	432.18
1554.34	421.06
1554.61	417.932
1554.87	438.839
1555.13	426.661
1555.39	423.601
1555.65	418.563
1555.91	416.557
1556.18	423.595
1556.44	413.58
1556.7	409.51
1556.96	421.534
1557.22	426.569
1557.48	426.593
1557.75	422.592
1558.01	420.565
1558.27	412.475
1558.53	422.357
1558.79	425.254
1559.06	408.098
1559.32	419.977
1559.58	424.866
1559.84	438.771
1560.1	423.697
1560.36	399.647
1560.63	400.604
1560.89	412.563
1561.15	421.532
1561.41	413.532
1561.67	414.559
1561.93	413.634
1562.19	424.745
1562.46	400.866
1562.72	415.871
1562.98	423.851
1563.24	418.816
1563.5	410.835
1563.76	415.794
1564.02	410.768
1564.29	416.913
1564.55	399.061
1564.81	426.13
1565.07	430.103
1565.33	416.859
1565.59	424.117
1565.85	428.074
1566.11	408.634
1566.38	424.293
1566.64	424.801
1566.9	421.584
1567.16	416.312
1567.42	422.647
1567.68	428.022
1567.94	441.927
1568.2	430.622
1568.47	416.676
1568.73	408.735
1568.99	409.762
1569.25	424.72
1569.51	425.563
1569.77	396.491
1570.03	403.489
1570.29	421.508
1570.55	411.523
1570.82	408.529
1571.08	415.516
1571.34	419.494
1571.6	423.452
1571.86	440.37
1572.12	417.315
1572.38	413.305
1572.64	419.245
1572.9	426.152
1573.17	416.105
1573.43	426.028
1573.69	427.953
1573.95	417.912
1574.21	414.926
1574.47	425.979
1574.73	416.091
1574.99	405.204
1575.25	428.28
1575.51	437.374
1575.78	416.466
1576.04	410.489
1576.3	428.446
1576.56	419.443
1576.82	421.393
1577.08	422.259
1577.34	430.084
1577.6	424.937
1577.86	432.771
1578.12	409.692
1578.38	414.555
1578.64	426.441
1578.9	403.485
1579.17	409.461
1579.43	429.395
1579.69	429.398
1579.95	407.487
1580.21	418.513
1580.47	411.562
1580.73	424.532
1580.99	439.471
1581.25	416.487
1581.51	435.361
1581.77	427.329
1582.03	409.303
1582.29	420.175
1582.55	418.15
1582.81	404.172
1583.07	444.982
1583.33	405.111
1583.59	422.031
1583.85	438.951
1584.11	410.024
1584.38	404.046
1584.64	430.972
1584.9	433.988
1585.16	417.07
1585.42	421.049
1585.68	419.032
1585.94	442.925
1586.2	422.962
1586.46	410.914
1586.72	418.776
1586.98	430.643
1587.24	420.633
1587.5	420.587
1587.76	430.499
1588.02	426.497
1588.28	425.504
1588.54	410.612
1588.8	429.564
1589.06	417.682
1589.32	435.649
1589.58	416.788
1589.84	423.795
1590.1	417.834
1590.36	419.823
1590.62	432.799
1590.88	404.965
1591.14	416.952
1591.4	397.021
1591.66	426.893
1591.92	409.934
1592.18	433.788
1592.44	425.726
1592.7	415.639
1592.96	408.576
1593.22	429.402
1593.48	429.245
1593.74	424.103
1594	402.067
1594.26	410.903
1594.52	427.731
1594.78	416.804
1595.04	429.766
1595.3	413.954
1595.56	423.944
1595.82	427.918
1596.08	437.655
1596.34	419.766
1596.6	431.683
1596.86	430.692
1597.12	430.707
1597.38	410.868
1597.64	415.87
1597.9	430.807
1598.16	435.762
1598.42	415.851
1598.68	431.667
1598.94	421.62
1599.2	414.567
1599.46	407.541
1599.72	412.432
1599.98	434.189
1600.24	414.274
1600.5	419.164
1600.76	434.948
1601.02	431.866
1601.28	421.82
1601.54	408.799
1601.8	421.541
1602.06	429.348
1602.32	421.337
1602.58	425.214
1602.84	431.058
1603.1	424.027
1603.36	428.878
1603.62	432.752
1603.88	431.707
1604.14	417.827
1604.4	413.861
1604.66	431.664
1604.92	425.742
1605.17	434.644
1605.43	436.63
1605.69	419.834
1605.95	415.911
1606.21	423.87
1606.47	429.859
1606.73	416.063
1606.99	406.211
1607.25	416.189
1607.51	438.702
1607.77	404.269
1608.03	428.228
1608.29	424.429
1608.55	430.123
1608.81	419.945
1609.07	423.262
1609.32	424.898
1609.58	429.329
1609.84	411.189
1610.1	431.836
1610.36	420.491
1610.62	430.361
1610.88	428.5
1611.14	422.905
1611.4	427.807
1611.66	423.34
1611.92	424.768
1612.18	423.556
1612.44	421.748
1612.69	422.034
1612.95	414.526
1613.21	426.278
1613.47	424.034
1613.73	418.408
1613.99	435.738
1614.25	425.853
1614.51	434.758
1614.77	427.395
1615.03	416.009
1615.29	437.543
1615.54	422.845
1615.8	431.288
1616.06	430.65
1616.32	428.046
1616.58	429.425
1616.84	433.99
1617.1	425.044
1617.36	424.228
1617.62	423.177
1617.88	423.432
1618.13	424.475
1618.39	421.453
1618.65	416.658
1618.91	426.094
1619.17	422.134
1619.43	427.431
1619.69	427.351
1619.95	421.036
1620.2	428.271
1620.46	429.453
1620.72	431.963
1620.98	428.733
1621.24	426.093
1621.5	421.937
1621.76	424.819
1622.02	427.119
1622.27	426.415
1622.53	425.999
1622.79	429.249
1623.05	424.865
1623.31	424.721
1623.57	425.737
1623.83	414.368
1624.09	424.78
1624.34	428.718
1624.6	424.609
1624.86	423.118
1625.12	415.519
1625.38	421.985
1625.64	419.132
1625.9	420.196
1626.15	427.445
1626.41	425.035
1626.67	428.628
1626.93	428.09
1627.19	436.501
1627.45	427.586
1627.7	422.985
1627.96	423.216
1628.22	423.112
1628.48	424.501
1628.74	418.992
1629	416.702
1629.26	430.037
1629.51	428.197
1629.77	416.723
1630.03	424.596
1630.29	426.725
1630.55	429.715
1630.81	436.185
1631.06	428.564
1631.32	432.373
1631.53	422.366
1631.79	417.516
1632.05	430.414
1632.31	416.703
1632.57	426.546
1632.84	425.691
1633.1	424.933
1633.36	423.804
1633.62	416.697
1633.88	418.631
1634.14	440.38
1634.4	423.707
1634.66	421.768
1634.93	415.876
1635.19	417.852
1635.45	426.717
1635.71	422.759
1635.97	438.503
1636.23	423.687
1636.49	429.557
1636.75	436.41
1637.02	429.465
1637.28	439.255
1637.54	420.476
1637.8	432.263
1638.06	419.458
1638.32	431.245
1638.58	435.148
1638.84	427.251
1639.1	433.172
1639.37	421.372
1639.63	435.159
1639.89	435.167
1640.15	430.248
1640.41	431.228
1640.67	435.189
1640.93	409.685
1641.19	438.307
1641.46	431.442
1641.72	407.791
1641.98	421.54
1642.24	418.567
1642.5	432.338
1642.76	426.423
1643.02	431.336
1643.28	438.222
1643.54	448.065
1643.8	426.41
1644.06	435.243
1644.33	426.348
1644.59	433.179
1644.85	430.181
1645.11	440.015
1645.37	434.157
1645.63	433.241
1645.89	433.285
1646.15	432.318
1646.41	445.077
1646.67	427.324
1646.93	441.062
1647.19	419.401
1647.46	429.204
1647.72	438.019
1647.98	434.056
1648.24	430.123
1648.5	423.266
1648.76	429.253
1649.02	436.234
1649.28	422.685
1649.54	411.949
1649.8	441.447
1650.06	424.674
1650.32	441.416
1650.58	444.512
1650.85	437.737
1651.11	436.844
1651.37	429.057
1651.63	426.168
1651.89	447.882
1652.15	425.23
1652.41	423.27
1652.67	422.313
1652.93	430.164
1653.19	431.107
1653.45	438.976
1653.71	413.372
1653.97	437.049
1654.23	425.279
1654.49	431.23
1654.75	418.446
1655.01	446.082
1655.27	436.293
1655.53	429.491
1655.8	437.517
1656.06	438.672
1656.32	423.986
1656.57	426.038
1656.84	425.1
1657.1	434.014
1657.36	433.026
1657.62	423.128
1657.88	430
1658.14	426.035
1658.4	435.881
1658.66	426.964
1658.92	434.806
1659.18	431.794
1659.44	444.561
1659.7	444.505
1659.96	432.618
1660.22	433.519
1660.48	427.651
1660.74	427.717
1661	441.6
1661.26	421.964
1661.52	420.081
1661.78	448.793
1662.04	426.146
1662.3	427.176
1662.56	428.767
1662.82	419.714
1663.08	434.008
1663.34	437.732
1663.6	433.739
1663.86	422.771
1664.12	443.598
1664.38	450.002
1664.64	421.493
1664.9	435.364
1665.16	432.63
1665.42	427.788
1665.68	425.36
1665.94	413.139
1666.2	434.979
1666.46	440.028
1666.72	433.071
1666.98	432.473
1667.24	436.056
1667.5	428.474
1667.76	438.26
1668.02	428.33
1668.28	413.495
1668.54	422.315
1668.8	431.215
1669.06	444.252
1669.32	415.875
1669.58	428.771
1669.84	427.804
1670.1	429.806
1670.36	434.71
1670.62	410.028
1670.88	424.087
1671.14	434.125
1671.4	428.16
1671.66	434.067
1671.92	446.907
1672.18	442.984
1672.44	440.067
1672.69	423.288
1672.95	417.365
1673.21	419.35
1673.47	427.281
1673.73	416.435
1673.99	438.225
1674.25	439.27
1674.51	420.552
1674.77	430.504
1675.03	411.777
1675.29	429.674
1675.55	442.615
1675.81	440.685
1676.07	432.785
1676.33	416.954
1676.59	435.782
1676.85	423.939
1677.11	429.9
1677.37	430.893
1677.63	429.889
1677.89	427.881
1678.14	443.662
1678.4	427.758
1678.66	436.577
1678.92	425.63
1679.18	427.558
1679.44	415.653
1679.7	419.582
1679.96	425.48
1680.22	425.446
1680.48	413.565
1680.74	426.378
1681	413.5
1681.26	435.209
1681.52	429.27
1681.78	421.369
1682.03	431.255
1682.29	440.155
1682.55	425.35
1682.81	436.237
1683.07	419.434
1683.33	435.239
1683.59	445.122
1683.85	425.374
1684.11	426.36
1684.37	432.269
1684.63	422.337
1684.89	431.199
1685.14	416.374
1685.4	424.27
1685.66	432.171
1685.92	407.493
1686.18	414.418
1686.44	441.099
1686.7	418.431
1686.96	423.466
1687.22	412.653
1687.48	417.611
1687.73	443.273
1687.99	443.231
1688.25	433.314
1688.51	436.246
1688.77	432.259
1689.03	414.434
1689.29	431.136
1689.55	441.928
1689.81	421.139
1690.06	426.986
1690.32	436.763
1690.58	440.69
1690.84	421.072
1691.1	432.976
1691.36	434.998
1691.62	432.07
1691.88	415.35
1692.13	426.253
1692.39	440.081
1692.65	426.25
1692.91	434.091
1693.17	409.354
1693.43	435.902
1693.69	437.766
1693.95	429.759
1694.2	420.812
1694.46	422.71
1694.72	419.676
1694.98	450.161
1695.24	430.463
1695.5	439.364
1695.76	428.562
1696.01	420.715
1696.27	429.621
1696.53	430.676
1696.79	427.769
1697.05	445.515
1697.31	433.658
1697.57	435.557
1697.82	440.381
1698.08	436.335
1698.34	435.268
1698.6	431.265
1698.86	437.109
1699.12	438.043
1699.38	433.101
1699.63	430.148
1699.89	446.91
1700.15	436.099
1700.41	427.26
1700.67	442.933
1700.92	434.069
1701.18	439.961
1701.44	420.272
1701.7	432.048
1701.96	432.97
1702.22	423.062
1702.47	440.691
1702.73	437.665
1702.99	436.612
1703.25	419.891
1703.51	414.976
1703.77	429.697
1704.02	432.613
1704.28	427.684
1704.54	432.645
1704.8	439.591
1705.06	444.528
1705.32	446.481
1705.57	435.655
1705.83	431.734
1706.09	428.796
1706.35	434.633
1706.61	433.568
1706.86	436.422
1707.12	436.322
1707.38	436.224
1707.64	437.121
1707.9	422.299
1708.16	443.75
1708.41	430.874
1708.67	419.967
1708.93	427.662
1709.19	452.997
1709.44	442.132
1709.7	428.37
1709.96	432.265
1710.22	431.289
1710.48	429.349
1710.73	430.35
1710.99	436.27
1711.25	419.698
1711.51	433.457
1711.77	437.423
1712.02	432.567
1712.28	443.358
1712.54	439.401
1712.8	432.434
1713.06	436.182
1713.31	422.308
1713.57	435.84
1713.83	422.985
1714.09	439.447
1714.34	437.422
1714.6	437.377
1714.86	437.345
1715.12	437.33
1715.38	432.448
1715.63	422.763
1715.89	431.658
1716.15	426.779
1716.41	451.178
1716.66	434.517
1716.92	434.434
1717.18	434.321
1717.44	439.058
1717.69	431.079
1717.95	443.552
1718.21	405.355
1718.47	434.44
1718.72	440.15
1718.98	431.299
1719.24	434.175
1719.5	440.992
1719.75	440.996
1720.01	424.43
1720.27	446.864
1720.53	433.26
1720.78	423.491
1721.04	445.813
1721.3	448.621
1721.56	412.537
1721.81	434.837
1722.07	430.858
1722.33	432.705
1722.59	449.128
1722.84	433.476
1723.1	437.269
1723.36	425.529
1723.62	435.177
1723.87	429.31
1724.13	434.17
1724.39	431.23
1724.64	440.926
1724.9	428.244
1725.16	432.994
1725.42	431.865
1725.67	443.358
1725.93	439.323
1726.19	446.009
1726.45	437.244
1726.7	431.471
1726.96	436.293
1727.22	431.393
1727.47	430.282
1727.73	444.808
1727.99	426.517
1728.24	431.343
1728.5	422.563
1728.76	435.968
1729.02	429.578
1729.27	438.583
1729.53	426.768
1729.79	435.709
1730.05	415.661
1730.3	429.36
1730.56	435.868
1730.82	437.69
1731.07	424.144
1731.33	435.26
1731.59	432.399
1731.84	436.283
1732.1	437.249
1732.36	441.099
1732.61	440.099
1732.87	433.297
1733.13	450.631
1733.39	434.125
1733.64	430.142
1733.9	438.668
1734.16	424.988
1734.41	446.088
1734.67	432.46
1734.93	421.729
1735.18	449.544
1735.44	436.89
1735.7	436.777
1735.95	450.174
1736.21	430.863
1736.47	439.496
1736.72	440.423
1736.98	440.374
1737.24	430.703
1737.49	449.89
1737.75	435.411
1738.01	434.404
1738.26	436.261
1738.52	455.407
1738.78	439.942
1739.03	436.977
1739.29	434
1739.55	435.806
1739.8	444.294
1740.06	420.113
1740.32	437.211
1740.57	444.727
1740.83	435.012
1741.09	419.582
1741.34	441.536
1741.6	438.574
1741.86	441.368
1742.11	433.644
1742.37	454.673
1742.63	431.678
1742.88	438.355
1743.14	430.661
1743.4	430.644
1743.65	451.7
1743.91	452.622
1744.16	445.841
1744.42	438.12
1744.68	436.152
1744.93	419.87
1745.19	439.009
1745.45	427.548
1745.7	439.036
1745.96	435.197
1746.22	430.37
1746.47	443.68
1746.73	440.708
1746.98	438.675
1747.24	457.692
1747.5	424.142
1747.75	441.243
1748.01	428.74
1748.27	439.201
1748.52	426.791
1748.78	439.216
1749.03	429.697
1749.29	441.192
1749.55	431.705
1749.8	437.514
1750.06	436.654
1750.32	422.433
1750.57	435.919
1750.83	434.11
1751.08	439.89
1751.34	438.039
1751.6	447.621
1751.85	453.309
1752.11	436.945
1752.36	456.884
1752.62	431.002
1752.88	427.1
1753.13	444.199
1753.39	437.428
1753.64	440.219
1753.9	446.833
1754.15	428.646
1754.41	458.128
1754.67	427.523
1754.92	457.977
1755.18	441.717
1755.43	452.162
1755.69	444.49
1755.95	447.285
1756.2	441.484
1756.46	431.861
1756.71	423.186
1756.97	436.387
1757.23	439.113
1757.48	438.996
1757.74	440.855
1757.99	427.496
1758.25	439.898
1758.5	445.746
1758.76	440.089
1759.02	434.4
1759.27	446.786
1759.53	453.463
1759.78	427.802
1760.04	424.951
1760.3	451.572
1760.55	439.175
1760.81	441.046
1761.06	422.931
1761.32	424.776
1761.57	437.063
1761.83	436.996
1762.08	446.459
1762.34	423.622
1762.6	448.329
1762.85	437.957
1763.11	446.573
1763.36	424.724
1763.62	430.421
1763.87	445.658
1764.13	423.829
1764.38	434.345
1764.64	448.713
1764.89	443.18
1765.15	450.874
1765.4	449.992
1765.66	443.381
1765.92	429.141
1766.17	442.496
1766.43	441.555
1766.68	426.319
1766.94	462.47
1767.19	447.218
1767.45	446.27
1767.7	442.436
1767.96	440.482
1768.21	437.572
1768.47	428.969
1768.73	437.504
1768.98	439.385
1769.24	446.823
1769.49	426.63
1769.75	434.971
1770	434.833
1770.26	463.343
1770.51	432.118
1770.77	433.186
1771.02	440.805
1771.28	435.146
1771.53	447.628
1771.79	454.454
1772.04	451.67
1772.3	453.607
1772.55	445.133
1772.81	439.526
1773.06	441.507
1773.32	443.474
1773.57	446.392
1773.83	452.159
1774.08	441.742
1774.34	434.172
1774.59	452.296
1774.85	429.478
1775.1	436.214
1775.36	464.828
1775.61	436.347
1775.87	430.837
1776.12	454.789
1776.38	445.325
1776.63	449.165
1776.89	421.509
1777.14	443.39
1777.4	420.452
1777.65	440.429
1777.91	447.983
1778.16	443.151
1778.42	460.224
1778.67	430.633
1778.93	446.737
1779.18	435.209
1779.44	428.438
1779.69	441.698
1779.95	442.653
1780.2	432.321
1780.46	452.349
1780.71	445.73
1780.97	438.165
1781.22	444.883
1781.47	434.431
1781.73	419.228
1781.98	442.127
1782.24	436.485
1782.49	440.375
1782.75	445.252
1783	444.378
1783.26	435.865
1783.51	453.078
1783.77	430.271
1784.02	435.104
1784.28	439.945
1784.53	450.525
1784.79	449.697
1785.04	441.191
1785.29	446.009
1785.55	443.157
1785.8	440.283
1786.06	426.892
1786.31	444.981
1786.57	442.138
1786.82	405.935
1787.08	447.993
1787.33	435.692
1787.58	441.55
1787.84	458.917
1788.09	445.824
1788.35	434.645
1788.6	435.887
1788.86	420.766
1789.11	432.338
1789.37	438.196
1789.62	424.958
1789.87	426.034
1790.13	433.767
1790.38	434.793
1790.64	438.695
1790.89	433.917
1791.15	444.453
1791.4	440.531
1791.65	444.105
1791.91	446.951
1792.16	438.3
1792.42	443.104
1792.67	442.176
1792.93	431.675
1793.18	439.405
1793.43	426.04
1793.69	439.475
1793.94	429.91
1794.2	423.27
1794.45	437.671
1794.7	430.966
1794.96	437.618
1795.21	425.293
1795.47	441.937
1795.72	436.417
1795.97	449.019
1796.23	436.621
1796.48	429.03
1796.74	423.359
1796.99	421.532
1797.25	436.04
1797.5	431.327
1797.75	428.524
1798.01	420.901
1798.26	428.65
1798.51	430.624
1798.77	447.969
1799.02	439.329
1799.28	431.624
1799.53	434.472
1799.78	445.951
1800.04	429.536
1800.29	431.391
1800.55	429.419
1800.8	433.222
1801.05	447.603
1801.31	432.218
1801.56	437.018
1801.81	427.423
1802.07	435.134
1802.32	427.489
1802.58	453.48
1802.83	440.098
1803.08	437.299
1803.34	444.125
1803.59	443.269
1803.84	450.088
1804.1	438.6
1804.35	445.367
1804.61	436.778
1804.86	448.415
1805.11	443.697
1805.37	438.994
1805.62	442.964
1805.87	435.379
1806.13	448.967
1806.38	441.351
1806.64	441.431
1806.89	428.01
1807.14	445.406
1807.4	432.903
1807.65	430.026
1807.9	429.075
1808.16	437.765
1808.41	426.218
1808.66	436.841
1808.92	439.757
1809.17	449.423
1809.42	436.92
1809.68	437.91
1809.93	433.119
1810.18	441.825
1810.44	444.743
1810.69	457.292
1810.94	450.532
1811.2	424.49
1811.45	432.207
1811.7	421.604
1811.96	455.35
1812.21	453.438
1812.46	414.906
1812.72	438.103
1812.97	435.282
1813.22	435.369
1813.48	440.266
1813.73	423.902
1813.98	428.796
1814.24	425.041
1814.49	436.749
1814.74	455.229
1815	439.933
1815.25	430.366
1815.5	443.006
1815.76	435.323
1816.01	444.054
1816.26	446.985
1816.52	434.454
1816.77	445.127
1817.02	449.036
1817.27	431.621
1817.53	435.436
1817.78	428.483
1818.03	430.283
1818.29	442.87
1818.54	445.857
1818.79	439.223
1819.05	426.739
1819.3	446.055
1819.55	447.065
1819.8	430.697
1820.06	432.691
1820.31	432.741
1820.56	427
1820.82	439.64
1821.07	448.403
1821.32	443.619
1821.58	418.538
1821.83	433.127
1822.08	442.877
1822.33	441.003
1822.59	438.15
1822.84	435.286
1823.09	447.906
1823.34	450.843
1823.6	444.068
1823.85	448.881
1824.1	426.585
1824.36	437.231
1824.61	442.116
1824.86	426.677
1825.11	451.896
1825.37	446.141
1825.62	430.706
1825.87	427.842
1826.12	459.82
1826.38	431.744
1826.63	425.952
1826.88	429.848
1827.14	442.459
1827.39	431.843
1827.64	428.02
1827.89	430.015
1828.15	450.414
1828.4	438.801
1828.65	435.887
1828.9	435.855
1829.16	429.993
1829.41	438.68
1829.66	432.863
1829.91	431.888
1830.17	438.653
1830.42	437.645
1830.67	441.479
1830.92	429.826
1831.18	441.455
1831.43	437.641
1831.68	464.825
1831.93	431.969
1832.19	450.438
1832.44	431.13
1832.69	447.672
1832.94	436.142
1833.2	442.029
1833.45	425.571
1833.7	420.744
1833.95	438.242
1834.2	438.273
1834.46	440.252
1834.71	421.735
1834.96	437.995
1835.21	432.951
1835.47	451.154
1835.72	427.811
1835.97	438.347
1836.22	442.22
1836.48	430.526
1836.73	451.673
1836.98	438.035
1837.23	427.77
1837.48	434.364
1837.74	437.945
1837.99	433.816
1838.24	449.829
1838.49	436.041
1838.74	429.234
1839	450.275
1839.25	446.734
1839.5	447.877
1839.75	443.105
1840	444.144
1840.26	446.202
1840.51	444.841
1840.76	440.675
1841.01	446.23
1841.27	428.618
1841.52	432.294
1841.77	425.354
1842.02	424.23
1842.27	414.437
1842.53	429.745
1842.78	439.26
1843.03	427.771
1843.28	441.242
1843.53	454.807
1843.78	446.128
1844.04	431.669
1844.29	434.528
1844.54	429.713
1844.79	416.271
1845.04	445.229
1845.3	427.806
1845.55	442.3
1845.8	428.81
1846.05	431.89
1846.3	429.19
1846.55	450.613
1846.81	421.942
1847.06	434.278
1847.31	446.216
1847.56	424.303
1847.81	431.876
1848.07	456.923
1848.32	440.787
1848.57	437.145
1848.82	437.898
1849.07	432.979
1849.32	443.593
1849.57	437.742
1849.83	433.779
1850.08	429.807
1850.33	431.617
1850.58	426.66
1850.83	449.615
1851.09	431.252
1851.34	435.975
1851.59	429.18
1851.84	437.772
1852.09	432.936
1852.34	433.887
1852.59	443.495
1852.84	442.546
1853.1	431.992
1853.35	431.029
1853.6	429.092
1853.85	430.976
1854.1	431.863
1854.35	441.351
1854.6	436.424
1854.86	426.722
1855.11	432.419
1855.36	433.324
1855.61	415.958
1855.86	436.913
1856.11	439.716
1856.36	423.404
1856.61	429.139
1856.87	427.233
1857.12	406.169
1857.37	433.936
1857.62	430.078
1857.87	445.359
1858.12	442.443
1858.37	430.898
1858.63	437.522
1858.88	431.693
1859.13	429.691
1859.38	440.119
1859.63	439.063
1859.88	433.26
1860.13	424.656
1860.38	416.064
1860.63	442.87
1860.89	413.317
1861.14	431.57
1861.39	433.556
1861.64	441.3
1861.89	450.949
1862.14	431.843
1862.39	430.874
1862.64	444.216
1862.9	435.523
1863.15	428.737
1863.4	428.647
1863.65	436.208
1863.9	440.904
1864.15	434.142
1864.4	430.252
1864.65	439.74
1864.9	437.763
1865.15	439.593
1865.4	436.629
1865.66	440.328
1865.91	418.253
1866.16	430.503
1866.41	438.915
1866.66	432.071
1866.91	427.142
1867.16	429.833
1867.41	429.67
1867.66	417.155
1867.91	438.917
1868.16	439.802
1868.41	432.158
1868.67	439.744
1868.92	422.649
1869.17	437.892
1869.42	431.244
1869.67	425.528
1869.92	425.511
1870.17	411.239
1870.42	429.288
1870.67	430.227
1870.92	432.121
1871.17	425.468
1871.42	440.677
1871.67	433.053
1871.92	433.966
1872.17	427.252
1872.42	438.611
1872.68	430.03
1872.93	434.71
1873.18	446.027
1873.43	443.129
1873.68	444.069
1873.93	412.719
1874.18	424.062
1874.43	433.482
1874.68	433.398
1874.93	432.354
1875.18	437.944
1875.43	441.629
1875.68	429.197
1875.93	456.53
1876.18	426.94
1876.43	424.903
1876.68	436.14
1876.93	419.965
1877.18	438.834
1877.43	432.011
1877.68	413.814
1877.93	433.18
1878.18	448.647
1878.44	439.827
1878.69	439.237
1878.93	439.054
1879.19	436.171
1879.44	442.268
1879.69	439.635
1879.94	443.303
1880.19	440.34
1880.44	427.073
1880.69	442.203
1880.94	430
1881.19	416.661
1881.44	429.905
1881.69	442.988
1881.94	437.108
1882.19	440.685
1882.44	431.016
1882.69	427.004
1882.94	422.948
1883.19	436.991
1883.44	429.148
1883.69	424.349
1883.94	446.185
1884.19	433.747
1884.44	441.329
1884.69	444.425
1884.94	423.468
1885.19	434.005
1885.44	437.065
1885.69	428.644
1885.94	451.355
1886.19	443.085
1886.44	436.587
1886.69	448.943
1886.94	420.577
1887.19	415.694
1887.44	432.601
1887.69	424.964
1887.94	430.532
1888.19	435.15
1888.44	441.639
1888.69	429.227
1888.94	430.033
1889.19	426.142
1889.44	430.73
1889.69	446.673
1889.94	439.136
1890.19	435.361
1890.44	415.641
1890.69	432.693
1890.94	417.732
1891.19	425.305
1891.43	440.37
1891.68	443.166
1891.94	445.051
1892.18	432.79
1892.43	433.719
1892.68	429.006
1892.93	443.078
1893.18	444.881
1893.43	438.148
1893.68	438.86
1893.93	432.08
1894.18	424.52
1894.43	422.717
1894.68	420.698
1894.93	419.694
1895.18	420.612
1895.43	431.908
1895.68	419.735
1895.93	445.158
1896.18	434.883
1896.43	427.429
1896.68	438.788
1896.93	432.3
1897.18	427.681
1897.42	440.913
1897.68	440.964
1897.92	433.469
1898.17	432.537
1898.42	451.333
1898.67	424.958
1898.92	437.12
1899.17	437.973
1899.42	437.874
1899.67	432.164
1899.92	436.828
1900.17	445.238
1900.42	426.406
1900.67	442.37
1900.92	432.061
1901.16	444.328
1901.41	439.712
1901.66	427.594
1901.91	434.267
1902.16	410.858
1902.41	446.7
1902.66	414.822
1902.91	437.414
1903.16	444.912
1903.41	434.532
1903.66	429.789
1903.91	440.106
1904.16	431.626
1904.41	431.616
1904.65	445.716
1904.9	421.267
1905.15	420.315
1905.4	447.571
1905.65	431.594
1905.9	415.6
1906.15	424.894
1906.4	438.853
1906.65	441.622
1906.9	437.824
1907.14	419.948
1907.39	438.709
1907.64	445.298
1907.89	435.943
1908.14	436.009
1908.39	447.372
1908.64	430.508
1908.89	441.817
1909.14	429.658
1909.39	437.253
1909.63	434.53
1909.88	439.349
1910.13	445.131
1910.38	422.705
1910.63	433.212
1910.88	441.827
1911.13	436.285
1911.38	441.071
1911.62	437.357
1911.87	438.327
1912.12	441.16
1912.37	435.489
1912.62	436.412
1912.87	443.006
1913.12	437.365
1913.37	441.144
1913.61	443.995
1913.86	435.594
1914.11	437.611
1914.36	427.388
1914.61	449.181
1914.86	430.421
1915.11	446.558
1915.36	416.465
1915.6	434.461
1915.85	422.23
1916.1	436.385
1916.35	417.489
1916.6	439.178
1916.85	436.298
1917.1	426.786
1917.34	422.008
1917.59	443.645
1917.84	441.725
1918.09	431.339
1918.34	437.017
1918.59	434.259
1918.83	434.363
1919.08	437.317
1919.33	435.569
1919.58	431.94
1919.83	445.347
1920.08	426.617
1920.33	441.825
1920.57	435.241
1920.82	447.485
1921.07	434.297
1921.32	423.074
1921.57	428.866
1921.81	441.232
1922.06	431.846
1922.31	427.165
1922.56	417.719
1922.81	450.797
1923.06	424.264
1923.31	428.943
1923.55	423.241
1923.8	427.944
1924.05	430.751
1924.3	427.868
1924.55	441.032
1924.79	434.376
1925.04	423.978
1925.29	437.232
1925.54	441.078
1925.79	427.947
1926.04	427.14
1926.28	440.505
1926.53	433.059
1926.78	421.832
1927.03	445.634
1927.28	426.801
1927.52	440.13
1927.77	440.201
1928.02	421.324
1928.27	418.54
1928.52	440.383
1928.76	448.003
1929.01	448.071
1929.26	430.133
1929.51	425.472
1929.76	431.262
1930	431.403
1930.25	441.955
1930.5	427.864
1930.75	427.027
1931	432.845
1931.24	430.989
1931.49	432.91
1931.74	425.293
1931.99	431.895
1932.24	441.34
1932.48	421.361
1932.73	435.548
1932.98	435.493
1933.23	444.972
1933.47	424.055
1933.72	426.938
1933.97	426.119
1934.22	442.471
1934.46	435.162
1934.71	425.088
1934.96	436.871
1935.21	424.816
1935.46	426.986
1935.7	442.455
1935.95	445.472
1936.2	445.196
1936.45	429.914
1936.69	431.804
1936.94	442.243
1937.19	435.496
1937.44	435.403
1937.68	432.469
1937.93	452.385
1938.18	418.047
1938.43	425.588
1938.68	428.45
1938.92	438.126
1939.17	421.048
1939.42	428.74
1939.67	421.2
1939.91	440.316
1940.16	439.444
1940.41	438.52
1940.66	448.165
1940.9	425.403
1941.15	441.903
1941.4	420.13
1941.64	438.272
1941.89	441.09
1942.14	433.317
1942.39	430.216
1942.63	426.564
1942.88	417.452
1943.13	424.242
1943.38	428.088
1943.62	438.43
1943.87	431.571
1944.12	435.252
1944.37	440.302
1944.61	431.814
1944.86	433.822
1945.11	413.875
1945.35	419.716
1945.6	427.471
1945.85	436.185
1946.1	417.17
1946.34	434.467
1946.59	438.367
1946.84	422.166
1947.09	433.679
1947.33	439.419
1947.58	436.524
1947.83	445.097
1948.07	418.323
1948.32	436.499
1948.57	418.337
1948.82	439.351
1949.06	420.258
1949.31	435.644
1949.56	425.218
1949.8	412.878
1950.05	435.001
1950.3	434.166
1950.54	431.481
1950.79	431.683
1951.04	424.175
1951.29	435.852
1951.53	430.281
1951.78	446.765
1952.03	434.429
1952.27	437.403
1952.52	427.875
1952.77	422.191
1953.01	426.027
1953.26	428.034
1953.51	422.385
1953.76	443.415
1954	432.7
1954.25	429.562
1954.49	426.463
1954.74	432.965
1954.99	428.951
1955.24	420.28
1955.48	433.688
1955.73	437.581
1955.98	453.998
1956.22	419.684
1956.47	434.374
1956.72	428.745
1956.96	427.93
1957.21	420.332
1957.46	431.963
1957.7	436.865
1957.95	435.996
1958.2	433.184
1958.44	423.628
1958.69	429.435
1958.94	418.894
1959.18	418.871
1959.43	430.335
1959.68	421.656
1959.92	429.338
1960.17	418.717
1960.42	438.834
1960.66	420.533
1960.91	429.117
1961.16	433.849
1961.4	430.906
1961.65	430.852
1961.9	431.78
1962.14	434.683
1962.39	442.396
1962.63	428.986
1962.88	426.136
1963.13	411.766
1963.37	439.63
1963.62	434.856
1963.87	423.362
1964.11	437.794
1964.36	437.857
1964.61	433.113
1964.85	436.957
1965.1	418.691
1965.35	428.312
1965.59	426.387
1965.84	440.809
1966.08	411.093
1966.33	438.074
1966.58	422.809
1966.82	420.989
1967.07	439.324
1967.32	427.854
1967.56	444.192
1967.81	427.866
1968.05	414.455
1968.3	430.824
1968.55	426.047
1968.79	417.397
1969.04	422.176
1969.29	422.115
1969.53	436.438
1969.78	433.433
1970.02	451.556
1970.27	417.852
1970.52	449.453
1970.76	434.046
1971.01	439.741
1971.25	431.052
1971.5	420.463
1971.75	433.862
1971.99	427.126
1972.24	431.004
1972.48	424.34
1972.73	436.843
1972.98	433.012
1973.22	435.863
1973.47	442.517
1973.71	438.597
1973.96	432.777
1974.21	434.649
1974.45	435.582
1974.7	432.701
1974.94	442.298
1975.19	424.112
1975.44	429.908
1975.68	431.89
1975.93	446.348
1976.17	431.072
1976.42	428.248
1976.66	440.756
1976.91	442.7
1977.16	435.998
1977.4	433.118
1977.65	423.509
1977.89	420.596
1978.14	436.845
1978.39	431.034
1978.63	444.408
1978.88	455.874
1979.12	419.435
1979.37	438.614
1979.61	426.177
1979.86	441.526
1980.1	445.388
1980.35	433.903
1980.6	445.375
1980.84	441.475
1981.09	436.623
1981.33	424.142
1981.58	435.589
1981.82	425.975
1982.07	434.577
1982.31	428.826
1982.56	437.44
1982.81	431.638
1983.05	428.706
1983.3	422.876
1983.54	434.25
1983.79	446.605
1984.03	443.704
1984.28	435.074
1984.52	438.869
1984.77	428.316
1985.02	444.547
1985.26	435.88
1985.51	446.296
1985.75	438.606
1986	449.132
1986.24	429.097
1986.49	447.328
1986.73	435.937
1986.98	436.939
1987.22	422.591
1987.47	416.893
1987.71	429.264
1987.96	442.535
1988.21	451.958
1988.45	449.894
1988.7	432.527
1988.94	449.423
1989.19	455.663
1989.43	440.393
1989.68	446.649
1989.92	434.19
1990.17	436.624
1990.41	442.606
1990.66	434.26
1990.9	439.567
1991.15	438.463
1991.39	438.832
1991.64	447.981
1991.88	447.925
1992.13	449.842
1992.37	442.157
1992.62	438.093
1992.86	453.404
1993.11	444.177
1993.35	438.715
1993.6	456.591
1993.84	435.09
1994.09	434.368
1994.33	440.283
1994.58	445.731
1994.82	439.71
1995.07	449.625
1995.31	443.388
1995.56	422.285
1995.8	444.851
1996.05	437.896
1996.29	445.974
1996.54	437.367
1996.78	435.482
1997.03	442.666
1997.27	444.629
1997.52	446.136
1997.76	444.618
1998.01	451.929
1998.25	443.043
1998.5	439.573
1998.74	435.299
1998.99	436.07
1999.23	434.854
1999.48	443.222
1999.72	436.879
1999.97	438.17
2000.21	460.254
2000.46	443.057
2000.7	444.952
2000.95	446.098
2001.19	445.733
2001.43	446.039
2001.68	443.386
2001.92	440.517
2002.17	438.976
2002.41	435.511
2002.66	442.74
2002.9	448.27
2003.15	446.13
2003.39	444.667
2003.64	438.53
2003.88	440.144
2004.13	445.077
2004.37	437.837
2004.61	434.617
2004.86	436.115
2005.1	442.05
2005.35	438.997
2005.59	440.842
2005.84	449.806
2006.08	446.046
2006.33	451.032
2006.57	451.561
2006.81	441.323
2007.06	435.028
2007.3	436.056
2007.55	439.519
2007.79	443.527
2008.04	442.574
2008.28	443.93
2008.53	439.663
2008.77	437.117
2009.01	447.457
2009.26	439.328
2009.5	432.243
2009.75	435.704
2009.99	446.106
2010.24	444.19
2010.48	445.188
2010.73	427.95
2010.97	429.058
2011.21	435.097
2011.46	429.765
2011.7	445.894
2011.95	442.032
2012.19	431.551
2012.43	438.837
2012.68	447.278
2012.92	444.423
2013.17	438.683
2013.42	455.469
2013.67	447.716
2013.91	434.423
2014.16	443.662
2014.41	441.587
2014.66	424.45
2014.9	449.592
2015.15	442.027
2015.4	450.497
2015.64	441.177
2015.89	456.279
2016.14	448.827
2016.39	459.107
2016.63	431.997
2016.88	437.025
2017.13	438.973
2017.37	435.19
2017.62	433.246
2017.87	431.267
2018.11	434.891
2018.36	437.54
2018.61	425.158
2018.86	445.64
2019.1	454.854
2019.35	429.363
2019.6	429.207
2019.84	441.304
2020.09	436.56
2020.34	428.099
2020.58	430.902
2020.83	454.299
2021.08	422.442
2021.33	417.786
2021.57	432.803
2021.82	432.808
2022.07	448.713
2022.31	431.816
2022.56	438.312
2022.81	431.676
2023.05	452.164
2023.3	437.065
2023.55	437.908
2023.8	436.877
2024.04	442.393
2024.29	440.428
2024.54	439.409
2024.78	422.446
2025.03	424.168
2025.27	433.364
2025.52	428.56
2025.77	439.632
2026.02	426.452
2026.26	440.291
2026.51	423.55
2026.76	421.848
2027	433.329
2027.25	426.195
2027.5	434.055
2027.74	418.387
2027.99	426.754
2028.23	431.156
2028.48	448.5
2028.73	424.898
2028.98	412.047
2029.22	441.721
2029.47	439.885
2029.72	442.181
2029.96	435.786
2030.21	418.495
2030.45	428.271
2030.7	435.712
2030.95	426.032
2031.19	422.622
2031.44	435.946
2031.69	430.284
2031.93	426.558
2032.18	430.306
2032.43	422.971
2032.67	434.321
2032.92	428.883
2033.17	443.981
2033.41	418.868
2033.66	432.981
2033.91	434.051
2034.15	426.636
2034.4	419.869
2034.64	440.132
2034.89	434.078
2035.14	433.033
2035.38	424.825
2035.63	424.044
2035.87	422.426
2036.12	440.505
2036.37	422.968
2036.61	421.082
2036.86	432.079
2037.11	431.16
2037.35	421.92
2037.6	440.62
2037.84	430.316
2038.09	436.821
2038.34	440.508
2038.58	428.297
2038.83	417.951
2039.08	434.705
2039.32	432.768
2039.57	415.882
2039.81	425.152
2040.06	428.793
2040.31	423.071
2040.55	433.22
2040.8	418.182
2041.04	439.534
2041.29	446.904
2041.54	425.384
2041.78	430.945
2042.03	421.599
2042.27	421.543
2042.52	428.951
2042.77	422.339
2043.01	429.762
2043.26	412.061
2043.5	441.919
2043.75	440.18
2044	438.499
2044.24	425.629
2044.49	427.566
2044.73	433.145
2044.98	419.052
2045.23	412.336
2045.47	435.249
2045.72	435.798
2045.96	435.006
2046.21	417.892
2046.45	436.373
2046.7	422.906
2046.95	440.239
2047.19	433.377
2047.44	433.399
2047.68	436.071
2047.93	424.529
2048.17	422.576
2048.42	417.004
2048.67	424.487
2048.91	431.978
2049.16	411.513
2049.4	418.155
2049.65	413.585
2049.89	437.039
2050.14	412.001
2050.39	434.53
2050.63	434.66
2050.88	428.194
2051.12	440.366
2051.37	432.867
2051.61	429.979
2051.86	423.317
2052.11	426.118
2052.35	413.058
2052.6	434.606
2052.84	415.016
2053.09	416.005
2053.33	424.485
2053.58	434.854
2053.82	434.972
2054.07	431.447
2054.31	430.598
2054.56	412.888
2054.8	435.357
2055.05	419.448
2055.3	431.589
2055.54	408.178
2055.79	424.914
2056.03	422.998
2056.28	429.526
2056.52	431.357
2056.77	428.509
2057.01	419.137
2057.26	416.334
2057.5	428.51
2057.75	420.134
2058	433.281
2058.24	422.131
2058.49	400.69
2058.73	420.44
2058.98	431.77
2059.22	424.379
2059.47	410.41
2059.71	418.865
2059.96	431.999
2060.2	418.905
2060.45	424.472
2060.69	420.666
2060.94	428.11
2061.18	442.206
2061.43	431.042
2061.67	416.112
2061.92	430.178
2062.16	430.192
2062.41	433.02
2062.65	417.137
2062.9	439.662
2063.14	404.138
2063.39	425.763
2063.63	431.462
2063.88	410.909
2064.12	420.332
2064.37	421.31
2064.61	437.284
2064.86	428.903
2065.1	429.909
2065.35	423.451
2065.59	417.958
2065.84	418.08
2066.08	421.004
2066.33	420.155
2066.57	410.828
2066.82	432.448
2067.06	413.717
2067.31	415.648
2067.55	428.839
2067.8	424.204
2068.04	426.159
2068.29	429.043
2068.53	424.395
2068.78	415.026
2069.02	427.314
2069.27	417.923
2069.51	429.145
2069.76	413.048
2070	413.807
2070.25	427.826
2070.49	409.087
2070.73	422.42
2070.98	410.421
2071.22	411.583
2071.47	408.735
2071.71	409.555
2071.96	417.57
2072.2	416.806
2072.45	437.496
2072.69	413.927
2072.94	421.45
2073.18	419.534
2073.43	419.536
2073.67	431.756
2073.92	430.838
2074.16	426.149
2074.4	429.004
2074.65	413.047
2074.89	418.782
2075.14	415.131
2075.38	409.627
2075.63	443.763
2075.87	427.969
2076.12	415.861
2076.36	416.888
2076.6	422.567
2076.85	398.989
2077.09	434.818
2077.34	426.237
2077.58	416.706
2077.83	425.001
2078.07	415.525
2078.31	422.182
2078.56	406.243
2078.8	421.378
2079.05	414.816
2079.29	394.121
2079.54	429.144
2079.78	432.187
2080.03	397.333
2080.27	416.301
2080.51	427.712
2080.76	416.433
2081	410.773
2081.25	420.183
2081.49	405.983
2081.74	408.809
2081.98	426.76
2082.22	427.692
2082.47	423.951
2082.71	438.162
2082.96	420.236
2083.2	407.019
2083.45	427.806
2083.69	432.516
2083.93	425.888
2084.18	407.938
2084.42	422.122
2084.67	423.066
2084.91	427.801
2085.15	418.369
2085.4	421.212
2085.64	415.544
2085.89	421.22
2086.13	421.254
2086.37	432.713
2086.62	422.456
2086.86	430.127
2087.11	419.769
2087.35	426.448
2087.59	418.008
2087.84	431.303
2088.08	430.364
2088.32	411.447
2088.57	423.766
2088.81	416.217
2089.06	410.565
2089.3	428.574
2089.54	413.499
2089.79	421.149
2090.03	404.219
2090.28	415.629
2090.52	409.971
2090.76	428.952
2091.01	403.415
2091.25	414.836
2091.5	421.521
2091.74	399.771
2091.98	404.621
2092.23	410.435
2092.47	423.855
2092.72	418.305
2092.96	430.798
2093.2	427.123
2093.45	425.336
2093.69	415.951
2093.93	417.009
2094.18	425.656
2094.42	422.89
2094.66	412.461
2094.91	414.365
2095.15	409.595
2095.39	410.52
2095.64	419.958
2095.88	427.485
2096.13	428.377
2096.37	423.58
2096.61	419.751
2096.86	414.039
2097.1	416.876
2097.34	437.718
2097.59	423.388
2097.83	411.912
2098.07	425.172
2098.32	419.456
2098.56	419.439
2098.8	423.177
2099.05	415.589
2099.29	408.938
2099.53	414.611
2099.78	412.698
2100.02	417.439
2100.27	408.905
2100.51	422.208
2100.75	423.185
2101	411.842
2101.24	412.898
2101.48	411.085
2101.73	417.789
2101.97	418.77
2102.21	408.326
2102.45	418.767
2102.7	414.974
2102.94	421.601
2103.18	396.845
2103.43	409.108
2103.67	416.659
2103.92	413.803
2104.16	411.884
2104.4	410.946
2104.64	419.53
2104.89	417.701
2105.13	432.013
2105.37	408.334
2105.62	406.511
2105.86	391.406
2106.1	421.897
2106.35	409.593
2106.59	417.243
2106.83	413.467
2107.08	417.292
2107.32	411.63
2107.56	423.057
2107.8	418.26
2108.05	412.479
2108.29	391.468
2108.53	418.911
2108.78	412.151
2109.02	402.57
2109.26	416.782
2109.51	425.349
2109.75	424.514
2109.99	406.557
2110.23	420.815
2110.48	411.32
2110.72	406.573
2110.96	414.175
2111.21	419.88
2111.45	416.079
2111.69	419.853
2111.93	425.497
2112.18	433.053
2112.42	395.995
2112.66	389.349
2112.91	419.783
2113.15	412.232
2113.39	411.336
2113.63	403.841
2113.88	430.54
2114.12	411.577
2114.36	402.051
2114.61	420.075
2114.85	416.268
2115.09	416.291
2115.33	407.751
2115.58	406.782
2115.82	397.247
2116.06	424.775
2116.31	402.889
2116.55	404.709
2116.79	408.432
2117.03	407.447
2117.28	415.027
2117.52	396.021
2117.76	421.681
2118	406.448
2118.25	416.829
2118.49	408.219
2118.73	420.449
2118.97	404.198
2119.22	406.005
2119.46	402.128
2119.7	412.473
2119.94	420.921
2120.19	406.63
2120.43	405.626
2120.67	412.24
2120.91	403.728
2121.16	405.695
2121.4	416.163
2121.64	422.898
2121.88	415.421
2122.13	407.931
2122.37	408.969
2122.61	420.437
2122.85	411.016
2123.1	414.873
2123.34	394.99
2123.58	407.369
2123.82	418.781
2124.07	410.207
2124.31	423.453
2124.55	409.147
2124.79	405.247
2125.03	408.881
2125.28	391.621
2125.52	403.766
2125.76	413.101
2126	424.338
2126.25	401.495
2126.49	410.856
2126.73	414.556
2126.97	405.956
2127.21	397.358
2127.46	404.841
2127.7	422.773
2127.94	414.245
2128.18	403.823
2128.43	404.728
2128.67	414.157
2128.91	396.202
2129.15	398.098
2129.39	414.154
2129.64	412.233
2129.88	415.988
2130.12	399.906
2130.36	405.559
2130.6	404.593
2130.85	413.069
2131.09	398.859
2131.33	406.37
2131.57	416.702
2131.81	411.916
2132.06	412.805
2132.3	417.488
2132.54	408.946
2132.78	420.194
2133.02	410.681
2133.27	419.136
2133.51	399.318
2133.75	419.155
2133.99	407.85
2134.23	417.295
2134.48	400.33
2134.72	415.446
2134.96	417.326
2135.2	414.485
2135.44	396.546
2135.68	399.36
2135.93	406.871
2136.17	414.35
2136.41	404.793
2136.65	413.158
2136.89	421.583
2137.14	393.323
2137.38	399.943
2137.62	414.096
2137.86	413.202
2138.1	410.467
2138.34	417.04
2138.59	411.265
2138.83	423.433
2139.07	423.515
2139.31	395.366
2139.55	409.612
2139.79	412.236
2140.03	401.713
2140.28	412.01
2140.52	420.429
2140.76	407.189
2141	397.728
2141.24	405.234
2141.49	408.03
2141.73	406.155
2141.97	407.016
2142.21	401.278
2142.45	388.067
2142.69	407.838
2142.93	388.151
2143.18	410.815
2143.42	413.046
2143.66	402.519
2143.9	410.893
2144.14	421.231
2144.38	403.457
2144.62	397.023
2144.87	394.344
2145.11	412.3
2145.35	406.421
2145.59	423.383
2145.83	398.019
2146.07	416.803
2146.31	420.532
2146.55	416.738
2146.8	409.186
2147.04	414.796
2147.28	410.997
2147.52	401.544
2147.76	401.493
2148	401.445
2148.24	401.405
2148.48	412.632
2148.73	421.977
2148.97	413.473
2149.21	423.739
2149.45	424.592
2149.69	413.231
2149.93	405.554
2150.17	410.151
2150.42	408.164
2150.66	408.083
2150.9	399.608
2151.14	400.541
2151.38	413.701
2151.62	403.462
2151.86	412.884
2152.1	402.637
2152.34	411.109
2152.58	398.978
2152.83	402.671
2153.07	420.433
2153.31	414.732
2153.55	397.792
2153.79	402.447
2154.03	390.229
2154.27	403.284
2154.51	414.428
2154.75	390.874
2154.99	416.919
2155.24	395.231
2155.48	390.376
2155.72	402.408
2155.96	404.158
2156.2	393.776
2156.44	390.9
2156.68	400.203
2156.92	410.464
2157.16	399.246
2157.4	407.659
2157.64	408.626
2157.89	406.819
2158.13	394.749
2158.37	411.641
2158.61	392.033
2158.85	406.989
2159.09	398.561
2159.33	402.267
2159.57	405.022
2159.81	404.024
2160.05	395.536
2160.29	404.779
2160.53	404.679
2160.77	397.123
2161.01	398.913
2161.25	415.669
2161.5	408.184
2161.74	409.081
2161.98	410.91
2162.22	410.898
2162.46	400.637
2162.7	402.508
2162.94	401.571
2163.18	408.067
2163.42	412.679
2163.66	411.703
2163.9	397.676
2164.14	420.944
2164.38	402.251
2164.62	404.029
2164.86	403.924
2165.11	409.451
2165.35	402.017
2165.59	400.197
2165.83	397.409
2166.07	412.328
2166.31	397.426
2166.55	412.29
2166.79	415.042
2167.03	413.119
2167.27	399.999
2167.51	402.735
2167.75	407.298
2167.99	403.454
2168.23	413.49
2168.47	381.692
2168.71	399.298
2168.95	397.432
2169.19	405.826
2169.43	411.463
2169.67	404.111
2169.91	409.812
2170.15	391.347
2170.39	411.055
2170.63	394.39
2170.87	412.123
2171.11	413.029
2171.35	403.639
2171.59	410.121
2171.83	403.443
2172.07	402.228
2172.31	405.798
2172.56	397.357
2172.79	398.22
2173.04	402.813
2173.28	387.939
2173.51	404.659
2173.76	394.437
2174	404.689
2174.24	403.816
2174.48	414.08
2174.72	413.173
2174.96	403.888
2175.2	416.9
2175.44	403.883
2175.68	402.001
2175.92	399.19
2176.16	399.179
2176.4	397.302
2176.64	405.634
2176.88	398.14
2177.12	394.402
2177.36	395.335
2177.6	404.638
2177.84	411.151
2178.08	386.993
2178.32	396.301
2178.55	398.123
2178.8	391.517
2179.03	412.795
2179.28	391.432
2179.52	394.239
2179.75	384.035
2180	398.898
2180.23	398.9
2180.47	389.615
2180.71	399.819
2180.95	401.653
2181.19	409.986
2181.43	406.264
2181.67	399.743
2181.91	386.703
2182.15	399.655
2182.39	390.356
2182.63	400.514
2182.87	406.045
2183.11	410.648
2183.35	398.512
2183.59	380.805
2183.83	406.653
2184.07	412.129
2184.31	410.213
2184.55	379.578
2184.79	393.461
2185.03	384.212
2185.27	396.3
2185.51	371.312
2185.75	394.515
2185.99	408.472
2186.23	400.201
2186.47	407.696
2186.7	394.788
2186.95	398.617
2187.18	404.31
2187.42	390.51
2187.66	404.557
2187.9	390.718
2188.14	392.601
2188.38	390.705
2188.62	399.925
2188.86	394.279
2189.1	398.837
2189.34	401.527
2189.58	397.707
2189.82	400.36
2190.06	404.887
2190.3	398.346
2190.54	387.209
2190.78	393.71
2191.01	392.821
2191.25	384.513
2191.49	392.861
2191.73	384.543
2191.97	410.543
2192.21	395.746
2192.45	407.842
2192.69	388.401
2192.93	391.223
2193.17	377.376
2193.41	399.718
2193.65	385.866
2193.89	400.811
2194.13	394.487
2194.36	390.968
2194.6	405.973
2194.84	403.261
2195.08	400.453
2195.32	380.889
2195.56	398.512
2195.8	388.23
2196.04	371.425
2196.28	404.76
2196.52	396.264
2196.76	393.353
2197	383.978
2197.23	409.886
2197.47	391.267
2197.71	393.994
2197.95	398.637
2198.19	377.319
2198.43	392.206
2198.67	398.8
2198.91	384.056
2199.15	398.102
2199.38	395.459
2199.62	377
2199.86	393.858
2200.1	392.134
2200.34	406.281
2200.58	399.992
2200.82	407.633
2201.06	398.491
2201.3	400.478
2201.54	386.603
2201.77	389.239
2202.01	386.047
2202.25	396.365
2202.49	380.956
2202.73	392.341
2202.97	396.752
2203.21	392.42
2203.45	383.012
2203.68	388.513
2203.92	402.819
2204.16	396.669
2204.4	392.449
2204.64	398.948
2204.88	389.695
2205.12	399.68
2205.36	395.598
2205.59	403.658
2205.83	403.433
2206.07	387.57
2206.31	396.88
2206.55	396.046
2206.79	399.784
2207.03	386.622
2207.26	402.455
2207.5	397.87
2207.74	383.069
2207.98	391.525
2208.22	378.589
2208.46	395.426
2208.7	399.235
2208.93	402.105
2209.17	388.201
2209.41	396.627
2209.65	405.969
2209.89	392.006
2210.13	371.51
2210.36	401.33
2210.6	393.004
2210.84	392.133
2211.08	384.747
2211.32	387.61
2211.56	396.995
2211.8	390.541
2212.03	400.888
2212.27	388.855
2212.51	396.381
2212.75	405.744
2212.99	389.862
2213.23	399.153
2213.46	400.051
2213.7	396.261
2213.94	382.21
2214.18	395.288
2214.42	397.237
2214.66	388.077
2214.89	387.301
2215.13	388.281
2215.37	398.588
2215.61	371.544
2215.85	379.035
2216.08	377.181
2216.32	372.519
2216.56	382.788
2216.8	394.919
2217.04	382.768
2217.28	391.159
2217.51	403.299
2217.75	385.58
2217.99	390.27
2218.23	402.411
2218.47	388.406
2218.7	392.162
2218.94	390.338
2219.18	402.539
2219.42	389.538
2219.66	382.142
2219.9	383.123
2220.13	392.521
2220.37	380.415
2220.61	384.149
2220.85	379.463
2221.09	388.799
2221.32	408.386
2221.56	381.2
2221.8	367.091
2222.04	396.894
2222.27	390.287
2222.51	396.775
2222.75	399.569
2222.99	385.599
2223.23	387.527
2223.46	379.185
2223.7	380.189
2223.94	388.693
2224.18	396.288
2224.42	374.916
2224.65	396.536
2224.89	393.834
2225.13	384.571
2225.37	372.495
2225.6	394.12
2225.84	391.43
2226.08	401.825
2226.32	402.851
2226.56	393.575
2226.79	403.949
2227.03	410.602
2227.27	383.502
2227.51	392.944
2227.74	377.993
2227.98	407.095
2228.22	401.462
2228.46	387.371
2228.69	407.974
2228.93	391.074
2229.17	389.183
2229.41	397.603
2229.64	378.858
2229.88	380.802
2230.12	387.472
2230.36	394.139
2230.6	382.956
2230.83	387.727
2231.07	381.241
2231.31	403.861
2231.55	390.813
2231.78	387.157
2232.02	399.451
2232.26	362.887
2232.5	395.862
2232.73	380.903
2232.97	383.799
2233.21	395.164
2233.45	399.003
2233.68	393.436
2233.92	385.988
2234.16	389.813
2234.39	395.509
2234.63	395.492
2234.87	371.935
2235.11	391.657
2235.34	387.827
2235.58	389.573
2235.82	383.835
2236.06	385.729
2236.29	381.048
2236.53	368.847
2236.77	397.089
2237	381.12
2237.24	399.958
2237.48	380.3
2237.72	377.563
2237.95	392.777
2238.19	379.762
2238.43	392.162
2238.67	392.277
2238.9	394.271
2239.14	383.081
2239.38	384.169
2239.61	387.031
2239.85	356.814
2240.09	381.294
2240.33	395.336
2240.56	396.186
2240.8	378.233
2241.04	386.889
2241.27	387.042
2241.51	392.733
2241.75	378.61
2241.99	380.532
2242.22	383.392
2242.46	393.813
2242.7	391.973
2242.93	389.196
2243.17	374.103
2243.41	395.806
2243.64	383.487
2243.88	383.433
2244.12	392.845
2244.36	390.951
2244.59	390.025
2244.83	371.212
2245.07	384.545
2245.3	377.152
2245.54	386.745
2245.78	379.28
2246.01	382.197
2246.25	363.372
2246.49	396.553
2246.72	385.275
2246.96	383.426
2247.2	393.898
2247.43	372.198
2247.67	375.08
2247.91	392.138
2248.14	394.977
2248.38	378.872
2248.62	359.926
2248.85	384.512
2249.09	381.657
2249.33	388.263
2249.56	378.79
2249.8	397.788
2250.04	373.234
2250.27	384.592
2250.51	390.226
2250.75	374.069
2250.98	380.618
2251.22	373.911
2251.46	376.683
2251.69	383.251
2251.93	376.616
2252.17	367.181
2252.4	376.682
2252.64	399.443
2252.88	372.098
2253.11	364.653
2253.35	388.526
2253.59	375.421
2253.82	386.907
2254.06	391.743
2254.3	387.082
2254.53	385.266
2254.77	372.05
2255.01	388.181
2255.24	389.095
2255.48	381.534
2255.72	382.49
2255.95	377.768
2256.19	388.22
2256.42	402.518
2256.66	378.884
2256.9	371.365
2257.13	392.308
2257.37	380.041
2257.61	389.601
2257.84	381.123
2258.08	382.119
2258.32	364.104
2258.55	380.268
2258.79	374.6
2259.02	386.989
2259.26	365.201
2259.5	378.562
2259.73	387.156
2259.97	379.591
2260.2	374.888
2260.44	368.28
2260.68	378.778
2260.91	378.819
2261.15	383.638
2261.39	379.961
2261.62	378.145
2261.86	384.828
2262.1	366.777
2262.33	381.087
2262.57	399.207
2262.8	387.847
2263.04	411.736
2263.28	373.743
2263.51	387.184
2263.75	381.592
2263.98	388.404
2264.22	363.772
2264.46	376.317
2264.69	379.317
2264.93	363.206
2265.16	378.576
2265.4	391.075
2265.64	388.285
2265.87	383.527
2266.11	387.369
2266.34	384.477
2266.58	382.487
2266.81	394.813
2267.05	390.9
2267.29	379.366
2267.52	357.362
2267.76	380.21
2267.99	366.799
2268.23	378.166
2268.47	374.292
2268.7	391.436
2268.94	383.826
2269.17	372.44
2269.41	374.433
2269.65	374.538
2269.88	373.697
2270.12	390.044
2270.35	359.625
2270.59	388.405
2270.82	390.397
2271.06	373.25
2271.3	378.116
2271.53	362.892
2271.77	382.068
2272	372.564
2272.24	372.64
2272.47	361.204
2272.71	363.13
2272.95	379.417
2273.18	384.226
2273.42	387.124
2273.65	374.71
2273.89	389.09
2274.12	385.289
2274.36	370.957
2274.6	371.937
2274.83	384.405
2275.07	391.132
2275.3	386.379
2275.54	392.15
2275.77	376.861
2276.01	384.513
2276.24	392.237
2276.48	389.463
2276.72	363.698
2276.95	383.908
2277.18	386.867
2277.42	377.372
2277.66	381.339
2277.89	371.895
2278.13	362.449
2278.36	377.974
2278.6	383.799
2278.83	385.754
2279.07	382.882
2279.3	383.833
2279.54	371.328
2279.78	380.867
2280.01	371.101
2280.24	372.915
2280.48	384.329
2280.72	380.407
2280.95	370.749
2281.19	383.162
2281.42	372.584
2281.66	378.292
2281.89	385.928
2282.13	392.685
2282.36	373.547
2282.6	363.06
2282.83	372.727
2283.07	382.412
2283.3	375.79
2283.54	376.863
2283.77	380.859
2284.01	371.438
2284.24	361.991
2284.48	373.706
2284.71	379.582
2284.95	361.357
2285.19	367.219
2285.42	380.779
2285.65	370.228
2285.89	365.432
2286.12	372.093
2286.36	387.344
2286.59	375.795
2286.83	369.095
2287.06	361.465
2287.3	392.441
2287.54	363.714
2287.77	371.478
2288	368.635
2288.24	370.669
2288.47	382.207
2288.71	386.007
2288.94	374.396
2289.18	390.702
2289.41	374.222
2289.65	369.273
2289.88	373.96
2290.12	364.192
2290.35	372.797
2290.59	376.609
2290.82	378.538
2291.06	381.435
2291.29	370.92
2291.53	362.368
2291.76	369.23
2292	377.018
2292.23	367.464
2292.47	379.086
2292.7	372.424
2292.94	370.592
2293.17	378.387
2293.41	373.641
2293.64	380.448
2293.88	374.713
2294.11	380.524
2294.34	379.536
2294.58	353.475
2294.81	364.987
2295.05	381.299
2295.28	372.58
2295.52	366.754
2295.75	362.853
2295.99	370.51
2296.22	369.507
2296.46	375.199
2296.69	378.897
2296.93	369.26
2297.16	354.863
2297.39	352.032
2297.63	360.765
2297.86	357.001
2298.1	379.256
2298.33	368.795
2298.57	379.481
2298.8	382.432
2299.04	384.441
2299.27	370.084
2299.51	362.455
2299.74	363.489
2299.97	357.742
2300.21	375.105
2300.44	370.288
2300.68	374.142
2300.91	379.015
2301.15	383.91
2301.38	379.139
2301.61	371.466
2301.85	366.67
2302.08	380.197
2302.32	376.329
2302.55	388.846
2302.79	360.836
2303.02	367.605
2303.25	358.915
2303.49	373.376
2303.72	356.003
2303.96	374.351
2304.19	364.741
2304.43	363.843
2304.66	386.114
2304.89	386.162
2305.13	380.429
2305.36	354.425
2305.6	370.894
2305.83	355.459
2306.07	369.02
2306.3	362.308
2306.53	375.889
2306.77	366.245
2307	357.558
2307.24	370.123
2307.47	368.182
2307.7	367.186
2307.94	375.841
2308.17	378.716
2308.41	379.651
2308.64	370.928
2308.87	370.932
2309.11	365.157
2309.34	370.049
2309.58	369.151
2309.81	359.581
2310.04	368.404
2310.28	362.685
2310.51	377.236
2310.75	342.424
2310.98	384.016
2311.21	357.863
2311.45	364.553
2311.68	374.978
2311.92	352.523
2312.15	369.782
2312.38	372.588
2312.62	363.85
2312.85	377.3
2313.08	374.36
2313.32	358.92
2313.55	364.757
2313.79	374.527
2314.02	367.919
2314.25	340.02
2314.49	365.249
2314.72	370.199
2314.95	357.774
2315.19	360.802
2315.42	373.446
2315.66	360.777
2315.89	357.789
2316.12	382.857
2316.36	379.858
2316.59	365.163
2316.82	354.439
2317.06	370.807
2317.29	363.079
2317.52	368.896
2317.76	368.922
2317.99	369.026
2318.23	375.86
2318.46	374.769
2318.69	361.191
2318.93	361.147
2319.16	350.474
2319.39	381.306
2319.63	388.009
2319.86	369.635
2320.09	377.332
2320.33	356.109
2320.56	360.948
2320.79	385.074
2321.03	357.129
2321.26	358.152
2321.5	369.801
2321.73	365.048
2321.96	354.509
2322.2	368.14
2322.43	369.227
2322.66	374.161
2322.9	380.004
2323.13	359.69
2323.36	367.445
2323.6	372.311
2323.83	372.338
2324.06	378.17
2324.3	381.087
2324.53	358.835
2324.76	378.16
2325	380.971
2325.23	371.192
2325.46	377.824
2325.7	374.842
2325.93	389.256
2326.16	390.147
2326.4	399.723
2326.63	390.955
2326.86	398.592
2327.09	412.978
2327.33	419.642
2327.56	454.262
2327.79	492.76
2328.03	525.453
2328.26	507.085
2328.49	490.729
2328.73	470.496
2328.96	440.632
2329.19	415.491
2329.43	415.413
2329.66	374.848
2329.89	374.816
2330.13	390.213
2330.36	389.306
2330.59	390.245
2330.82	377.696
2331.06	370.923
2331.29	376.691
2331.52	378.648
2331.76	377.745
2331.99	372.032
2332.22	348.999
2332.46	355.65
2332.69	352.693
2332.92	367.09
2333.16	361.266
2333.39	363.146
2333.62	369.842
2333.85	365.954
2334.09	357.261
2334.32	358.177
2334.55	350.422
2334.79	370.534
2335.02	367.597
2335.25	360.83
2335.48	357.936
2335.72	374.267
2335.95	369.477
2336.18	361.813
2336.41	341.609
2336.65	353.116
2336.88	356.943
2337.11	359.815
2337.34	363.651
2337.58	362.675
2337.81	353.049
2338.04	356.868
2338.28	348.195
2338.51	351.066
2338.74	362.587
2338.97	378.919
2339.21	353.946
2339.44	364.532
2339.67	364.534
2339.91	367.41
2340.14	357.773
2340.37	367.342
2340.6	365.361
2340.84	372.987
2341.07	358.5
2341.3	359.362
2341.53	354.45
2341.77	361.034
2342	358.055
2342.23	355.116
2342.46	375.197
2342.7	352.132
2342.93	386.608
2343.16	362.623
2343.39	361.661
2343.63	339.62
2343.86	354.945
2344.09	364.519
2344.32	358.777
2344.56	353.054
2344.79	350.194
2345.02	368.402
2345.25	350.168
2345.49	366.428
2345.72	360.622
2345.95	364.363
2346.18	359.509
2346.41	354.656
2346.65	349.846
2346.88	359.406
2347.11	351.731
2347.34	348.83
2347.58	350.721
2347.81	357.419
2348.04	350.729
2348.27	341.18
2348.5	356.547
2348.74	359.453
2348.97	353.709
2349.2	372.831
2349.43	363.198
2349.67	364.003
2349.9	353.326
2350.13	356.019
2350.36	367.276
2350.59	364.144
2350.83	362.717
2351.06	340.059
2351.29	364.434
2351.52	366.654
2351.75	356.51
2351.99	355.778
2352.22	353.472
2352.45	346.826
2352.68	354.51
2352.91	355.25
2353.15	380.661
2353.38	352.772
2353.61	354.773
2353.84	348.076
2354.07	355.632
2354.31	367.07
2354.54	372.774
2354.77	358.581
2355	376.777
2355.23	366.287
2355.47	354.833
2355.7	350.994
2355.93	365.254
2356.16	342.353
2356.39	373.725
2356.63	369.8
2356.86	362.013
2357.09	352.366
2357.32	357.052
2357.55	360.797
2357.79	355.037
2358.02	355.938
2358.25	362.544
2358.48	345.402
2358.71	338.726
2358.94	353.858
2359.18	352.875
2359.41	358.553
2359.64	361.385
2359.87	362.294
2360.1	353.689
2360.33	347.919
2360.57	359.231
2360.8	348.712
2361.03	356.224
2361.26	338.121
2361.49	368.387
2361.72	352.181
2361.96	345.46
2362.19	354.849
2362.42	352.857
2362.65	363.184
2362.88	357.423
2363.11	359.247
2363.34	351.614
2363.58	357.24
2363.81	360.04
2364.04	357.165
2364.27	357.125
2364.5	365.59
2364.73	360.809
2364.97	356.03
