#Acq. time (s)=	30
#Accumulations=	2
#Range (cm-¹)=	1200...2365
#Windows=	3
#Auto scanning=	Off
#Autofocus=	Off
#Macrospot=	Off
#AutoExposure=	Off
#Spike filter=	Multiple accum.
#Delay time (s)=	2
#Binning=	1
#Readout mode=	Signal
#DeNoise=	Off
#ICS correction=	On
#Dark correction=	Off
#Inst. Process=	Off
#Detector Gain=	Best Dynamic
#Detector ADC=	50 kHz HS
#Detector temperature (°C)=	-60.09
#Instrument=	LabRAM HR Evol
#Detector=	SIN-EM FIVIS
#Objective=	x100_VIS
#Grating=	1800 (450-850nm)
#ND Filter=	100%
#Laser=	532nm_Edge
#Hole=	49.98
#Temperature=	0
#Range=	Visible
#StageXY=	75x50mm Scan+
#StageZ=	Z motor
#X (µm)=	0
#Y (µm)=	0
#Z (µm)=	-250.4
#Full time(mm:ss)=	3:18
#Project=	21_11_04
#Sample=	BU19w
#Site=	
#Title=	BU19w-E-FF11b-FI03-V_1800 (450-850nm)_532nm_Edge_100%_x100_VIS_H50um_30sX2
#Remark=	
#Date=	04.11.2021 18:43
#Acquired=	04.11.2021 18:43:09
1202.73	19.9219
1203.01	17.7598
1203.29	17.744
1203.57	16.6656
1203.85	20.9583
1204.12	17.74
1204.4	15.5878
1204.68	18.8073
1204.96	17.7249
1205.24	17.7174
1205.51	17.7087
1205.79	20.9186
1206.07	18.7644
1206.35	16.612
1206.63	19.8186
1206.9	17.6705
1207.18	16.5958
1207.46	17.6628
1207.74	16.5896
1208.01	19.7953
1208.29	19.7894
1208.57	20.8537
1208.85	19.7805
1209.13	20.8484
1209.4	21.9162
1209.68	21.9129
1209.96	18.7001
1210.23	20.8285
1210.51	17.6179
1210.79	19.7465
1211.07	15.4717
1211.35	17.5996
1211.62	20.7913
1211.9	18.6529
1212.18	18.6477
1212.46	19.7074
1212.73	19.7027
1213.01	17.5699
1213.29	17.5667
1213.57	20.7595
1213.84	17.5664
1214.12	16.5022
1214.4	22.8902
1214.68	21.8249
1214.95	19.6948
1215.23	22.8872
1215.51	18.6257
1215.78	20.7478
1216.06	18.6122
1216.34	20.7306
1216.62	18.5981
1216.9	19.6551
1217.17	20.7114
1217.45	18.5825
1217.73	20.7016
1218	17.5127
1218.28	19.6325
1218.56	17.5087
1218.84	21.7513
1219.11	20.6884
1219.39	16.4413
1219.67	21.7432
1219.94	20.683
1220.22	20.682
1220.5	19.6203
1220.77	15.3752
1221.05	21.7343
1221.33	19.6091
1221.61	23.8404
1221.88	18.5346
1222.16	20.6427
1222.44	21.6901
1222.72	22.7385
1222.99	23.7844
1223.27	23.7769
1223.55	18.4859
1223.82	20.5925
1224.1	21.6446
1224.38	19.5292
1224.65	22.6947
1224.93	21.6399
1225.21	20.5876
1225.49	20.5898
1225.76	21.6465
1226.04	27.9799
1226.32	23.7533
1226.59	23.7489
1226.87	21.6302
1227.15	23.7221
1227.42	24.7572
1227.7	20.5313
1227.98	24.7234
1228.25	23.6513
1228.53	22.5918
1228.81	21.5714
1229.08	22.676
1229.36	29.0127
1229.64	21.6069
1229.91	24.7541
1230.19	25.8062
1230.47	22.6407
1230.74	24.708
1231.02	20.4901
1231.3	24.6946
1231.57	19.44
1231.85	25.7423
1232.13	24.6903
1232.4	24.6893
1232.68	24.687
1232.96	22.5847
1233.23	25.7366
1233.51	21.5365
1233.79	22.5891
1234.06	27.8458
1234.34	23.6469
1234.62	27.8536
1234.89	21.5489
1235.17	24.7054
1235.45	25.7594
1235.72	19.4516
1236	19.4498
1236.27	19.447
1236.55	24.6987
1236.83	22.5897
1237.1	23.632
1237.38	24.6735
1237.66	19.4169
1237.93	22.5572
1238.21	24.6473
1238.49	21.4966
1238.76	23.5903
1239.04	22.5392
1239.31	22.5373
1239.59	24.6327
1239.87	20.4395
1240.14	23.5845
1240.42	20.4408
1240.7	23.5869
1240.97	23.5868
1241.25	24.6303
1241.52	24.6264
1241.8	21.4816
1242.08	24.6274
1242.35	25.6768
1242.63	20.441
1242.91	22.5382
1243.18	24.6338
1243.46	23.587
1243.74	24.6364
1244.01	22.5382
1244.29	24.633
1244.56	23.5812
1244.84	25.6704
1245.11	22.5209
1245.39	21.4652
1245.67	23.5538
1245.94	23.5522
1246.22	24.5977
1246.49	25.6449
1246.77	27.7366
1247.05	25.6416
1247.32	24.594
1247.6	26.6806
1247.87	25.6256
1248.15	27.7152
1248.43	30.8531
1248.7	28.7638
1248.98	25.626
1249.25	26.6701
1249.53	24.5783
1249.8	24.576
1250.08	27.7062
1250.36	27.6995
1250.63	25.6037
1250.91	23.5093
1251.18	22.4606
1251.46	22.4566
1251.74	28.7182
1252.01	28.7129
1252.29	22.4438
1252.56	28.7014
1252.84	29.7409
1253.11	25.5658
1253.39	24.5246
1253.66	30.7917
1253.94	26.622
1254.22	25.5816
1254.49	28.7151
1254.77	26.628
1255.04	25.5846
1255.32	27.6722
1255.59	28.7167
1255.87	25.5856
1256.14	28.7221
1256.42	26.6356
1256.7	27.6799
1256.97	28.7211
1257.25	32.8952
1257.52	34.981
1257.8	33.934
1258.07	34.9752
1258.35	27.6608
1258.62	31.8325
1258.9	30.7915
1259.18	29.7495
1259.45	36.0296
1259.73	29.7607
1260	34.9745
1260.28	34.9621
1260.55	33.9087
1260.83	38.0747
1261.1	38.0702
1261.38	41.2268
1261.65	48.5849
1261.93	50.7596
1262.2	55.9104
1262.48	64.1905
1262.75	66.1964
1263.03	75.6454
1263.31	70.4863
1263.58	69.4919
1263.85	61.2107
1264.13	54.8931
1264.41	45.4651
1264.68	41.2823
1264.96	39.1943
1265.23	39.1833
1265.51	37.092
1265.78	31.8692
1266.06	29.7827
1266.33	33.9684
1266.61	31.8848
1266.88	28.756
1267.16	31.9022
1267.43	32.9581
1267.71	32.9705
1267.98	31.9394
1268.26	27.7567
1268.53	30.9042
1268.81	29.861
1269.08	30.9104
1269.36	35.0949
1269.63	35.0855
1269.91	34.029
1270.18	32.975
1270.46	32.9679
1270.73	29.8248
1271.01	29.8221
1271.28	30.8674
1271.56	31.9194
1271.83	32.9747
1272.1	35.0802
1272.38	27.759
1272.65	33.0049
1272.93	27.7735
1273.2	33.0225
1273.48	30.934
1273.75	28.8429
1274.03	33.0414
1274.3	34.0902
1274.58	29.894
1274.85	35.1408
1275.13	33.0476
1275.4	32.0039
1275.68	32.0108
1275.95	32.0175
1276.22	39.3732
1276.5	36.2291
1276.78	33.0856
1277.05	41.4984
1277.32	40.4577
1277.6	34.1599
1277.87	41.5252
1278.15	39.4328
1278.42	37.3374
1278.7	43.6559
1278.97	41.553
1279.24	46.8097
1279.52	45.7527
1279.79	59.4213
1280.07	56.2686
1280.34	69.9464
1280.62	82.5841
1280.89	104.71
1281.17	123.679
1281.44	166.836
1281.71	231.056
1281.99	309.001
1282.26	434.261
1282.54	545.691
1282.81	708.202
1283.09	885.374
1283.36	912.703
1283.63	812.626
1283.91	586.06
1284.18	372.464
1284.46	248.181
1284.73	171.179
1285.01	117.4
1285.28	90.0126
1285.55	76.3438
1285.83	73.1964
1286.1	58.4364
1286.38	53.1708
1286.65	52.1166
1286.93	48.9525
1287.2	44.7332
1287.47	45.7786
1287.75	41.5676
1288.02	36.3069
1288.3	36.3081
1288.57	33.1551
1288.84	34.2139
1289.12	38.4316
1289.39	35.2799
1289.67	34.2341
1289.94	38.4515
1290.21	30.02
1290.49	34.2306
1290.76	30.017
1291.04	28.9636
1291.31	35.2823
1291.58	34.2278
1291.86	32.1235
1292.13	33.1778
1292.4	32.1205
1292.68	27.9079
1292.95	32.1261
1293.23	28.9792
1293.5	31.099
1293.77	30.055
1294.05	30.0537
1294.32	27.9448
1294.59	28.9989
1294.87	30.0646
1295.14	29.0241
1295.42	26.9305
1295.69	29.0607
1295.96	30.1236
1296.24	28.0107
1296.51	30.1237
1296.79	28.0053
1297.06	29.0567
1297.33	27.994
1297.61	32.2117
1297.88	29.0407
1298.15	29.0431
1298.43	25.8707
1298.7	30.09
1298.97	29.03
1299.25	26.9164
1299.52	29.0305
1299.79	27.9791
1300.07	30.0925
1300.34	25.8687
1300.61	26.9233
1300.89	30.0912
1301.16	27.9829
1301.44	29.0438
1301.71	29.0472
1301.98	26.9361
1302.26	24.8237
1302.53	27.9915
1302.8	26.9328
1303.08	24.8168
1303.35	27.9822
1303.62	26.9263
1303.9	26.9267
1304.17	25.8706
1304.44	26.9246
1304.72	23.7534
1304.99	23.7486
1305.26	27.9644
1305.54	23.7377
1305.81	24.7874
1306.08	24.7841
1306.36	23.7286
1306.63	24.7847
1306.9	25.8408
1307.18	24.7862
1307.45	26.8952
1307.72	24.7871
1307.99	23.7315
1308.27	23.7317
1308.54	26.8994
1308.81	27.9584
1309.09	25.8522
1309.36	20.5789
1309.63	24.8007
1309.91	22.6886
1310.18	29.0197
1310.45	24.7994
1310.73	26.9115
1311	24.802
1311.27	24.8033
1311.54	25.8627
1311.82	27.9788
1312.09	22.7021
1312.36	21.647
1312.64	26.9226
1312.91	22.6974
1313.18	25.8632
1313.45	22.6943
1313.73	27.9712
1314	25.8611
1314.27	25.8634
1314.55	26.9222
1314.82	24.8137
1315.09	22.7048
1315.36	27.9888
1315.64	22.7088
1315.91	25.8759
1316.18	23.7624
1316.46	23.7616
1316.73	23.7614
1317	23.7633
1317.28	25.8789
1317.55	22.7118
1317.82	23.7694
1318.09	23.7702
1318.37	24.827
1318.64	24.8267
1318.91	21.6566
1319.18	22.7122
1319.46	24.8256
1319.73	23.7701
1320	21.6567
1320.27	26.936
1320.55	23.7626
1320.82	26.9241
1321.09	21.6382
1321.36	20.5781
1321.64	22.683
1321.91	24.7885
1322.18	21.621
1322.45	21.6181
1322.73	26.8853
1323	23.7229
1323.27	25.8334
1323.54	24.7798
1323.82	23.7249
1324.09	23.7252
1324.36	26.8876
1324.63	22.6718
1324.91	20.5601
1325.18	23.714
1325.45	24.7558
1325.72	21.5794
1325.99	25.7791
1326.27	27.8782
1326.54	24.7256
1326.81	21.5834
1327.08	26.859
1327.36	22.6536
1327.63	23.7162
1327.9	24.7802
1328.17	20.5696
1328.45	21.63
1328.72	24.7906
1328.99	21.6286
1329.26	21.6283
1329.53	21.627
1329.81	22.6796
1330.08	19.5119
1330.35	22.6712
1330.62	21.6109
1330.9	22.6576
1331.17	20.5405
1331.44	23.6913
1331.71	21.5795
1331.98	22.6257
1332.26	21.5664
1332.53	23.6618
1332.8	24.7053
1333.07	22.5955
1333.34	23.6398
1333.62	25.7338
1333.89	23.6269
1334.16	26.7704
1334.43	23.6157
1334.7	23.6112
1334.98	20.4591
1335.25	24.6514
1335.52	22.5497
1335.79	22.5461
1336.06	25.6886
1336.34	21.4918
1336.61	25.6828
1336.88	24.6324
1337.15	24.6303
1337.42	24.6263
1337.69	27.7618
1337.96	24.6151
1338.24	25.6589
1338.51	23.5606
1338.78	24.6065
1339.05	22.5125
1339.32	23.5611
1339.6	24.6093
1339.87	21.4681
1340.14	22.5164
1340.41	26.7056
1340.68	23.5629
1340.95	23.5616
1341.23	25.6536
1341.5	23.5562
1341.77	27.7387
1342.04	22.4995
1342.31	24.5859
1342.58	21.4429
1342.86	25.6247
1343.13	23.5317
1343.4	21.4396
1343.67	24.5773
1343.94	23.5318
1344.21	24.5766
1344.48	21.4362
1344.76	24.5684
1345.03	20.381
1345.3	24.5546
1345.57	23.5029
1345.84	24.537
1346.11	24.5269
1346.39	26.6065
1346.66	24.5123
1346.93	26.5907
1347.2	23.4571
1347.47	24.4961
1347.74	22.409
1348.01	24.4917
1348.28	16.1522
1348.55	22.4008
1348.83	23.4383
1349.1	20.3094
1349.37	25.5123
1349.64	24.4667
1349.91	24.4623
1350.18	27.5791
1350.45	25.4914
1350.73	24.4461
1351	24.4408
1351.27	25.477
1351.54	22.3564
1351.81	27.5573
1352.08	21.3217
1352.35	25.4891
1352.62	24.4532
1352.89	21.3439
1353.17	24.4919
1353.44	26.5702
1353.71	23.4134
1353.98	27.5407
1354.25	20.2603
1354.52	23.3803
1354.79	28.5705
1355.06	27.5207
1355.33	23.3708
1355.6	28.5767
1355.88	24.4127
1356.15	24.4101
1356.42	24.408
1356.69	24.4059
1356.96	22.3262
1357.23	23.3612
1357.5	28.5479
1357.77	23.3533
1358.04	27.5001
1358.31	24.3827
1358.58	25.4147
1358.86	27.4851
1359.13	25.4075
1359.4	25.4032
1359.67	27.4681
1359.94	25.3881
1360.21	26.4179
1360.48	27.4508
1360.75	27.4498
1361.02	22.2703
1361.29	26.4121
1361.56	26.41
1361.83	27.4421
1362.1	29.5106
1362.37	23.2961
1362.65	28.4737
1362.92	29.5128
1363.19	30.5536
1363.46	28.4853
1363.73	35.7386
1364	31.593
1364.27	32.6261
1364.54	34.6926
1364.81	28.4731
1365.08	26.3962
1365.35	29.4948
1365.62	30.523
1365.89	31.5505
1366.16	31.5423
1366.43	31.5322
1366.7	30.4906
1366.97	28.4205
1367.24	30.488
1367.52	29.4583
1367.79	32.5611
1368.06	36.6982
1368.33	52.2077
1368.6	78.0587
1368.87	71.861
1369.14	49.112
1369.41	32.5649
1369.68	29.4602
1369.95	31.5216
1370.22	31.5155
1370.49	26.345
1370.76	30.4703
1371.03	30.4609
1371.3	29.4176
1371.57	31.4698
1371.84	29.3956
1372.11	33.5114
1372.38	30.4117
1372.65	29.3765
1372.92	32.4647
1373.19	33.4916
1373.46	26.2757
1373.73	34.5164
1374	32.4536
1374.27	34.5117
1374.54	36.5681
1374.81	32.447
1375.08	32.4501
1375.35	32.4511
1375.62	31.4222
1375.89	34.5081
1376.16	35.5296
1376.43	37.5783
1376.7	32.4171
1376.97	34.473
1377.24	37.5677
1377.51	34.4917
1377.78	35.5373
1378.05	38.6495
1378.32	40.7234
1378.59	40.725
1378.86	40.7209
1379.13	42.7771
1379.4	45.8616
1379.67	41.727
1379.94	39.6367
1380.21	43.7311
1380.48	38.5666
1380.75	44.7415
1381.02	50.9072
1381.29	43.6908
1381.56	47.779
1381.83	50.8386
1382.1	50.8202
1382.37	56.9572
1382.64	54.889
1382.91	70.2557
1383.18	65.1152
1383.45	71.2537
1383.72	77.4049
1383.99	87.6615
1384.26	106.134
1384.53	130.77
1384.8	155.452
1385.07	190.39
1385.34	271.551
1385.61	405.055
1385.87	573.578
1386.14	974.234
1386.41	1529.99
1386.68	2115.25
1386.95	1945.19
1387.22	1203.86
1387.49	632.971
1387.76	364.531
1388.03	235.073
1388.3	165.631
1388.57	120.642
1388.84	98.0451
1389.11	87.8061
1389.38	61.0949
1389.65	68.2424
1389.92	55.8739
1390.19	54.8709
1390.46	53.8137
1390.73	49.7058
1390.99	45.606
1391.26	42.5231
1391.53	41.4876
1391.8	40.4533
1392.07	45.5656
1392.34	45.5591
1392.61	40.4352
1392.88	39.4075
1393.15	35.3099
1393.42	37.3537
1393.69	40.421
1393.96	36.3255
1394.23	34.2772
1394.5	34.2778
1394.76	36.3312
1395.03	34.289
1395.3	31.2211
1395.57	31.2211
1395.84	29.1719
1396.11	36.3332
1396.38	28.1419
1396.65	39.3929
1396.92	31.2011
1397.19	31.1971
1397.46	30.1729
1397.73	29.1512
1397.99	30.1771
1398.26	36.3183
1398.53	31.205
1398.8	31.2087
1399.07	34.2833
1399.34	30.1928
1399.61	29.1704
1399.88	30.1962
1400.14	29.1787
1400.41	32.2559
1400.68	33.2809
1400.95	33.2827
1401.22	33.2844
1401.49	30.2179
1401.76	31.257
1402.03	30.2502
1402.3	30.2658
1402.57	36.4349
1402.83	33.3634
1403.1	31.3126
1403.37	30.2826
1403.64	26.165
1403.91	31.2919
1404.18	35.3959
1404.45	33.3406
1404.72	33.3356
1404.99	37.4317
1405.25	34.3491
1405.52	37.419
1405.79	44.5898
1406.06	45.6106
1406.33	46.6357
1406.6	57.9141
1406.87	60.9944
1407.13	73.301
1407.4	83.5582
1407.67	88.6899
1407.94	106.127
1408.21	119.465
1408.48	110.246
1408.75	89.743
1409.01	80.5191
1409.28	63.0862
1409.55	49.7534
1409.82	43.5928
1410.09	42.5569
1410.36	37.4181
1410.62	32.284
1410.89	33.3027
1411.16	31.2486
1411.43	35.3438
1411.7	24.0767
1411.97	31.2554
1412.23	27.1672
1412.5	29.2505
1412.77	29.2797
1413.04	25.1655
1413.31	27.1767
1413.58	30.2472
1413.84	26.1609
1414.11	29.2589
1414.38	31.312
1414.65	25.1531
1414.92	28.2334
1415.19	27.2071
1415.45	29.2627
1415.72	21.0505
1415.99	28.2414
1416.26	26.1902
1416.53	25.1662
1416.8	26.1966
1417.06	27.2274
1417.33	27.2296
1417.6	26.2029
1417.87	22.0931
1418.14	23.1228
1418.4	23.1224
1418.67	24.1519
1418.94	24.1505
1419.21	25.1742
1419.48	20.0324
1419.74	26.1917
1420.01	24.133
1420.28	26.1812
1420.55	22.0699
1420.82	26.1722
1421.08	25.146
1421.35	23.0968
1421.62	25.1605
1421.89	26.1936
1422.16	26.2065
1422.42	24.1664
1422.69	22.1343
1422.96	27.2852
1423.23	22.0291
1423.5	23.082
1423.76	26.1357
1424.03	29.1875
1424.3	25.1119
1424.57	26.1336
1424.83	27.1941
1425.1	23.0667
1425.37	26.161
1425.64	21.0299
1425.91	26.1568
1426.17	21.0226
1426.44	24.093
1426.71	19.9864
1426.98	24.0785
1427.24	23.0439
1427.51	22.0156
1427.78	24.0611
1428.05	22.0132
1428.32	20.9905
1428.58	18.9441
1428.85	19.9702
1429.12	22.0216
1429.38	23.0503
1429.65	21.0067
1429.92	22.0372
1430.19	22.0422
1430.46	22.051
1430.72	21.0344
1430.99	24.1184
1431.26	22.0675
1431.53	22.0653
1431.79	20.0081
1432.06	20.0042
1432.33	22.0518
1432.6	18.9678
1432.86	22.0352
1433.13	18.9526
1433.4	19.9709
1433.67	22.016
1433.93	24.0682
1434.2	21.0052
1434.47	22.0311
1434.73	17.9328
1435	19.9821
1435.27	23.0556
1435.54	18.9559
1435.8	21.0039
1436.07	21.0023
1436.34	19.976
1436.6	20.9986
1436.87	22.0218
1437.14	18.9479
1437.41	23.0428
1437.67	20.9949
1437.94	18.9489
1438.21	21.0001
1438.48	18.9525
1438.74	19.9779
1439.01	23.0541
1439.28	26.1334
1439.54	23.0649
1439.81	21.0188
1440.08	19.9953
1440.35	21.0216
1440.61	19.997
1440.88	18.9712
1441.15	18.9689
1441.41	23.0676
1441.68	18.9686
1441.95	19.9958
1442.21	22.0499
1442.48	18.9733
1442.75	19.9959
1443.02	22.0435
1443.28	19.9907
1443.55	17.9393
1443.82	17.9397
1444.08	21.0195
1444.35	16.9225
1444.62	15.902
1444.88	22.059
1445.15	20.0054
1445.42	20.0037
1445.69	24.1051
1445.95	21.0264
1446.22	18.9737
1446.49	18.9723
1446.75	16.9198
1447.02	18.9686
1447.28	19.9917
1447.55	15.8901
1447.82	21.0183
1448.09	22.0487
1448.35	18.9745
1448.62	18.9749
1448.89	17.9483
1449.15	19.9974
1449.42	16.9184
1449.69	18.9659
1449.95	18.964
1450.22	14.8626
1450.49	14.8615
1450.75	18.9598
1451.02	15.8838
1451.29	17.9316
1451.55	17.9301
1451.82	14.8556
1452.09	14.8556
1452.35	17.9297
1452.62	17.9316
1452.88	17.9337
1453.15	17.9346
1453.42	18.9586
1453.68	19.982
1453.95	16.9077
1454.22	16.9079
1454.48	21.0067
1454.75	17.9315
1455.02	19.98
1455.28	21.008
1455.55	17.9361
1455.81	16.9118
1456.08	17.9361
1456.35	16.9087
1456.61	13.8319
1456.88	16.9042
1457.15	14.8543
1457.41	19.9753
1457.68	17.9266
1457.95	15.8781
1458.21	16.9034
1458.48	18.9535
1458.74	15.8805
1459.01	18.9551
1459.28	19.9794
1459.54	19.9783
1459.81	17.9281
1460.08	17.9268
1460.34	15.8766
1460.61	17.923
1460.87	16.8968
1461.14	15.8707
1461.41	16.8919
1461.67	16.8891
1461.94	14.8391
1462.2	15.8593
1462.47	17.9017
1462.74	17.8976
1463	17.8933
1463.27	15.8459
1463.54	18.9159
1463.8	17.9029
1464.07	16.886
1464.33	16.8921
1464.6	17.9246
1464.86	14.8166
1465.13	16.8433
1465.4	16.8351
1465.66	15.8213
1465.93	16.8444
1466.19	18.8785
1466.46	12.7505
1466.73	17.8545
1466.99	16.8334
1467.26	17.8524
1467.52	18.8714
1467.79	14.7908
1468.05	16.8308
1468.32	17.8502
1468.59	17.8487
1468.85	15.8071
1469.12	16.8246
1469.38	17.84
1469.65	18.8554
1469.92	16.8145
1470.18	16.8126
1470.45	16.8109
1470.71	13.7535
1470.98	18.8435
1471.24	16.8036
1471.51	16.8021
1471.77	13.7466
1472.04	14.7645
1472.31	19.8552
1472.57	15.7817
1472.84	15.7799
1473.1	13.7416
1473.37	18.8287
1473.64	14.7562
1473.9	18.8263
1474.17	14.7565
1474.43	15.7759
1474.7	17.812
1474.96	16.794
1475.23	15.7752
1475.49	16.791
1475.76	16.789
1476.02	14.7528
1476.29	17.8031
1476.55	16.7828
1476.82	17.7978
1477.09	16.7801
1477.35	19.8305
1477.62	16.7787
1477.88	18.8093
1478.15	15.7564
1478.41	17.787
1478.68	16.768
1478.94	15.7489
1479.21	14.7299
1479.47	14.7268
1479.74	14.7225
1480	15.7329
1480.27	14.7145
1480.53	17.7566
1480.8	17.7542
1481.07	14.7105
1481.33	15.7271
1481.6	16.7447
1481.86	13.7029
1482.12	17.7661
1482.39	16.752
1482.65	15.7379
1482.92	15.7393
1483.19	15.7398
1483.45	14.7241
1483.72	16.7508
1483.98	13.6986
1484.25	17.7422
1484.51	16.7076
1484.78	14.6707
1485.04	15.6711
1485.31	15.6898
1485.57	18.7458
1485.84	15.7121
1486.1	15.7031
1486.37	14.6892
1486.63	17.7337
1486.9	16.7181
1487.16	20.7657
1487.43	16.7111
1487.69	16.7086
1487.96	14.6804
1488.22	16.7015
1488.49	17.71
1488.75	15.6839
1489.02	17.706
1489.28	15.6812
1489.54	15.6808
1489.81	15.6808
1490.07	16.6912
1490.34	14.6655
1490.6	16.685
1490.87	15.6717
1491.13	14.6597
1491.4	17.6924
1491.66	14.66
1491.93	18.704
1492.19	14.6593
1492.46	15.6696
1492.72	17.6914
1492.99	15.6688
1493.25	13.6463
1493.52	15.6679
1493.78	16.6795
1494.04	17.692
1494.31	15.6702
1494.57	16.6794
1494.84	12.6329
1495.1	17.68
1495.37	16.6644
1495.63	15.6511
1495.9	14.6391
1496.16	17.6658
1496.43	19.6818
1496.69	16.6531
1496.96	15.6439
1497.22	15.6431
1497.48	11.6058
1497.75	14.6334
1498.01	16.6521
1498.28	16.6526
1498.54	16.6532
1498.81	15.6448
1499.07	16.6555
1499.33	18.6762
1499.6	12.6198
1499.86	16.6583
1500.13	13.6291
1500.39	17.6669
1500.66	15.647
1500.92	17.6623
1501.18	14.6331
1501.45	16.6509
1501.71	16.6504
1501.98	17.6586
1502.24	15.6377
1502.51	15.634
1502.77	16.6412
1503.03	16.6377
1503.3	14.6199
1503.56	14.6213
1503.83	15.6307
1504.09	16.6395
1504.35	18.6561
1504.62	15.6295
1504.88	18.6522
1505.15	16.6327
1505.41	13.6025
1505.68	16.6233
1505.94	19.6451
1506.2	15.6147
1506.47	16.6253
1506.73	16.626
1507	17.6346
1507.26	18.6427
1507.52	17.6341
1507.79	15.6174
1508.05	15.6175
1508.32	15.6182
1508.58	12.5956
1508.84	13.6033
1509.11	18.641
1509.37	14.6111
1509.63	15.6222
1509.9	14.6116
1510.16	14.6091
1510.43	15.6131
1510.69	14.6023
1510.95	14.5975
1511.22	14.5902
1511.48	17.5993
1511.75	17.5911
1512.01	16.5773
1512.27	15.5684
1512.54	15.5648
1512.8	14.5575
1513.07	17.5667
1513.33	17.5675
1513.59	15.5674
1513.86	16.5755
1514.12	13.5607
1514.38	15.5671
1514.65	15.5624
1514.91	17.5666
1515.17	14.5509
1515.44	14.5465
1515.7	13.5396
1515.96	15.5437
1516.23	16.5453
1516.49	18.5493
1516.76	14.538
1517.02	16.5433
1517.28	14.5387
1517.55	15.5437
1517.81	15.5454
1518.07	16.5494
1518.34	14.5444
1518.6	16.5518
1518.86	16.5532
1519.13	16.5542
1519.39	16.5543
1519.65	18.5598
1519.92	14.5457
1520.18	16.5521
1520.44	15.5503
1520.71	17.5585
1520.97	16.5561
1521.23	17.5593
1521.5	17.5581
1521.76	13.5435
1522.02	16.5513
1522.29	15.5465
1522.55	15.5443
1522.81	14.5379
1523.08	17.5396
1523.34	14.5282
1523.6	14.5249
1523.87	16.5253
1524.13	13.5185
1524.39	15.5214
1524.66	15.5225
1524.92	18.5277
1525.18	15.5248
1525.45	14.5257
1525.71	14.5291
1525.97	15.5346
1526.24	12.5296
1526.5	17.5418
1526.76	15.5355
1527.02	16.5363
1527.29	14.5308
1527.55	16.5337
1527.81	17.534
1528.08	16.5302
1528.34	15.5269
1528.6	17.5292
1528.87	14.5238
1529.13	15.5248
1529.39	15.5228
1529.65	14.5201
1529.92	13.5192
1530.18	14.523
1530.44	16.5296
1530.71	15.5305
1530.97	16.5337
1531.23	12.5251
1531.5	16.5332
1531.76	15.5298
1532.02	14.5283
1532.28	19.5421
1532.55	9.52362
1532.81	16.5466
1533.07	17.553
1533.34	13.5423
1533.6	15.549
1533.86	13.5422
1534.12	15.5474
1534.39	16.5488
1534.65	16.5474
1534.91	14.5398
1535.17	16.5386
1535.44	17.5344
1535.7	14.5251
1535.96	17.525
1536.22	16.5176
1536.49	16.5117
1536.75	15.5082
1537.01	15.5047
1537.28	17.5045
1537.54	16.5022
1537.8	13.4979
1538.06	14.4954
1538.33	16.4926
1538.59	15.4951
1538.85	16.5023
1539.11	16.5139
1539.38	16.5234
1539.64	15.5288
1539.9	17.5404
1540.16	14.5382
1540.43	18.5531
1540.69	13.5346
1540.95	13.5329
1541.21	16.5368
1541.48	15.5306
1541.74	16.5285
1542	19.5289
1542.26	17.5218
1542.52	14.5148
1542.79	13.5107
1543.05	20.5105
1543.31	15.5018
1543.57	17.5011
1543.84	16.5017
1544.1	16.5042
1544.36	16.5091
1544.62	17.5132
1544.89	17.5198
1545.15	18.5261
1545.41	14.5226
1545.67	14.5248
1545.93	15.526
1546.2	17.5295
1546.46	15.5277
1546.72	16.5313
1546.98	18.5379
1547.25	16.533
1547.51	15.5224
1547.77	17.5235
1548.03	18.5235
1548.29	15.5271
1548.56	17.5205
1548.82	14.5007
1549.08	14.4926
1549.34	16.4968
1549.61	13.508
1549.87	16.5349
1550.13	13.5429
1550.39	18.5859
1550.65	16.5679
1550.91	18.5759
1551.18	15.5628
1551.44	17.5627
1551.7	15.5595
1551.96	16.5726
1552.22	17.5763
1552.49	18.5792
1552.75	18.5646
1553.01	17.556
1553.27	15.5485
1553.53	16.549
1553.79	17.5474
1554.06	17.5422
1554.32	19.539
1554.58	14.5264
1554.84	15.5269
1555.1	17.5298
1555.37	20.5358
1555.63	13.5248
1555.89	14.5241
1556.15	16.527
1556.41	17.5296
1556.68	15.5273
1556.94	18.5333
1557.2	17.5311
1557.46	16.5277
1557.72	18.5249
1557.98	17.5197
1558.25	16.5131
1558.51	17.5083
1558.77	14.5028
1559.03	16.4994
1559.29	14.4967
1559.55	16.4937
1559.82	15.4923
1560.08	19.4887
1560.34	16.4892
1560.6	14.4901
1560.86	16.489
1561.12	17.4911
1561.38	15.4955
1561.65	18.5012
1561.91	16.5025
1562.17	18.5023
1562.43	18.5009
1562.69	16.5011
1562.95	16.5003
1563.21	15.4987
1563.48	17.5022
1563.74	17.5091
1564	18.5137
1564.26	14.511
1564.52	14.5066
1564.78	17.4852
1565.04	17.4463
1565.3	17.4102
1565.57	18.4525
1565.83	19.4938
1566.09	15.4961
1566.35	16.4838
1566.61	14.4904
1566.87	18.5054
1567.13	17.5081
1567.39	14.4978
1567.66	13.496
1567.92	15.4975
1568.18	17.499
1568.44	14.499
1568.7	13.4951
1568.96	16.4894
1569.22	13.4904
1569.48	18.488
1569.75	18.4888
1570.01	16.4903
1570.27	16.4902
1570.53	19.4878
1570.79	18.4872
1571.05	18.4847
1571.31	18.4813
1571.57	17.4811
1571.83	15.4819
1572.1	15.4792
1572.36	18.4722
1572.62	17.4713
1572.88	17.4685
1573.14	19.4618
1573.4	16.467
1573.66	15.4709
1573.92	15.4742
1574.18	15.4778
1574.44	16.4805
1574.7	20.4808
1574.97	16.488
1575.23	17.4891
1575.49	18.4877
1575.75	17.4879
1576.01	17.4868
1576.27	17.4825
1576.53	15.4789
1576.79	16.4715
1577.05	16.4657
1577.31	18.4556
1577.57	17.4525
1577.83	18.4456
1578.1	18.4437
1578.36	19.4402
1578.62	17.4461
1578.88	19.44
1579.14	16.4497
1579.4	15.4547
1579.66	15.4563
1579.92	20.443
1580.18	18.4483
1580.44	18.4466
1580.7	16.4499
1580.96	17.4447
1581.22	14.4516
1581.48	17.4376
1581.74	15.443
1582	13.4494
1582.26	16.4369
1582.53	17.4319
1582.79	15.4391
1583.05	17.431
1583.31	14.4415
1583.57	19.4205
1583.83	20.4178
1584.09	18.4271
1584.35	16.4359
1584.61	17.4322
1584.87	17.4314
1585.13	16.4348
1585.39	18.4259
1585.65	18.4224
1585.91	17.4222
1586.17	16.4233
1586.43	16.4209
1586.69	17.4141
1586.95	21.3924
1587.21	13.4316
1587.47	17.411
1587.73	15.422
1587.99	18.4087
1588.25	20.4017
1588.51	16.423
1588.77	14.4342
1589.03	16.4269
1589.29	14.4366
1589.55	18.419
1589.81	19.4156
1590.07	17.4261
1590.33	18.4241
1590.59	16.4322
1590.85	16.4322
1591.12	16.4314
1591.38	17.4259
1591.64	16.4273
1591.9	17.4176
1592.16	17.4128
1592.42	20.3951
1592.68	14.4214
1592.94	19.387
1593.2	17.391
1593.46	18.3791
1593.72	17.3824
1593.98	17.3815
1594.24	18.376
1594.5	18.3796
1594.76	16.395
1595.02	15.4036
1595.28	17.3837
1595.54	16.3882
1595.8	16.3881
1596.06	15.3949
1596.32	17.3818
1596.58	19.3694
1596.84	16.3908
1597.09	19.3729
1597.35	19.3732
1597.61	16.3916
1597.87	19.3691
1598.13	18.3712
1598.39	16.3809
1598.65	16.3776
1598.91	19.352
1599.17	15.3798
1599.43	15.3771
1599.69	20.3343
1599.95	19.3389
1600.21	18.3431
1600.47	17.3466
1600.73	16.3501
1600.99	16.3446
1601.25	16.3399
1601.51	20.2965
1601.77	20.2925
1602.03	17.3194
1602.29	19.2941
1602.55	18.3005
1602.81	17.3077
1603.07	16.3163
1603.33	16.3146
1603.59	15.3252
1603.85	14.3365
1604.11	18.292
1604.37	18.2922
1604.63	18.2925
1604.89	16.3154
1605.14	17.3051
1605.4	16.3181
1605.66	18.2983
1605.92	16.3223
1606.18	16.3241
1606.44	16.3256
1606.7	19.2949
1606.96	18.3054
1607.22	14.354
1607.48	18.3014
1607.74	14.4015
1608	17.3089
1608.26	18.1609
1608.52	17.1918
1608.78	18.0254
1609.04	17.2197
1609.29	16.2171
1609.55	16.9911
1609.81	16.5156
1610.07	18.1517
1610.33	21.4316
1610.59	19.6692
1610.85	18.0969
1611.11	16.5978
1611.37	19.0708
1611.63	16.3201
1611.89	15.8395
1612.15	18.8639
1612.4	21.3198
1612.66	17.3063
1612.92	16.6726
1613.18	16.074
1613.44	18.5135
1613.7	17.6577
1613.96	15.2478
1614.22	14.5369
1614.48	18.8724
1614.74	19.3739
1615	15.9316
1615.25	17.9193
1615.51	17.9085
1615.77	14.6152
1616.03	17.0564
1616.29	17.2878
1616.55	17.9081
1616.81	16.3472
1617.07	19.0141
1617.33	18.1464
1617.59	17.3692
1617.84	19.3362
1618.1	18.0606
1618.36	19.1542
1618.62	17.9569
1618.88	16.5954
1619.14	18.467
1619.4	17.7821
1619.66	18.6863
1619.91	18.2466
1620.17	17.239
1620.43	16.9542
1620.69	17.5359
1620.95	17.8372
1621.21	16.1108
1621.47	16.2956
1621.73	16.945
1621.98	16.6406
1622.24	18.4782
1622.5	16.1464
1622.76	15.0057
1623.02	16.523
1623.28	17.543
1623.54	16.1876
1623.79	16.8143
1624.05	16.7011
1624.31	16.1115
1624.57	18.9277
1624.83	17.2003
1625.09	18.1714
1625.35	17.7196
1625.6	16.4506
1625.86	15.1883
1626.12	15.2192
1626.38	17.9564
1626.64	15.855
1626.9	15.3128
1627.16	15.9535
1627.41	20.4374
1627.67	18.1054
1627.93	15.9384
1628.19	20.1124
1628.45	17.1264
1628.71	16.7417
1628.96	12.1958
1629.22	16.6808
1629.48	17.37
1629.74	18.0656
1630	19.0945
1630.26	19.1216
1630.51	17.1525
1630.77	19.1549
1631.03	15.3544
1631.29	19.08
1631.3	19.2137
1631.56	18.2317
1631.82	17.2462
1632.08	19.2212
1632.34	18.2443
1632.6	14.2971
1632.86	16.2608
1633.13	18.2283
1633.39	16.2593
1633.65	15.2765
1633.91	15.2777
1634.17	15.2782
1634.43	19.2209
1634.69	16.2633
1634.96	16.2625
1635.22	18.2323
1635.48	17.2451
1635.74	19.2137
1636	19.2114
1636.26	17.2387
1636.52	17.2361
1636.79	14.2787
1637.05	21.1696
1637.31	17.2305
1637.57	17.2291
1637.83	17.2274
1638.09	16.2415
1638.35	18.2104
1638.61	18.2106
1638.87	17.2261
1639.13	18.2104
1639.4	18.2103
1639.66	14.2724
1639.92	20.1781
1640.18	16.2443
1640.44	17.2315
1640.7	17.2326
1640.96	16.247
1641.22	14.2761
1641.48	16.244
1641.75	18.212
1642.01	19.1957
1642.27	13.2887
1642.53	17.2256
1642.79	16.2409
1643.05	17.225
1643.31	17.2237
1643.57	17.2219
1643.83	16.2355
1644.09	16.2329
1644.35	18.2
1644.62	18.2007
1644.88	15.2518
1645.14	19.1891
1645.4	14.2696
1645.66	18.2044
1645.92	17.2183
1646.18	17.2164
1646.44	16.2315
1646.7	18.1975
1646.96	15.2447
1647.22	14.2599
1647.48	14.2593
1647.74	18.1937
1648.01	16.2293
1648.27	19.1839
1648.53	17.2234
1648.79	16.2453
1649.05	16.2432
1649.31	18.2104
1649.57	15.2567
1649.83	14.2758
1650.09	18.2195
1650.35	21.1777
1650.61	15.2708
1650.87	16.2585
1651.13	16.2597
1651.39	16.26
1651.65	17.2455
1651.92	18.2316
1652.18	17.2451
1652.44	14.2869
1652.7	16.2565
1652.96	20.1974
1653.22	17.2425
1653.48	16.2587
1653.74	16.2601
1654	14.2898
1654.26	18.2331
1654.52	17.2496
1654.78	14.2953
1655.04	17.2578
1655.3	16.2775
1655.56	16.282
1655.82	16.2849
1656.08	15.2995
1656.34	19.2489
1656.6	14.3132
1656.86	13.3251
1657.12	18.2584
1657.38	16.2833
1657.64	15.2954
1657.9	18.254
1658.16	16.2784
1658.42	17.2625
1658.69	17.2599
1658.95	15.2851
1659.21	19.2268
1659.47	18.237
1659.73	18.2377
1659.99	17.254
1660.25	17.2567
1660.51	16.2736
1660.77	16.2767
1661.03	16.2803
1661.29	17.2686
1661.55	11.3504
1661.81	14.2948
1662.07	16.2952
1662.33	15.3284
1662.59	17.2973
1662.85	14.3294
1663.11	18.2862
1663.37	16.265
1663.63	17.2716
1663.89	19.2516
1664.15	17.2771
1664.41	15.3105
1664.67	15.3169
1664.93	14.3173
1665.19	18.2305
1665.45	16.3112
1665.71	15.3282
1665.97	19.2786
1666.23	16.3099
1666.49	16.2273
1666.75	17.2766
1667.01	15.2988
1667.27	13.3222
1667.53	14.3079
1667.79	16.2784
1668.05	16.2779
1668.31	13.323
1668.56	17.2826
1668.83	16.2974
1669.09	15.31
1669.35	17.2862
1669.6	13.3345
1669.86	15.3081
1670.12	14.3273
1670.38	15.3228
1670.64	15.3214
1670.9	18.2851
1671.16	17.2961
1671.42	16.308
1671.68	16.3098
1671.94	18.2874
1672.2	13.345
1672.46	16.3104
1672.72	17.2994
1672.98	15.323
1673.24	15.324
1673.5	16.3144
1673.76	17.3055
1674.02	17.3078
1674.28	17.3101
1674.54	13.3559
1674.8	16.3268
1675.06	16.3285
1675.32	18.3083
1675.58	15.3392
1675.83	15.3396
1676.1	15.3405
1676.35	19.3
1676.61	16.3307
1676.87	13.3609
1677.13	14.3494
1677.39	14.3475
1677.65	16.3235
1677.91	14.3418
1678.17	14.3391
1678.43	19.2808
1678.69	16.3125
1678.95	14.3339
1679.21	16.3095
1679.47	17.2962
1679.73	18.2831
1679.98	16.305
1680.25	14.3272
1680.5	16.3019
1680.76	14.3251
1681.02	16.3006
1681.28	18.2763
1681.54	16.3005
1681.8	17.2886
1682.06	17.289
1682.32	15.3127
1682.58	17.288
1682.84	16.2999
1683.1	16.2999
1683.35	14.3239
1683.61	16.2987
1683.87	15.3087
1684.13	18.27
1684.39	18.269
1684.65	16.2934
1684.91	15.3056
1685.17	15.3055
1685.43	15.3057
1685.69	14.3185
1685.95	14.3194
1686.2	12.3469
1686.46	14.3242
1686.72	15.3127
1686.98	15.3118
1687.24	15.31
1687.5	17.2835
1687.76	12.3442
1688.02	14.3178
1688.28	10.3667
1688.54	16.2869
1688.79	14.3104
1689.05	16.2814
1689.31	15.2917
1689.57	13.3155
1689.83	14.2997
1690.09	18.2493
1690.35	16.2787
1690.6	16.2803
1690.86	16.2813
1691.12	15.2959
1691.38	14.3107
1691.64	14.3109
1691.9	13.3233
1692.16	14.3085
1692.42	15.2923
1692.68	14.3026
1692.93	12.3266
1693.19	15.2804
1693.45	15.2769
1693.71	17.245
1693.97	16.2561
1694.23	14.2833
1694.49	19.2079
1694.74	17.2388
1695	17.2398
1695.26	13.3001
1695.52	15.2715
1695.78	15.2735
1696.04	16.2607
1696.3	14.2899
1696.55	16.2596
1696.81	16.2569
1697.07	15.2678
1697.33	15.2638
1697.59	17.2294
1697.85	16.242
1698.11	16.2393
1698.36	14.2689
1698.62	16.2356
1698.88	14.2672
1699.14	16.2358
1699.4	17.2202
1699.66	16.2364
1699.92	15.2502
1700.17	14.2653
1700.43	12.2971
1700.69	17.2151
1700.95	15.2464
1701.21	16.2276
1701.46	17.2078
1701.72	16.2215
1701.98	13.2695
1702.24	13.2671
1702.5	15.2313
1702.76	15.2309
1703.01	14.2474
1703.27	16.2111
1703.53	16.21
1703.79	16.2111
1704.05	14.248
1704.3	14.2488
1704.56	14.2483
1704.82	13.2648
1705.08	16.2124
1705.34	15.2301
1705.6	18.1753
1705.85	14.2426
1706.11	12.2752
1706.37	15.2175
1706.63	15.2136
1706.89	14.2291
1707.14	18.1497
1707.4	14.2209
1707.66	16.1772
1707.92	16.1722
1708.18	16.1662
1708.43	17.1401
1708.69	14.1983
1708.95	13.217
1709.21	16.1528
1709.47	13.2156
1709.72	14.1948
1709.98	17.1322
1710.24	16.1542
1710.5	15.1777
1710.76	15.1792
1711.01	15.1806
1711.27	15.1818
1711.53	15.1824
1711.79	14.2017
1712.04	14.1982
1712.3	15.1711
1712.56	14.1863
1712.82	14.1802
1713.08	16.1307
1713.33	15.1467
1713.59	14.1666
1713.85	15.1417
1714.11	14.1633
1714.36	14.1625
1714.62	15.1388
1714.88	15.1405
1715.14	16.1218
1715.4	13.1907
1715.65	14.1668
1715.91	13.188
1716.17	15.1387
1716.43	14.1582
1716.68	12.2012
1716.94	14.1475
1717.2	15.1159
1717.46	13.1593
1717.71	16.0774
1717.97	15.0977
1718.23	17.0417
1718.49	17.0393
1718.74	14.1177
1719	11.1968
1719.26	12.1699
1719.52	14.1175
1719.78	14.1186
1720.03	13.1439
1720.29	16.062
1720.55	16.0579
1720.81	15.0811
1721.06	14.1054
1721.32	16.0473
1721.58	16.0434
1721.83	11.1789
1722.09	16.0351
1722.35	13.1165
1722.61	13.1136
1722.86	14.0824
1723.12	15.0517
1723.38	14.0802
1723.64	15.0504
1723.89	16.0203
1724.15	13.1058
1724.41	16.9847
1724.66	16.9784
1724.92	13.0928
1725.18	12.1184
1725.44	15.0227
1725.69	12.1133
1725.95	15.0211
1726.21	14.0515
1726.46	15.0185
1726.72	13.0764
1726.98	14.0437
1727.24	16.9527
1727.49	15.984
1727.75	15.9815
1728.01	14.0396
1728.27	13.0555
1728.52	12.0698
1728.78	14.9554
1729.04	14.9611
1729.29	14.9693
1729.55	13.0432
1729.81	13.0375
1730.06	14.9639
1730.32	14.9618
1730.58	12.0776
1730.83	14.9798
1731.09	14.0138
1731.35	12.0807
1731.61	14.0129
1731.86	14.9779
1732.12	14.9764
1732.38	13.0421
1732.63	13.0395
1732.89	14.0013
1733.15	14.9612
1733.4	14.9545
1733.66	13.9854
1733.92	13.0168
1734.17	13.9765
1734.43	12.0448
1734.69	16.8573
1734.95	11.0743
1735.2	14.923
1735.46	13.9579
1735.72	16.8442
1735.97	16.8426
1736.23	14.9157
1736.49	13.9516
1736.74	14.9116
1737	12.0238
1737.26	15.8695
1737.51	13.9436
1737.77	11.0564
1738.03	15.8601
1738.28	13.9348
1738.54	13.9315
1738.8	12.9671
1739.05	12.9625
1739.31	14.8762
1739.57	13.9103
1739.82	15.8228
1740.08	12.9417
1740.34	16.7719
1740.59	13.8937
1740.85	17.7224
1741.1	13.8876
1741.36	12.9276
1741.62	14.8411
1741.88	13.8827
1742.13	14.8392
1742.39	16.7521
1742.64	13.8793
1742.9	13.8789
1743.16	14.835
1743.41	15.7891
1743.67	12.9158
1743.93	14.8272
1744.18	14.8257
1744.44	13.8692
1744.69	13.8694
1744.95	14.8261
1745.21	15.7819
1745.46	13.8674
1745.72	13.8648
1745.98	12.9054
1746.23	14.8129
1746.49	11.9429
1746.74	14.8053
1747	11.9367
1747.26	13.8435
1747.51	11.9323
1747.77	13.841
1748.03	13.8411
1748.28	14.7963
1748.54	12.8879
1748.8	14.7989
1749.05	13.8463
1749.31	15.7592
1749.56	16.7181
1749.82	13.8555
1750.08	13.8586
1750.33	11.9484
1750.59	14.8175
1750.84	15.7744
1751.1	12.905
1751.36	12.9017
1751.61	13.8531
1751.87	13.8497
1752.12	13.8467
1752.38	12.8889
1752.64	15.7495
1752.89	10.0205
1753.15	11.9271
1753.4	18.6032
1753.66	14.7841
1753.92	12.8736
1754.17	12.8714
1754.43	12.8696
1754.68	15.7277
1754.94	14.7727
1755.2	13.8174
1755.45	14.7673
1755.71	15.7162
1755.96	14.7598
1756.22	16.6591
1756.47	13.7988
1756.73	13.7947
1756.99	13.7926
1757.24	12.8398
1757.5	12.8402
1757.75	15.6979
1758.01	14.7484
1758.27	17.6036
1758.52	16.6523
1758.78	12.8462
1759.03	14.7502
1759.29	14.7502
1759.54	12.8461
1759.8	13.7965
1760.05	13.7952
1760.31	14.7451
1760.57	12.8405
1760.82	12.8379
1761.08	15.6879
1761.33	13.7845
1761.59	13.7835
1761.84	14.7329
1762.1	14.7356
1762.36	11.8851
1762.61	12.8364
1762.87	15.6881
1763.12	13.7869
1763.38	15.6897
1763.63	14.7403
1763.89	16.6449
1764.14	9.99125
1764.4	13.7997
1764.66	14.7536
1764.91	13.8032
1765.17	13.8042
1765.42	13.8049
1765.68	12.853
1765.93	13.8047
1766.19	12.8518
1766.44	10.9469
1766.7	11.8988
1766.95	9.99423
1767.21	17.6067
1767.46	11.8944
1767.72	14.7477
1767.98	12.8431
1768.23	13.7943
1768.48	13.7894
1768.74	14.7318
1769	11.8746
1769.25	14.7179
1769.51	14.7182
1769.76	14.7208
1770.02	15.6758
1770.27	13.7759
1770.53	13.7768
1770.78	12.8295
1771.04	12.8346
1771.29	12.837
1771.55	16.6412
1771.8	13.7905
1772.06	13.7934
1772.31	13.7957
1772.57	12.846
1772.82	13.7992
1773.08	11.8972
1773.33	14.7541
1773.59	13.8034
1773.84	14.7564
1774.1	15.7092
1774.35	14.759
1774.61	15.7128
1774.86	17.6202
1775.12	15.7218
1775.37	13.8205
1775.63	12.8693
1775.88	11.9167
1776.14	10.9631
1776.39	14.7747
1776.65	13.8192
1776.9	13.8176
1777.16	13.8153
1777.41	14.7655
1777.67	12.8579
1777.92	15.7124
1778.18	11.9009
1778.43	12.8497
1778.69	12.8461
1778.94	13.7952
1779.2	15.6974
1779.45	11.8948
1779.71	13.7996
1779.96	15.7042
1780.21	14.7537
1780.47	14.7553
1780.73	12.8519
1780.98	10.9484
1781.23	12.8536
1781.49	14.7598
1781.74	13.8098
1782	13.813
1782.25	14.7682
1782.51	14.7701
1782.76	15.7248
1783.02	13.8207
1783.27	10.0094
1783.53	13.8246
1783.78	14.7806
1784.04	12.8768
1784.29	14.7872
1784.54	15.7428
1784.8	14.7889
1785.05	16.6965
1785.31	12.8789
1785.56	14.7852
1785.82	15.7391
1786.07	13.8324
1786.33	15.7429
1786.58	15.7462
1786.84	12.8868
1787.09	12.8912
1787.34	11.9435
1787.6	13.8634
1787.85	13.8729
1788.11	13.8797
1788.36	14.8395
1788.62	11.9698
1788.87	14.8486
1789.12	13.8946
1789.38	11.9798
1789.63	13.8983
1789.89	15.8179
1790.14	15.8184
1790.4	14.859
1790.65	13.8991
1790.91	14.8466
1791.16	12.93
1791.41	15.8015
1791.67	16.7593
1791.92	15.8025
1792.18	12.9297
1792.43	16.7632
1792.68	12.9328
1792.94	13.8916
1793.19	11.0171
1793.45	14.8517
1793.7	15.8104
1793.96	13.8945
1794.21	13.892
1794.46	14.8521
1794.72	13.9055
1794.97	16.7922
1795.23	12.9579
1795.48	14.88
1795.73	17.7633
1795.99	13.9253
1796.24	14.8887
1796.49	14.8919
1796.75	13.9339
1797	17.7808
1797.26	13.9383
1797.51	14.9014
1797.76	12.98
1798.02	14.904
1798.27	14.9044
1798.53	13.9422
1798.78	15.8637
1799.04	16.8227
1799.29	14.8973
1799.54	14.8945
1799.8	13.9315
1800.05	15.8512
1800.3	11.0468
1800.56	10.0856
1800.81	15.8483
1801.07	14.8877
1801.32	14.8883
1801.57	12.0075
1801.83	12.9693
1802.08	12.971
1802.33	12.9732
1802.59	13.937
1802.84	13.9401
1803.1	12.9812
1803.35	13.9444
1803.6	13.9452
1803.86	12.0231
1804.11	15.8736
1804.36	12.0278
1804.62	14.9177
1804.87	13.9589
1805.13	13.9624
1805.38	14.9288
1805.63	13.005
1805.89	13.0071
1806.14	15.9
1806.39	13.0104
1806.65	13.9748
1806.9	13.975
1807.15	13.0114
1807.41	13.9754
1807.66	15.9033
1807.91	15.9038
1808.17	13.9765
1808.42	13.9771
1808.67	14.9417
1808.93	13.9783
1809.18	13.0149
1809.43	13.0155
1809.69	14.9443
1809.94	13.9804
1810.2	16.8724
1810.45	14.9434
1810.7	12.0509
1810.95	14.9429
1811.21	11.0865
1811.46	13.0147
1811.71	10.123
1811.97	13.9809
1812.22	14.9472
1812.47	14.9499
1812.73	12.0585
1812.98	13.0238
1813.23	13.9904
1813.49	12.0633
1813.74	16.8934
1813.99	12.0699
1814.25	14.9722
1814.5	13.043
1814.75	14.978
1815.01	15.9458
1815.26	13.0474
1815.51	14.0145
1815.77	15.9486
1816.02	14.0161
1816.27	15.9513
1816.53	14.9834
1816.78	11.116
1817.03	16.908
1817.29	14.9693
1817.54	13.0382
1817.79	14.0063
1818.04	14.01
1818.3	14.0133
1818.55	15.945
1818.8	13.0468
1819.06	14.0149
1819.31	13.0501
1819.56	14.9849
1819.81	12.086
1820.07	14.0217
1820.32	13.0563
1820.57	15.9592
1820.83	14.0267
1821.08	15.964
1821.33	13.0635
1821.58	14.033
1821.84	14.0344
1822.09	15.0034
1822.34	15.0043
1822.6	14.0371
1822.85	16.9414
1823.1	14.036
1823.35	14.0347
1823.61	13.0661
1823.86	14.0351
1824.11	15.9725
1824.37	15.974
1824.62	13.0709
1824.87	13.0724
1825.12	11.1367
1825.38	15.9793
1825.63	15.0109
1825.88	14.0426
1826.14	15.0116
1826.39	14.0435
1826.64	14.0443
1826.89	14.0457
1827.15	13.0785
1827.4	13.08
1827.65	15.0182
1827.9	11.1421
1828.16	16.9541
1828.41	14.0457
1828.66	13.0757
1828.91	13.0751
1829.17	13.0747
1829.42	15.0109
1829.67	15.0094
1829.92	13.0711
1830.18	15.0061
1830.43	15.0057
1830.68	18.8802
1830.93	12.1044
1831.19	15.0116
1831.44	15.9822
1831.69	13.0781
1831.94	17.9244
1832.2	15.0206
1832.45	15.0231
1832.7	15.0238
1832.95	13.0855
1833.2	15.0254
1833.46	14.0569
1833.71	13.0883
1833.96	13.086
1834.21	10.1729
1834.47	15.0094
1834.72	16.9383
1834.97	14.9975
1835.22	14.9936
1835.47	13.058
1835.73	16.9243
1835.98	15.037
1836.23	12.1395
1836.48	16.0013
1836.74	15.0219
1836.99	14.044
1837.24	13.0668
1837.49	14.0217
1837.75	14.9779
1838	14.0088
1838.25	14.0276
1838.5	15.0101
1838.75	14.0472
1839.01	17.9257
1839.26	14.0518
1839.51	16.963
1839.76	15.014
1840.01	13.0664
1840.26	14.9932
1840.52	15.9522
1840.77	14.9782
1841.02	13.0397
1841.27	14.9654
1841.53	14.9598
1841.78	13.9898
1842.03	12.0562
1842.28	14.951
1842.53	13.9859
1842.79	15.9162
1843.04	12.0579
1843.29	13.0225
1843.54	13.0214
1843.79	15.9146
1844.04	13.9871
1844.3	13.023
1844.55	13.9858
1844.8	13.9859
1845.05	15.9153
1845.3	13.0262
1845.56	14.9626
1845.81	12.0715
1846.06	14.0123
1846.31	17.8715
1846.56	16.8836
1846.81	13.9656
1847.06	14.9209
1847.32	11.0698
1847.57	16.853
1847.82	13.0076
1848.07	14.9286
1848.32	14.924
1848.58	14.9241
1848.83	11.0709
1849.08	13.9552
1849.33	12.0265
1849.58	12.985
1849.83	12.0185
1850.08	14.8985
1850.34	12.9726
1850.59	14.8913
1850.84	14.8884
1851.09	12.9653
1851.34	14.8845
1851.59	14.8837
1851.85	14.8835
1852.1	12.9632
1852.35	12.9632
1852.6	13.9231
1852.85	14.8825
1853.1	14.8811
1853.36	13.9185
1853.61	14.8744
1853.86	12.951
1854.11	14.8651
1854.36	13.9037
1854.61	14.8606
1854.86	14.8567
1855.11	12.9352
1855.37	15.8063
1855.62	14.847
1855.87	11.9727
1856.12	13.8883
1856.37	13.8883
1856.62	15.8034
1856.87	13.8867
1857.13	13.8851
1857.38	14.841
1857.63	11.9668
1857.88	13.8788
1858.13	11.0048
1858.38	12.9157
1858.63	13.8691
1858.88	11.9531
1859.14	15.7749
1859.39	13.8622
1859.64	14.8184
1859.89	13.863
1860.14	14.8216
1860.39	15.781
1860.64	13.8701
1860.89	12.916
1861.14	12.9183
1861.39	15.7902
1861.64	12.9188
1861.9	11.0035
1862.15	14.8277
1862.4	11.955
1862.65	16.733
1862.9	12.9054
1863.15	13.8583
1863.4	12.9
1863.65	12.8977
1863.9	11.9402
1864.16	14.8032
1864.41	12.8905
1864.66	14.7966
1864.91	13.8379
1865.16	12.8794
1865.41	14.7819
1865.66	14.7758
1865.91	13.8166
1866.16	14.7632
1866.41	13.805
1866.66	12.8476
1866.92	14.7453
1867.17	13.7897
1867.42	15.6887
1867.67	10.9333
1867.92	13.7844
1868.17	13.7844
1868.42	13.7852
1868.67	12.8346
1868.92	14.7353
1869.17	13.7838
1869.42	15.6842
1869.67	15.6834
1869.92	14.7322
1870.17	15.682
1870.42	15.6816
1870.68	11.8798
1870.93	12.8295
1871.18	9.97742
1871.43	13.7761
1871.68	13.7743
1871.93	12.8231
1872.18	14.7204
1872.43	13.7679
1872.68	16.6139
1872.93	16.613
1873.18	12.8149
1873.43	13.7623
1873.68	13.7599
1873.93	14.7056
1874.18	12.805
1874.43	12.8017
1874.68	11.8502
1874.93	13.7424
1875.18	14.6852
1875.44	14.6775
1875.69	11.8318
1875.94	15.6132
1876.19	15.6093
1876.44	10.8775
1876.69	15.6001
1876.94	11.8112
1877.19	14.6306
1877.44	12.7483
1877.69	12.789
1877.94	13.731
1878.19	13.7203
1878.44	14.6645
1878.69	10.8884
1878.94	14.6842
1879.19	14.6816
1879.44	15.6238
1879.69	13.7287
1879.94	15.6215
1880.19	10.8896
1880.44	12.7817
1880.69	12.7806
1880.94	12.7761
1881.19	14.6617
1881.44	12.7635
1881.69	15.5916
1881.94	13.6938
1882.19	13.6845
1882.44	14.6231
1882.69	13.6707
1882.94	11.8489
1883.19	15.6023
1883.44	12.7275
1883.69	15.5501
1883.94	13.6725
1884.19	14.6104
1884.44	14.6137
1884.69	13.6777
1884.94	14.624
1885.19	13.6824
1885.44	11.8003
1885.69	14.6365
1885.94	15.5835
1886.19	12.7495
1886.44	14.6328
1886.69	13.6853
1886.94	15.5693
1887.19	14.6222
1887.44	15.5616
1887.69	13.6716
1887.94	13.6663
1888.19	15.5458
1888.44	14.5991
1888.69	15.5358
1888.94	14.5914
1889.19	11.767
1889.44	12.7075
1889.69	15.5325
1889.94	13.6527
1890.19	14.5982
1890.44	12.7157
1890.69	12.7155
1890.94	12.7141
1891.19	15.5394
1891.44	13.655
1891.69	11.7708
1891.94	14.5956
1892.19	15.5351
1892.44	13.6495
1892.69	12.7042
1892.94	13.6376
1893.19	14.5705
1893.43	12.6874
1893.69	13.6313
1893.93	13.6258
1894.18	14.5628
1894.43	14.5614
1894.68	13.6222
1894.93	12.6837
1895.18	15.5039
1895.43	12.6866
1895.68	13.6281
1895.93	14.5703
1896.18	15.5134
1896.43	14.5759
1896.68	13.6374
1896.93	13.6388
1897.18	14.5803
1897.43	13.6397
1897.68	12.6984
1897.93	14.5781
1898.17	12.695
1898.42	12.6923
1898.67	15.5087
1898.92	14.5658
1899.17	13.6246
1899.42	12.6835
1899.67	12.6817
1899.92	16.4386
1900.17	12.6815
1900.42	15.5011
1900.67	11.7451
1900.92	13.6273
1901.17	13.63
1901.42	12.6926
1901.67	15.5167
1901.91	13.6394
1902.16	15.5213
1902.41	14.5794
1902.66	12.697
1902.91	15.5167
1903.16	14.575
1903.41	13.6338
1903.66	12.6929
1903.91	11.7524
1904.16	16.4528
1904.41	15.5119
1904.66	14.5711
1904.9	13.6309
1905.15	15.5104
1905.4	12.6876
1905.65	14.5614
1905.9	17.3773
1906.15	12.6793
1906.4	12.6779
1906.65	13.6161
1906.9	13.6159
1907.15	12.6778
1907.39	14.5575
1907.64	14.5606
1907.89	12.6831
1908.14	13.6233
1908.39	11.7454
1908.64	12.687
1908.89	13.6295
1909.14	13.6329
1909.39	13.637
1909.63	12.7007
1909.88	15.5286
1910.13	11.768
1910.38	11.7708
1910.63	16.482
1910.88	13.658
1911.13	12.7168
1911.38	11.7748
1911.62	14.6001
1911.87	13.657
1912.12	16.4823
1912.37	13.6567
1912.62	13.6568
1912.87	13.6572
1913.12	13.659
1913.37	15.5473
1913.61	13.6673
1913.86	14.6136
1914.11	13.6736
1914.36	13.6767
1914.61	14.6229
1914.86	13.6817
1915.11	12.7391
1915.36	13.6826
1915.6	16.5123
1915.85	12.7373
1916.1	12.7359
1916.35	11.79
1916.6	15.56
1916.85	9.90037
1917.1	13.6704
1917.34	16.4978
1917.59	16.4979
1917.84	14.6143
1918.09	12.7314
1918.34	14.6214
1918.59	12.7386
1918.84	13.6867
1919.08	16.525
1919.33	13.6975
1919.58	12.7556
1919.83	13.7015
1920.08	14.6452
1920.32	11.8107
1920.57	13.7039
1920.82	13.7076
1921.07	13.7101
1921.32	13.712
1921.57	11.822
1921.82	12.768
1922.06	12.7672
1922.31	14.6566
1922.56	14.6544
1922.81	14.6529
1923.06	15.5971
1923.3	13.7053
1923.55	15.5937
1923.8	11.8114
1924.05	14.6441
1924.3	14.6434
1924.55	16.5334
1924.79	13.7008
1925.04	14.6486
1925.29	14.6529
1925.54	14.6573
1925.79	11.8235
1926.03	16.5575
1926.28	14.6698
1926.53	15.6199
1926.78	15.6225
1927.03	12.7839
1927.27	13.7327
1927.52	13.7344
1927.77	12.7886
1928.02	15.6318
1928.27	13.7387
1928.52	13.7406
1928.76	19.4295
1929.01	15.6417
1929.26	12.8017
1929.51	13.7537
1929.75	13.7578
1930	13.7614
1930.25	12.8157
1930.5	14.7161
1930.75	15.6661
1930.99	13.7664
1931.24	13.7648
1931.49	12.8138
1931.74	13.7611
1931.99	12.8103
1932.23	15.6547
1932.48	15.6537
1932.73	18.4978
1932.98	12.8065
1933.22	11.8609
1933.47	13.7651
1933.72	15.6737
1933.97	15.6871
1934.22	11.8945
1934.46	14.7605
1934.71	12.8642
1934.96	16.6844
1935.21	13.8293
1935.45	13.8226
1935.7	14.7725
1935.95	10.0067
1936.2	17.6289
1936.45	15.7201
1936.69	16.6689
1936.94	14.7607
1937.19	11.9014
1937.44	12.8511
1937.68	16.6556
1937.93	13.7998
1938.18	11.8999
1938.43	11.9019
1938.67	14.7605
1938.92	16.6679
1939.17	14.7651
1939.42	14.7675
1939.66	12.8629
1939.91	13.8186
1940.16	13.8221
1940.41	12.8765
1940.65	14.7908
1940.9	11.9288
1941.15	15.7443
1941.4	14.7854
1941.64	12.8704
1941.89	13.8265
1942.14	13.8395
1942.39	14.7996
1942.63	13.8457
1942.88	11.932
1943.13	16.6973
1943.37	15.7375
1943.62	13.8365
1943.87	13.8408
1944.12	12.8889
1944.36	14.8018
1944.61	10.9848
1944.86	10.9875
1945.1	12.9016
1945.35	11.9487
1945.6	13.8632
1945.85	14.8217
1946.09	12.9108
1946.34	13.8682
1946.59	15.781
1946.83	12.9108
1947.08	13.8658
1947.33	15.7778
1947.58	11.9528
1947.82	14.8214
1948.07	12.9081
1948.32	13.8647
1948.57	10.998
1948.81	11.0002
1949.06	12.9161
1949.31	13.8763
1949.55	15.7945
1949.8	13.8856
1950.05	14.85
1950.3	12.9388
1950.54	14.8614
1950.79	13.9084
1951.04	13.9138
1951.28	15.8381
1951.53	14.8815
1951.78	13.9236
1952.02	13.9259
1952.27	13.9259
1952.52	14.8886
1952.76	13.9315
1953.01	14.8894
1953.26	13.9238
1953.5	13.9154
1953.75	13.9075
1954	14.8587
1954.25	13.8936
1954.49	12.933
1954.74	12.9324
1954.98	14.8498
1955.23	15.8118
1955.48	12.9423
1955.72	13.9103
1955.97	16.7943
1956.22	15.8397
1956.47	15.8429
1956.71	12.005
1956.96	12.9682
1957.21	13.9316
1957.45	14.8947
1957.7	14.8964
1957.95	12.9753
1958.19	15.8597
1958.44	13.9365
1958.69	13.9341
1958.93	16.8151
1959.18	12.9711
1959.43	12.0087
1959.67	14.8885
1959.92	12.0051
1960.17	14.8839
1960.41	13.9211
1960.66	12.9587
1960.9	13.9165
1961.15	12.9553
1961.4	12.9556
1961.64	13.9161
1961.89	14.8765
1962.14	11.9977
1962.38	14.8779
1962.63	14.8785
1962.88	15.8391
1963.12	13.9198
1963.37	15.8405
1963.62	14.8823
1963.86	13.9238
1964.11	14.8841
1964.36	12.0025
1964.6	14.8833
1964.85	13.9227
1965.09	14.8831
1965.34	14.8845
1965.59	14.8872
1965.83	13.9299
1966.08	12.9722
1966.33	12.9744
1966.57	12.9763
1966.82	12.9761
1967.06	12.015
1967.31	12.9773
1967.56	15.862
1967.8	12.0172
1968.05	13.9399
1968.3	13.9388
1968.54	14.8978
1968.79	12.9724
1969.03	14.8898
1969.28	12.9644
1969.53	12.9609
1969.77	14.8779
1970.02	14.8757
1970.26	12.9542
1970.51	12.9521
1970.76	12.9506
1971	17.7455
1971.25	12.9484
1971.49	12.949
1971.74	11.9911
1971.99	13.9106
1972.23	14.87
1972.48	13.9096
1972.72	12.9484
1972.97	13.9046
1973.22	14.8607
1973.46	15.8173
1973.71	12.9402
1973.95	13.8982
1974.2	14.8567
1974.45	11.9816
1974.69	12.9412
1974.94	13.9016
1975.18	12.9448
1975.43	15.8237
1975.68	13.9073
1975.92	15.8267
1976.17	12.9497
1976.41	13.9091
1976.66	13.9089
1976.9	12.9489
1977.15	13.9066
1977.4	11.9867
1977.64	14.8612
1977.89	15.8178
1978.13	12.9404
1978.38	13.898
1978.63	11.0225
1978.87	13.8983
1979.12	11.9815
1979.36	13.899
1979.61	11.9823
1979.85	15.8154
1980.1	13.8961
1980.34	14.8519
1980.59	14.8505
1980.84	14.8487
1981.08	13.889
1981.33	14.8459
1981.57	13.8875
1981.82	15.8025
1982.06	13.8853
1982.31	14.8403
1982.55	15.7944
1982.8	11.962
1983.05	13.8727
1983.29	14.8278
1983.54	12.9136
1983.78	15.7819
1984.03	16.7367
1984.27	15.779
1984.52	15.7767
1984.76	12.905
1985.01	12.903
1985.25	12.9029
1985.5	14.8153
1985.75	14.8173
1985.99	11.9514
1986.24	15.7776
1986.48	15.7773
1986.73	14.8218
1986.97	12.9079
1987.22	14.816
1987.46	12.9001
1987.71	11.9401
1987.95	16.7091
1988.2	14.7898
1988.44	9.05826
1988.69	15.7233
1988.93	12.8762
1989.18	13.8341
1989.42	12.9145
1989.67	13.7882
1989.91	11.0189
1990.16	16.583
1990.41	12.8753
1990.65	12.9927
1990.89	15.4715
1991.14	13.7192
1991.39	12.7938
1991.63	14.7813
1991.88	12.2857
1992.12	11.3624
1992.37	16.1098
1992.61	14.4687
1992.86	14.4464
1993.1	14.5942
1993.35	15.9353
1993.59	13.0402
1993.84	12.6919
1994.08	13.0032
1994.33	14.4585
1994.57	13.9956
1994.82	12.6027
1995.06	13.098
1995.31	15.1417
1995.55	12.8496
1995.8	12.3302
1996.04	13.7952
1996.29	14.9662
1996.53	13.7688
1996.78	12.2533
1997.02	13.4407
1997.26	14.3072
1997.51	13.1735
1997.76	14.6362
1998	13.5848
1998.24	15.0864
1998.49	13.8695
1998.73	14.0826
1998.98	15.081
1999.22	13.8953
1999.47	13.1209
1999.71	14.6718
1999.96	13.1803
2000.2	14.0953
2000.45	14.0503
2000.69	13.2836
2000.94	13.1675
2001.18	14.2425
2001.43	13.1716
2001.67	14.5683
2001.92	14.1542
2002.16	13.8537
2002.4	14.9438
2002.65	14.3836
2002.89	14.2763
2003.14	14.0277
2003.38	14.3995
2003.63	13.7601
2003.87	13.9808
2004.12	14.5226
2004.36	15.7014
2004.6	14.4501
2004.85	12.4105
2005.1	14.2451
2005.34	14.3684
2005.58	15.217
2005.83	14.2015
2006.07	13.9545
2006.32	12.5381
2006.56	12.9189
2006.81	14.4977
2007.05	14.0289
2007.3	13.1595
2007.54	12.5612
2007.78	13.8534
2008.03	15.8264
2008.27	14.5766
2008.52	13.5239
2008.76	14.1663
2009	12.4367
2009.25	11.8783
2009.49	14.0155
2009.74	13.0564
2009.98	14.3947
2010.23	13.538
2010.47	12.4124
2010.72	14.3272
2010.96	13.932
2011.2	15.9568
2011.45	10.1927
2011.69	13.5156
2011.94	11.0089
2012.18	13.6284
2012.42	13.6502
2012.67	13.6462
2012.92	11.7574
2013.16	12.6945
2013.41	12.69
2013.66	15.5032
2013.91	13.6171
2014.15	11.7325
2014.4	16.4228
2014.65	11.7309
2014.9	14.5481
2015.14	13.6121
2015.39	12.675
2015.64	12.6747
2015.88	16.4303
2016.13	14.5655
2016.38	13.6285
2016.63	10.8083
2016.87	9.86714
2017.12	13.623
2017.37	11.7405
2017.61	15.4916
2017.86	11.7312
2018.11	14.5411
2018.35	15.4737
2018.6	11.7178
2018.85	12.6504
2019.1	15.458
2019.34	15.456
2019.59	13.5811
2019.84	13.5809
2020.08	12.6438
2020.33	14.5163
2020.58	12.6437
2020.82	12.6446
2021.07	13.5815
2021.32	11.7078
2021.57	14.5164
2021.81	14.5145
2022.06	14.5119
2022.31	11.7003
2022.55	13.5686
2022.8	13.5655
2023.05	12.6272
2023.29	15.4298
2023.54	13.5566
2023.79	12.6191
2024.03	13.5498
2024.28	12.6109
2024.53	10.739
2024.77	11.669
2025.02	13.532
2025.27	11.6623
2025.51	14.4563
2025.76	14.4565
2026.01	13.5284
2026.25	14.4701
2026.5	13.5468
2026.75	14.4935
2026.99	14.5022
2027.24	15.4376
2027.49	13.5588
2027.73	13.5468
2027.98	11.6498
2028.23	12.6036
2028.47	15.4612
2028.72	13.57
2028.97	14.5153
2029.21	11.6888
2029.46	13.5431
2029.71	18.1905
2029.95	15.3911
2030.2	15.3767
2030.45	12.5889
2030.69	14.4642
2030.94	12.5962
2031.19	12.5962
2031.43	13.5291
2031.68	12.5997
2031.92	12.6038
2032.17	15.4105
2032.42	12.613
2032.66	15.4202
2032.91	15.4233
2033.16	10.7526
2033.4	14.4971
2033.65	13.5545
2033.89	12.6128
2034.14	15.3979
2034.39	13.5255
2034.64	12.5986
2034.88	8.86851
2035.13	14.4773
2035.37	14.4885
2035.62	11.6908
2035.87	13.5633
2036.11	14.4899
2036.36	10.7497
2036.6	13.5583
2036.85	13.5583
2037.1	12.6228
2037.34	13.5565
2037.59	14.4898
2037.84	14.4877
2038.08	15.42
2038.33	12.6144
2038.57	15.4151
2038.82	14.4784
2039.07	11.6741
2039.31	14.4729
2039.56	13.5353
2039.8	12.5983
2040.05	15.3939
2040.3	15.3901
2040.54	12.5892
2040.79	14.4516
2041.03	14.4502
2041.28	14.4494
2041.53	13.5156
2041.77	13.5138
2042.02	12.5795
2042.26	13.5096
2042.51	12.578
2042.76	17.2376
2043	14.4458
2043.25	10.7221
2043.49	13.525
2043.74	12.5949
2043.99	14.4605
2044.23	11.6593
2044.48	11.6544
2044.72	12.5766
2044.97	13.5184
2045.22	11.6612
2045.46	15.4104
2045.71	15.4364
2045.95	14.4956
2046.2	14.4803
2046.44	16.336
2046.69	13.5342
2046.94	15.3977
2047.18	13.5215
2047.43	13.517
2047.67	14.4493
2047.92	12.5856
2048.16	13.5188
2048.41	15.385
2048.66	15.3889
2048.9	13.5265
2049.15	12.5971
2049.39	13.5352
2049.64	15.4067
2049.88	13.5431
2050.13	14.4798
2050.37	12.6124
2050.62	13.5461
2050.87	11.6755
2051.11	14.4736
2051.36	11.6716
2051.6	15.4068
2051.85	14.475
2052.09	13.5421
2052.34	15.4117
2052.58	15.4141
2052.83	11.6797
2053.08	14.4864
2053.32	14.4932
2053.57	12.6261
2053.81	11.6926
2054.06	14.4996
2054.3	12.6285
2054.55	14.4987
2054.79	11.692
2055.04	12.6243
2055.29	16.3627
2055.53	13.5571
2055.78	13.5559
2056.02	13.5543
2056.27	13.5534
2056.51	13.5532
2056.76	13.5538
2057	13.5548
2057.25	12.6216
2057.49	12.6237
2057.74	15.431
2057.98	15.435
2058.23	13.5673
2058.47	13.5703
2058.72	11.7007
2058.96	14.5099
2059.21	13.5745
2059.45	14.5115
2059.7	12.6375
2059.95	13.5718
2060.19	13.5696
2060.44	12.6352
2060.68	14.5094
2060.93	12.6387
2061.17	12.6394
2061.42	15.4486
2061.66	12.6402
2061.91	13.5774
2062.15	13.5789
2062.4	11.7076
2062.64	12.6465
2062.89	11.7119
2063.13	15.4619
2063.38	11.715
2063.62	13.5907
2063.87	12.6545
2064.11	12.6559
2064.36	13.5955
2064.6	13.5983
2064.85	13.6026
2065.09	16.4218
2065.34	12.6715
2065.58	12.6742
2065.83	11.7372
2066.07	11.738
2066.32	14.5563
2066.56	10.8013
2066.81	16.4383
2067.05	14.5615
2067.29	13.6243
2067.54	10.8072
2067.78	12.6882
2068.03	10.8092
2068.27	11.7507
2068.52	13.6317
2068.76	13.63
2069.01	13.6264
2069.25	12.6814
2069.5	13.6175
2069.74	9.86159
2069.99	12.6838
2070.23	15.5105
2070.48	14.5782
2070.72	15.5197
2070.97	10.8136
2071.21	13.6462
2071.46	17.4222
2071.7	11.7714
2071.94	14.5953
2072.19	12.7116
2072.43	14.5938
2072.68	17.4181
2072.92	13.6515
2073.17	12.7104
2073.41	15.5356
2073.66	11.7701
2073.9	13.6547
2074.15	15.541
2074.39	10.8344
2074.64	14.6079
2074.88	14.6143
2075.13	12.7354
2075.37	15.5717
2075.61	13.6872
2075.86	14.632
2076.1	14.6327
2076.35	12.7436
2076.59	12.7411
2076.84	14.6255
2077.08	12.7327
2077.32	11.7875
2077.57	12.7317
2077.81	13.6778
2078.06	13.6793
2078.3	14.624
2078.55	9.90799
2078.79	15.5729
2079.03	11.8036
2079.28	13.6953
2079.52	13.6978
2079.77	12.7553
2080.01	13.7022
2080.26	13.7028
2080.5	14.6463
2080.74	14.6452
2080.99	13.6999
2081.23	13.7
2081.48	14.6439
2081.72	9.92089
2081.97	15.5913
2082.21	14.6473
2082.45	14.6478
2082.7	13.7027
2082.94	13.7022
2083.19	14.6465
2083.43	14.6465
2083.67	12.7569
2083.92	14.6467
2084.16	13.7019
2084.41	13.7025
2084.65	14.6477
2084.89	13.7026
2085.14	12.7578
2085.38	13.7033
2085.63	13.7067
2085.87	12.7656
2086.12	15.6068
2086.36	14.6625
2086.6	10.8799
2086.85	10.8817
2087.09	14.6686
2087.34	12.776
2087.58	14.6691
2087.82	15.6159
2088.07	12.7772
2088.31	10.8849
2088.56	14.6718
2088.8	12.7804
2089.04	13.7296
2089.29	13.733
2089.53	11.8405
2089.77	12.7885
2090.02	15.6315
2090.26	14.6855
2090.51	14.6872
2090.75	13.7412
2090.99	14.6906
2091.24	14.6941
2091.48	15.6468
2091.72	15.6518
2091.97	12.8103
2092.21	12.8148
2092.45	13.7681
2092.7	12.8219
2092.94	13.7753
2093.19	14.7291
2093.43	14.7323
2093.67	14.7352
2093.92	14.7365
2094.16	13.7859
2094.41	12.8347
2094.65	13.7845
2094.89	15.6834
2095.14	14.7303
2095.38	12.8277
2095.62	13.7763
2095.87	14.7252
2096.11	14.7246
2096.35	15.674
2096.6	12.8227
2096.84	13.7699
2097.08	13.7671
2097.33	13.7657
2097.57	14.7143
2097.81	13.7645
2098.06	10.915
2098.3	14.7115
2098.55	13.7621
2098.79	11.8632
2099.03	11.8627
2099.28	11.8625
2099.52	14.7096
2099.76	16.6081
2100	10.9145
2100.25	13.7628
2100.49	12.817
2100.74	11.8701
2100.98	12.8215
2101.22	12.8225
2101.47	12.8227
2101.71	14.7219
2101.95	15.672
2102.2	12.822
2102.44	13.7698
2102.68	10.9185
2102.92	13.7649
2103.17	12.8155
2103.41	16.6115
2103.65	13.764
2103.9	11.8664
2104.14	14.7167
2104.39	13.7694
2104.63	12.8216
2104.87	12.8238
2105.11	14.727
2105.36	14.7303
2105.6	13.7815
2105.84	14.7336
2106.09	16.6358
2106.33	12.8338
2106.57	12.835
2106.82	15.6883
2107.06	12.8347
2107.3	10.9313
2107.54	12.8292
2107.79	13.7756
2108.03	13.7719
2108.27	13.7687
2108.52	15.6663
2108.76	9.96968
2109	14.7203
2109.25	13.7744
2109.49	14.7246
2109.73	14.7247
2109.97	10.9248
2110.22	12.8248
2110.46	12.8248
2110.7	13.7748
2110.95	13.7741
2111.19	14.7221
2111.43	15.6701
2111.68	13.7699
2111.92	12.82
2112.16	12.8211
2112.4	14.7223
2112.65	12.8241
2112.89	11.8769
2113.13	15.6811
2113.38	12.8315
2113.62	11.8807
2113.86	13.7803
2114.1	13.7799
2114.35	13.7805
2114.59	13.781
2114.83	12.8301
2115.07	13.7793
2115.32	12.828
2115.56	14.7273
2115.8	14.7247
2116.04	11.8723
2116.29	13.7704
2116.53	10.9208
2116.77	14.7187
2117.02	15.6688
2117.26	12.819
2117.5	11.8677
2117.74	12.815
2117.99	15.6589
2118.23	14.7055
2118.47	14.702
2118.71	12.8022
2118.96	14.6958
2119.2	15.6406
2119.44	11.8468
2119.68	16.583
2119.93	13.7392
2120.17	14.6871
2120.41	12.7938
2120.65	12.7953
2120.9	13.7459
2121.14	15.6458
2121.38	14.701
2121.62	15.6528
2121.86	14.707
2122.11	14.7095
2122.35	14.7116
2122.59	12.8149
2122.84	13.7654
2123.08	13.7661
2123.32	13.7653
2123.56	15.6623
2123.81	14.7108
2124.05	15.6561
2124.29	13.7532
2124.53	15.6427
2124.77	15.6355
2125.02	17.5245
2125.26	12.7842
2125.5	14.6738
2125.74	15.6162
2125.98	15.6129
2126.23	13.7175
2126.47	15.6063
2126.71	15.6027
2126.95	14.6557
2127.2	14.6549
2127.44	15.5997
2127.68	12.762
2127.92	13.7063
2128.16	13.7063
2128.41	14.6518
2128.65	14.6513
2128.89	13.705
2129.13	12.7589
2129.38	16.5386
2129.62	14.6478
2129.86	12.7571
2130.1	15.5909
2130.34	12.755
2130.58	13.6982
2130.83	13.6962
2131.07	15.5829
2131.31	15.5806
2131.55	14.6348
2131.79	14.6334
2132.04	15.5746
2132.28	13.684
2132.52	14.6261
2132.76	16.513
2133	14.6264
2133.25	15.5707
2133.49	13.6836
2133.73	14.6278
2133.97	13.6848
2134.21	16.5157
2134.46	14.6278
2134.7	14.6274
2134.94	15.5704
2135.18	15.5691
2135.42	13.6797
2135.67	13.6759
2135.91	15.5572
2136.15	14.6118
2136.39	14.612
2136.63	14.613
2136.87	12.7276
2137.12	15.5574
2137.36	14.6176
2137.6	14.6176
2137.84	12.728
2138.08	16.4953
2138.32	11.7836
2138.57	13.6736
2138.81	14.6203
2139.05	13.6725
2139.29	13.6659
2139.53	16.4904
2139.77	12.7192
2140.02	15.5436
2140.26	14.6
2140.5	14.5987
2140.74	11.7723
2140.98	11.7722
2141.22	13.6538
2141.46	14.5919
2141.71	15.5316
2141.95	15.5315
2142.19	14.5926
2142.43	15.5368
2142.67	11.7785
2142.91	14.6035
2143.15	15.5118
2143.4	12.6843
2143.64	12.6876
2143.88	14.5718
2144.12	14.5771
2144.36	12.6991
2144.6	15.5143
2144.85	15.5134
2145.09	13.634
2145.33	14.5737
2145.57	12.6922
2145.81	15.5114
2146.05	13.6301
2146.29	13.629
2146.53	13.6277
2146.78	16.4451
2147.02	14.5636
2147.26	14.5618
2147.5	13.6209
2147.74	13.6193
2147.98	15.4961
2148.22	14.5551
2148.46	12.6751
2148.7	14.55
2148.95	20.1776
2149.19	13.6027
2149.43	12.6614
2149.67	13.5955
2149.91	12.6552
2150.15	14.5283
2150.39	11.716
2150.63	14.5289
2150.88	13.5938
2151.12	13.5953
2151.36	14.5353
2151.6	14.5363
2151.84	12.6628
2152.08	13.599
2152.32	11.7217
2152.56	13.5946
2152.8	12.6548
2153.05	15.4656
2153.29	12.6527
2153.53	12.6507
2153.77	13.5847
2154.01	13.5802
2154.25	15.4466
2154.49	14.5049
2154.73	15.4332
2154.97	14.4932
2155.21	14.4887
2155.45	13.5504
2155.7	14.4819
2155.94	12.6118
2156.18	15.4137
2156.42	12.6109
2156.66	11.6767
2156.9	12.6117
2157.14	14.482
2157.38	12.6157
2157.62	14.4874
2157.86	14.4882
2158.1	13.5535
2158.34	15.4224
2158.59	17.2904
2158.83	14.4848
2159.07	11.6794
2159.31	14.4797
2159.55	15.4101
2159.79	14.4724
2160.03	15.4027
2160.27	13.5329
2160.51	12.598
2160.75	13.5305
2160.99	13.5294
2161.23	13.5279
2161.47	12.5944
2161.72	16.326
2161.95	14.4603
2162.2	14.4602
2162.44	11.6606
2162.68	14.4572
2162.92	14.4556
2163.16	10.724
2163.4	13.5201
2163.64	12.5862
2163.88	14.4482
2164.12	13.5122
2164.36	15.3732
2164.6	13.5097
2164.84	11.6478
2165.08	13.5117
2165.32	11.6482
2165.56	14.444
2165.8	14.4427
2166.04	14.441
2166.28	14.439
2166.53	12.5734
2166.76	14.4339
2167.01	13.4997
2167.25	11.6343
2167.49	13.4897
2167.73	13.4834
2167.97	13.4806
2168.21	15.3394
2168.45	14.4104
2168.69	13.4824
2168.93	15.3451
2169.17	13.4888
2169.41	13.4934
2169.65	16.2915
2169.89	13.5021
2170.13	15.3662
2170.37	12.5718
2170.61	13.5007
2170.85	12.5682
2171.09	14.4251
2171.33	15.3456
2171.57	10.6908
2171.81	12.5474
2172.05	12.5452
2172.29	11.6143
2172.53	12.5428
2172.77	12.5426
2173.01	14.4006
2173.25	14.4015
2173.49	13.4741
2173.73	10.6874
2173.97	11.6174
2174.21	15.3353
2174.45	11.6176
2174.69	12.5469
2174.93	14.4048
2175.17	11.616
2175.41	11.6156
2175.65	12.5443
2175.89	13.4725
2176.13	14.3993
2176.37	14.3983
2176.61	12.5404
2176.85	12.5407
2177.09	13.47
2177.33	14.3986
2177.57	12.5414
2177.81	14.3985
2178.05	14.3945
2178.29	15.3197
2178.53	13.4622
2178.77	13.4629
2179.01	14.3917
2179.25	14.3919
2179.49	12.5349
2179.73	11.6063
2179.97	15.32
2180.21	14.3907
2180.45	12.5329
2180.69	13.461
2180.93	13.4603
2181.17	12.5306
2181.41	13.457
2181.65	13.4565
2181.89	14.3827
2182.13	14.3812
2182.37	16.2357
2182.61	12.5222
2182.85	13.447
2183.09	14.37
2183.33	17.1474
2183.57	13.4378
2183.81	14.3622
2184.05	13.4349
2184.28	12.5086
2184.53	15.2899
2184.76	13.4377
2185	13.4386
2185.24	14.3672
2185.48	13.4425
2185.72	11.5906
2185.96	16.2295
2186.2	13.4511
2186.44	10.6714
2186.68	13.4593
2186.92	15.3204
2187.16	13.4666
2187.4	14.3967
2187.64	13.4667
2187.88	13.4644
2188.12	14.3902
2188.36	14.3872
2188.6	14.3838
2188.84	13.4522
2189.07	11.593
2189.31	13.4437
2189.55	16.223
2189.79	13.441
2190.03	15.2955
2190.27	12.5152
2190.51	13.4439
2190.75	11.5894
2190.99	13.4445
2191.23	12.5184
2191.47	12.5196
2191.71	16.2306
2191.95	16.232
2192.19	11.5953
2192.42	11.5971
2192.67	12.5273
2192.9	14.3855
2193.14	15.317
2193.38	14.3943
2193.62	11.6143
2193.86	13.4774
2194.1	14.4098
2194.34	14.4097
2194.58	16.2669
2194.82	13.477
2195.06	11.6164
2195.3	13.4723
2195.53	13.4686
2195.77	14.3926
2196.01	18.1008
2196.25	14.3841
2196.49	15.3091
2196.73	14.3789
2196.97	13.4492
2197.21	13.4488
2197.45	14.377
2197.69	14.3782
2197.92	15.3093
2198.16	14.3853
2198.4	12.5328
2198.64	12.5372
2198.88	12.5411
2199.12	17.1915
2199.36	14.4086
2199.6	16.2752
2199.84	12.562
2200.07	13.4992
2200.31	19.0932
2200.55	13.5093
2200.79	15.3766
2201.03	13.5089
2201.27	13.4961
2201.51	14.3989
2201.75	12.5205
2201.99	15.3073
2202.23	15.3344
2202.46	15.3497
2202.7	12.5551
2202.94	11.6228
2203.18	12.5541
2203.42	14.4749
2203.66	16.3191
2203.9	13.5192
2204.14	14.4563
2204.37	15.3792
2204.61	12.5715
2204.85	15.3526
2205.09	14.413
2205.33	14.4105
2205.57	14.4103
2205.8	14.4136
2206.05	15.3459
2206.28	12.55
2206.52	13.4804
2206.76	14.4122
2207	14.4149
2207.24	11.6274
2207.48	14.4211
2207.71	14.4243
2207.95	13.4966
2208.19	15.3611
2208.43	12.5702
2208.67	13.5029
2208.91	12.5726
2209.15	13.5042
2209.38	13.5038
2209.62	13.5041
2209.86	15.3687
2210.1	12.5762
2210.34	14.4418
2210.58	17.2399
2210.81	16.3106
2211.05	14.449
2211.29	13.5196
2211.53	12.5903
2211.77	13.525
2212.01	13.5265
2212.24	12.5929
2212.48	14.4572
2212.72	14.4557
2212.96	14.454
2213.2	14.4509
2213.44	15.3837
2213.67	14.4541
2213.91	15.3922
2214.15	12.5996
2214.39	13.5345
2214.63	14.4693
2214.87	12.6032
2215.1	15.4048
2215.34	15.4053
2215.58	12.6045
2215.82	12.6044
2216.06	13.5378
2216.29	15.4045
2216.53	14.4703
2216.77	15.4038
2217.01	13.5372
2217.25	14.4716
2217.49	15.4055
2217.72	14.4716
2217.96	13.5385
2218.2	14.4736
2218.44	13.5417
2218.68	12.61
2218.91	16.3496
2219.15	15.4174
2219.39	13.5502
2219.63	14.4865
2219.87	15.4211
2220.1	15.4204
2220.34	12.6163
2220.58	14.4842
2220.82	13.5469
2221.06	13.5432
2221.29	12.6063
2221.53	11.6703
2221.77	14.4692
2222.01	16.3356
2222.25	15.4031
2222.48	14.4717
2222.72	13.5401
2222.96	15.4103
2223.2	13.5456
2223.43	13.5496
2223.67	15.4234
2223.91	16.363
2224.15	12.6262
2224.39	12.6292
2224.62	11.6963
2224.86	14.507
2225.1	14.5112
2225.34	14.5148
2225.58	14.5179
2225.81	14.5211
2226.05	14.5237
2226.29	12.6522
2226.53	13.5923
2226.76	11.7195
2227	15.4718
2227.24	16.4109
2227.48	15.4731
2227.72	14.5343
2227.95	10.7828
2228.19	15.47
2228.43	13.5941
2228.67	16.4059
2228.9	13.5934
2229.14	14.533
2229.38	15.4746
2229.62	18.2929
2229.85	14.5434
2230.09	13.6077
2230.33	11.7333
2230.57	12.6747
2230.8	12.6777
2231.04	11.7416
2231.28	15.5022
2231.52	14.5656
2231.75	12.6888
2231.99	13.6315
2232.23	10.8133
2232.47	11.7559
2232.7	12.6988
2232.94	14.5828
2233.18	12.7036
2233.42	13.6468
2233.65	13.6485
2233.89	12.707
2234.13	15.5296
2234.37	10.8225
2234.6	14.5844
2234.84	14.5797
2235.08	14.5757
2235.31	13.6351
2235.55	13.6358
2235.79	15.5175
2236.03	11.7564
2236.26	15.5193
2236.5	15.5202
2236.74	14.5827
2236.97	13.6449
2237.21	13.6499
2237.45	10.8304
2237.69	14.6033
2237.92	14.6077
2238.16	15.5543
2238.4	12.7302
2238.64	12.7348
2238.87	14.6234
2239.11	12.7357
2239.35	16.5071
2239.58	15.5601
2239.82	13.6703
2240.06	14.6114
2240.29	16.5015
2240.53	13.6796
2240.77	15.5676
2241.01	14.6251
2241.24	11.7954
2241.48	12.74
2241.72	15.5725
2241.96	14.6304
2242.19	14.6323
2242.43	11.8009
2242.67	12.7445
2242.9	12.7432
2243.14	15.5726
2243.38	14.6276
2243.61	15.5709
2243.85	12.7402
2244.09	13.6858
2244.32	11.8014
2244.56	13.6951
2244.8	13.7005
2245.03	13.7041
2245.27	13.7069
2245.51	14.6554
2245.75	14.6585
2245.98	12.7695
2246.22	15.609
2246.46	15.6112
2246.69	13.7212
2246.93	12.7764
2247.17	13.7237
2247.4	13.7237
2247.64	13.7231
2247.88	15.6151
2248.11	11.829
2248.35	11.8284
2248.59	13.7202
2248.82	14.6659
2249.06	14.6679
2249.3	12.7773
2249.53	14.6704
2249.77	12.7761
2250.01	14.6662
2250.24	11.8252
2250.48	15.6058
2250.72	12.7659
2250.95	13.7096
2251.19	14.6541
2251.43	14.6546
2251.66	15.6017
2251.9	15.6042
2252.14	12.7696
2252.37	13.7197
2252.61	13.7268
2252.85	10.8915
2253.08	14.6844
2253.32	13.7405
2253.55	14.6911
2253.79	13.746
2254.03	14.6963
2254.26	11.8524
2254.5	13.7477
2254.74	15.6444
2254.97	12.8003
2255.21	12.8007
2255.45	14.6979
2255.68	15.6486
2255.92	14.7031
2256.16	15.6546
2256.39	15.6573
2256.63	12.8127
2256.87	13.7642
2257.1	14.7159
2257.34	13.7682
2257.57	11.87
2257.81	13.7699
2258.05	14.7206
2258.28	14.722
2258.52	12.8242
2258.76	11.8762
2258.99	12.8277
2259.23	14.7295
2259.47	16.632
2259.7	15.6834
2259.94	13.7839
2260.17	13.7853
2260.41	12.8365
2260.64	13.7916
2260.88	12.8435
2261.12	12.8445
2261.35	13.7969
2261.59	17.6044
2261.83	11.896
2262.06	13.8013
2262.3	12.8522
2262.53	13.8074
2262.77	12.8586
2263.01	13.8154
2263.24	14.7734
2263.48	15.7328
2263.71	15.7389
2263.95	13.8362
2264.19	15.7495
2264.42	14.7988
2264.66	13.8471
2264.89	14.8049
2265.13	12.8954
2265.37	14.8065
2265.6	12.8953
2265.84	10.9827
2266.07	13.8446
2266.31	13.8413
2266.55	14.7926
2266.78	14.7901
2267.02	10.9717
2267.25	11.924
2267.49	14.7827
2267.73	12.873
2267.96	16.686
2268.2	12.8724
2268.43	11.9205
2268.67	12.8768
2268.91	11.9262
2269.14	15.7471
2269.38	11.9333
2269.61	12.8925
2269.85	17.6734
2270.08	12.8996
2270.32	15.7683
2270.56	12.9042
2270.79	15.7749
2271.03	14.8209
2271.26	14.823
2271.5	13.8695
2271.73	13.8712
2271.97	14.8283
2272.2	14.8291
2272.44	12.9165
2272.68	13.8741
2272.91	14.8319
2273.15	15.7898
2273.38	14.8337
2273.62	12.9205
2273.85	16.7497
2274.09	14.8363
2274.33	14.8372
2274.56	14.8382
2274.8	11.9672
2275.03	12.9256
2275.27	14.84
2275.5	13.8845
2275.74	16.7612
2275.97	15.8075
2276.21	12.9364
2276.45	13.8976
2276.68	12.942
2276.92	14.8643
2277.15	12.9512
2277.39	14.8758
2277.62	14.8828
2277.86	12.9647
2278.09	14.8868
2278.33	12.9663
2278.56	13.9264
2278.8	15.8465
2279.03	14.8842
2279.27	13.9175
2279.5	12.9538
2279.74	12.9503
2279.98	12.9473
2280.21	11.9859
2280.45	13.9016
2280.68	15.8176
2280.92	13.8986
2281.15	14.8553
2281.39	16.7743
2281.62	12.941
2281.86	15.8191
2282.09	13.9044
2282.33	15.8261
2282.56	12.9517
2282.8	14.8746
2283.03	12.9603
2283.27	13.9272
2283.5	13.933
2283.74	11.056
2283.97	17.7912
2284.21	15.8695
2284.44	16.8352
2284.68	13.9528
2284.91	13.954
2285.15	16.8423
2285.38	12.9905
2285.62	12.9848
2285.85	12.9842
2286.09	13.9471
2286.32	15.8728
2286.56	12.9931
2286.79	13.9617
2287.03	17.8163
2287.26	14.9283
2287.5	13.9699
2287.74	13.0058
2287.97	14.9304
2288.2	13.0021
2288.44	13
2288.67	16.8471
2288.91	12.9913
2289.14	14.9113
2289.38	12.0197
2289.61	16.8252
2289.85	15.862
2290.08	13.9395
2290.32	12.9783
2290.55	12.9801
2290.79	13.9451
2291.02	15.8743
2291.26	14.9159
2291.49	15.8811
2291.73	13.9587
2291.96	14.9242
2292.2	14.9279
2292.43	15.8948
2292.67	14.9342
2292.9	15.9003
2293.14	15.9023
2293.37	13.976
2293.6	14.9389
2293.84	15.901
2294.07	14.9352
2294.31	15.8957
2294.54	13.967
2294.78	14.9283
2295.01	14.9262
2295.25	12.9985
2295.48	12.0343
2295.72	13.9573
2295.95	13.9508
2296.19	14.9118
2296.42	14.913
2296.65	14.9152
2296.89	12.9931
2297.12	13.9587
2297.36	12.9996
2297.59	14.931
2297.83	13.9712
2298.06	12.0458
2298.3	14.9397
2298.53	15.9079
2298.77	13.0186
2299	14.9501
2299.23	15.9168
2299.47	15.9164
2299.7	13.0229
2299.94	15.9162
2300.17	12.0591
2300.41	14.9561
2300.64	15.9232
2300.87	13.0297
2301.11	14.9613
2301.34	14.9618
2301.58	16.8921
2301.81	16.8908
2302.05	13.0289
2302.28	15.9248
2302.51	14.9596
2302.75	14.9587
2302.98	14.9585
2303.22	13.0286
2303.45	13.995
2303.69	13.0321
2303.92	13.9999
2304.15	13.036
2304.39	12.072
2304.62	14.0064
2304.86	14.9744
2305.09	13.0429
2305.33	14.9765
2305.56	14.9784
2305.79	13.0476
2306.03	14.0149
2306.26	11.1156
2306.5	16.9149
2306.73	11.1153
2306.97	14.9804
2307.2	10.1467
2307.43	14.9774
2307.67	14.01
2307.9	16.9069
2308.13	13.0426
2308.37	14.0091
2308.6	15.9439
2308.84	16.9132
2309.07	15.9505
2309.3	14.9888
2309.54	17.8942
2309.77	15.9616
2310.01	14.0274
2310.24	14.0273
2310.47	15.9606
2310.71	16.9245
2310.94	13.0496
2311.18	14.9721
2311.41	14.9669
2311.64	13.032
2311.88	16.891
2312.11	13.993
2312.34	13.991
2312.58	13.9906
2312.81	17.852
2313.05	12.0655
2313.28	14.0018
2313.51	15.938
2313.75	15.9428
2313.98	12.0817
2314.21	14.0199
2314.45	15.9598
2314.68	13.0604
2314.92	11.1235
2315.15	13.0545
2315.39	14.9855
2315.62	13.0486
2315.85	14.9742
2316.09	14.0033
2316.32	15.9325
2316.55	14.0008
2316.79	13.0359
2317.02	14.0024
2317.25	12.0739
2317.49	15.941
2317.72	14.0052
2317.95	13.0365
2318.19	14.0005
2318.42	13.9983
2318.66	16.8918
2318.89	17.8544
2319.12	14.9574
2319.35	16.8862
2319.59	14.9563
2319.82	18.8166
2320.06	16.8868
2320.29	17.8532
2320.52	20.7515
2320.76	13.9976
2320.99	14.0003
2321.22	14.9691
2321.46	15.9393
2321.69	16.9107
2321.92	16.9154
2322.16	14.0175
2322.39	17.8841
2322.62	17.8846
2322.86	18.8529
2323.09	14.9866
2323.32	18.8555
2323.56	17.8894
2323.79	17.8889
2324.02	18.855
2324.26	19.8179
2324.49	17.879
2324.72	22.7032
2324.96	22.6974
2325.19	23.6586
2325.42	25.585
2325.66	27.5104
2325.89	33.295
2326.12	38.1121
2326.36	40.0333
2326.59	55.4559
2326.82	66.0502
2327.06	85.3213
2327.29	110.37
2327.52	169.149
2327.76	204.816
2327.99	203.857
2328.22	152.776
2328.46	99.7464
2328.69	76.6014
2328.92	51.5365
2329.15	39.0087
2329.39	34.1914
2329.62	30.3421
2329.85	25.5252
2330.09	26.4861
2330.32	22.6317
2330.55	19.7417
2330.78	19.7428
2331.02	16.8561
2331.25	18.7857
2331.48	16.8629
2331.72	16.8598
2331.95	14.9296
2332.18	15.8905
2332.42	16.8513
2332.65	12.9979
2332.88	16.847
2333.12	13.9574
2333.35	14.9186
2333.58	13.9543
2333.81	14.9143
2334.05	17.7965
2334.28	13.9463
2334.51	15.8682
2334.74	14.9059
2334.98	15.8668
2335.21	14.9056
2335.44	12.9833
2335.68	12.9831
2335.91	15.8668
2336.14	13.9425
2336.37	14.9035
2336.61	13.9415
2336.84	15.8637
2337.07	13.9403
2337.3	14.9006
2337.54	13.9383
2337.77	15.8601
2338	16.8206
2338.24	16.8201
2338.47	12.0147
2338.7	13.9375
2338.93	15.86
2339.17	14.8984
2339.4	15.8585
2339.63	14.8957
2339.86	13.9324
2340.1	13.9301
2340.33	15.8481
2340.56	14.8836
2340.79	14.8789
2341.03	13.9138
2341.26	12.9503
2341.49	13.9069
2341.72	13.9046
2341.96	13.9025
2342.19	13.9009
2342.42	14.8586
2342.65	13.8997
2342.89	13.8998
2343.12	16.7751
2343.35	14.8574
2343.58	12.9404
2343.82	13.8999
2344.05	17.7351
2344.28	12.9417
2344.51	13.8995
2344.75	12.9397
2344.98	14.8544
2345.21	15.8089
2345.44	15.8058
2345.68	14.8451
2345.91	14.8438
2346.14	12.9278
2346.37	13.8848
2346.6	15.7987
2346.84	13.8826
2347.07	14.8396
2347.3	14.8399
2347.53	15.7983
2347.77	15.8002
2348	16.7593
2348.23	16.7595
2348.46	11.9702
2348.69	13.8832
2348.93	12.9208
2349.16	15.7853
2349.39	13.8651
2349.62	12.9013
2349.85	14.8021
2350.09	14.784
2350.32	11.8985
2350.55	15.7217
2350.78	15.7731
2351.02	13.8813
2351.25	12.903
2351.48	14.7947
2351.71	15.7482
2351.94	12.8868
2352.18	15.7426
2352.41	12.869
2352.64	13.8119
2352.87	13.8136
2353.1	12.8607
2353.34	17.6208
2353.57	11.9057
2353.8	15.7152
2354.03	14.7657
2354.26	14.7701
2354.5	14.7698
2354.73	12.8633
2354.96	13.8149
2355.19	15.719
2355.42	14.7647
2355.66	14.7624
2355.89	15.7103
2356.12	15.7028
2356.35	15.6963
2356.58	13.7909
2356.81	14.7395
2357.05	13.7863
2357.28	15.6855
2357.51	11.8813
2357.74	13.7807
2357.97	14.7305
2358.21	13.7769
2358.44	14.7255
2358.67	15.6744
2358.9	14.7237
2359.13	13.7723
2359.36	14.7197
2359.6	15.6661
2359.83	12.8147
2360.06	16.6079
2360.29	13.7576
2360.52	14.703
2360.75	13.7511
2360.99	12.7996
2361.22	16.5879
2361.45	15.6361
2361.68	14.6843
2361.91	11.839
2362.14	14.677
2362.38	15.6207
2362.61	15.6179
2362.84	11.8299
2363.07	16.5598
2363.3	12.7734
2363.53	15.6101
2363.77	14.662
2364	16.5515
2364.23	15.6031
2364.46	11.8196
2364.69	14.6534
2364.92	13.7058
