#Acq. time (s)=	30
#Accumulations=	2
#Range (cm-¹)=	1200...2365
#Windows=	3
#Auto scanning=	Off
#Autofocus=	Off
#Macrospot=	Off
#AutoExposure=	Off
#Spike filter=	Multiple accum.
#Delay time (s)=	2
#Binning=	1
#Readout mode=	Signal
#DeNoise=	Off
#ICS correction=	On
#Dark correction=	Off
#Inst. Process=	Off
#Detector Gain=	Best Dynamic
#Detector ADC=	50 kHz HS
#Detector temperature (°C)=	-60.09
#Instrument=	LabRAM HR Evol
#Detector=	SIN-EM FIVIS
#Objective=	x100_VIS_LWD
#Grating=	1800 (450-850nm)
#ND Filter=	100%
#Laser=	532nm_Edge
#Hole=	100.021
#Temperature=	0
#Range=	Visible
#StageXY=	75x50mm Scan+
#StageZ=	Z motor
#X (µm)=	0
#Y (µm)=	0
#Z (µm)=	-16.9
#Full time(mm:ss)=	3:18
#Project=	21_11_26
#Sample=	BU19(2)w
#Site=	
#Title=	BU19(2)w-A-FF1-FI06-V_1800 (450-850nm)_532nm_Edge_100%_x100_VIS_LWD_H100um_30sX2
#Remark=	
#Date=	26.11.2021 13:46
#Acquired=	26.11.2021 13:46:13
1202.72	180.133
1203	175.008
1203.28	168.601
1203.56	176.037
1203.84	174.825
1204.11	174.74
1204.39	173.596
1204.67	175.754
1204.95	171.473
1205.23	180.039
1205.5	170.299
1205.78	171.302
1206.06	164.78
1206.34	176.504
1206.61	171.057
1206.89	174.192
1207.17	170.894
1207.45	174.041
1207.73	166.5
1208	164.318
1208.28	164.29
1208.56	168.536
1208.84	165.275
1209.11	165.23
1209.39	167.324
1209.67	164.096
1209.95	161.95
1210.23	165.142
1210.5	167.245
1210.78	157.559
1211.06	161.767
1211.34	165.985
1211.61	156.316
1211.89	165.871
1212.17	156.205
1212.45	162.541
1212.72	157.167
1213	157.12
1213.28	162.398
1213.56	159.17
1213.83	151.696
1214.11	163.373
1214.39	159.121
1214.67	149.544
1214.94	155.933
1215.22	156.996
1215.5	152.73
1215.78	161.238
1216.05	156.966
1216.33	156.925
1216.61	154.741
1216.89	162.117
1217.16	154.611
1217.44	150.312
1217.72	155.579
1218	138.542
1218.27	156.558
1218.55	144.846
1218.83	153.305
1219.1	152.225
1219.38	150.091
1219.66	157.503
1219.94	152.178
1220.21	153.211
1220.49	151.084
1220.77	150.023
1221.04	146.832
1221.32	146.816
1221.6	143.608
1221.88	152.062
1222.15	157.316
1222.43	145.601
1222.71	159.299
1222.98	148.635
1223.26	150.679
1223.54	147.437
1223.81	149.489
1224.09	155.775
1224.37	150.439
1224.65	160.96
1224.92	144.037
1225.2	150.35
1225.48	150.345
1225.76	152.474
1226.03	141.931
1226.31	160.955
1226.59	136.66
1226.86	152.486
1227.14	152.456
1227.42	150.319
1227.69	147.075
1227.97	140.61
1228.25	152.11
1228.52	148.864
1228.8	150.825
1229.08	162.268
1229.35	144.391
1229.63	154.228
1229.91	152.444
1230.18	138.589
1230.46	155.315
1230.74	146.833
1231.01	155.275
1231.29	152.025
1231.57	158.029
1231.84	146.498
1232.12	140.189
1232.4	143.335
1232.67	150.672
1232.95	145.414
1233.23	150.658
1233.5	153.794
1233.78	156.94
1234.06	147.493
1234.33	150.658
1234.61	151.723
1234.89	148.591
1235.16	155.972
1235.44	149.677
1235.71	154.946
1235.99	147.605
1236.27	151.822
1236.54	146.561
1236.82	156.004
1237.1	158.08
1237.37	153.841
1237.65	152.738
1237.93	150.582
1238.2	149.477
1238.48	151.521
1238.76	154.613
1239.03	137.79
1239.31	146.153
1239.58	138.793
1239.86	150.309
1240.14	140.864
1240.41	148.196
1240.69	145.05
1240.97	136.667
1241.24	153.446
1241.52	151.354
1241.79	144.002
1242.07	157.599
1242.35	148.149
1242.62	145.007
1242.9	155.495
1243.18	148.179
1243.45	157.633
1243.73	152.388
1244	146.099
1244.28	151.349
1244.56	157.637
1244.83	141.902
1245.11	154.465
1245.39	148.143
1245.66	150.2
1245.94	151.194
1246.21	157.425
1246.49	152.167
1246.76	149.014
1247.04	146.921
1247.32	155.29
1247.59	152.136
1247.87	144.806
1248.14	163.627
1248.42	154.15
1248.7	148.89
1248.97	146.79
1249.25	143.66
1249.52	149.946
1249.8	160.394
1250.08	159.342
1250.35	148.884
1250.63	149.897
1250.9	147.767
1251.18	149.823
1251.45	153.973
1251.73	152.9
1252.01	154.962
1252.28	151.8
1252.56	150.726
1252.83	151.741
1253.11	141.27
1253.39	146.46
1253.66	149.576
1253.94	157.923
1254.21	160.035
1254.49	155.889
1254.76	150.702
1255.04	154.89
1255.31	150.713
1255.59	141.325
1255.87	155.944
1256.14	144.449
1256.42	153.853
1256.69	161.175
1256.97	145.53
1257.24	147.625
1257.52	154.928
1257.79	151.772
1258.07	162.2
1258.35	166.364
1258.62	160.084
1258.9	155.889
1259.17	152.721
1259.45	147.497
1259.72	154.82
1260	156.93
1260.27	154.905
1260.55	166.35
1260.82	162.133
1261.1	158.944
1261.37	162.034
1261.65	172.437
1261.92	176.633
1262.2	174.701
1262.48	182.248
1262.75	175.038
1263.02	192.507
1263.3	200.62
1263.58	209.912
1263.85	204.898
1264.13	188.341
1264.4	187.472
1264.68	168.736
1264.95	169.675
1265.23	170.677
1265.5	167.541
1265.78	171.705
1266.05	154.956
1266.33	160.178
1266.6	158.099
1266.88	165.435
1267.15	162.329
1267.43	156.093
1267.7	160.317
1267.98	154.086
1268.25	163.554
1268.53	153.157
1268.8	158.448
1269.08	157.431
1269.35	157.456
1269.63	153.283
1269.9	154.321
1270.18	152.191
1270.45	158.427
1270.73	147.923
1271	156.26
1271.28	155.185
1271.55	160.407
1271.83	157.245
1272.1	167.72
1272.38	152.059
1272.65	161.523
1272.93	154.253
1273.2	158.483
1273.47	153.284
1273.75	160.662
1274.03	157.558
1274.3	161.794
1274.57	154.477
1274.85	158.68
1275.12	153.428
1275.4	164.966
1275.67	152.395
1275.95	158.714
1276.22	161.889
1276.5	156.679
1276.77	157.757
1277.05	165.137
1277.32	162.009
1277.6	165.199
1277.87	158.935
1278.14	157.921
1278.42	168.463
1278.69	176.905
1278.97	167.49
1279.24	173.827
1279.52	170.699
1279.79	171.741
1280.07	171.726
1280.34	184.326
1280.61	196.938
1280.89	214.833
1281.16	218.009
1281.44	239.106
1281.71	296.014
1281.99	335
1282.26	410.78
1282.53	491.876
1282.81	611.954
1283.08	744.485
1283.36	876.688
1283.63	974.735
1283.91	918.684
1284.18	830.395
1284.45	656.309
1284.73	466.975
1285	361.686
1285.28	281.597
1285.55	243.544
1285.83	213.98
1286.1	198.191
1286.37	186.649
1286.65	185.594
1286.92	158.183
1287.2	181.344
1287.47	165.54
1287.75	167.62
1288.02	161.275
1288.29	162.31
1288.57	163.36
1288.84	155.997
1289.12	166.532
1289.39	160.24
1289.66	151.846
1289.94	150.82
1290.21	148.745
1290.49	161.411
1290.76	145.608
1291.03	157.178
1291.31	151.902
1291.58	158.219
1291.86	165.589
1292.13	145.572
1292.4	148.732
1292.68	156.114
1292.95	146.625
1293.22	153.985
1293.5	153.992
1293.77	146.667
1294.05	150.943
1294.32	153.115
1294.59	154.187
1294.87	145.75
1295.14	151.012
1295.42	147.875
1295.69	151.102
1295.96	152.239
1296.24	154.46
1296.51	151.353
1296.79	154.54
1297.06	155.6
1297.33	155.583
1297.61	151.328
1297.88	148.128
1298.15	145.981
1298.43	149.11
1298.7	147.014
1298.97	143.834
1299.25	144.865
1299.52	140.622
1299.79	147.988
1300.07	149.041
1300.34	156.457
1300.62	142.747
1300.89	144.862
1301.16	149.078
1301.44	152.239
1301.71	141.688
1301.98	144.879
1302.25	150.182
1302.53	148.082
1302.8	148.086
1303.08	147.027
1303.35	153.354
1303.62	148.056
1303.9	151.197
1304.17	153.303
1304.44	143.802
1304.72	153.306
1304.99	139.576
1305.26	142.726
1305.54	149.034
1305.81	143.722
1306.08	142.634
1306.35	146.819
1306.63	134.133
1306.9	143.612
1307.18	136.228
1307.45	137.295
1307.72	140.462
1308	141.515
1308.27	140.458
1308.54	141.52
1308.81	142.566
1309.09	141.518
1309.36	149.979
1309.63	140.504
1309.91	139.469
1310.18	139.481
1310.45	138.422
1310.73	141.578
1311	136.301
1311.27	133.141
1311.55	140.535
1311.82	144.762
1312.09	142.662
1312.37	151.132
1312.64	142.707
1312.91	140.604
1313.18	132.15
1313.46	144.798
1313.73	136.347
1314	142.667
1314.28	145.823
1314.55	142.655
1314.82	153.219
1315.09	145.844
1315.37	138.471
1315.64	152.214
1315.91	145.897
1316.18	136.41
1316.46	138.516
1316.73	142.731
1317	148.004
1317.28	143.776
1317.55	138.494
1317.82	138.514
1318.09	140.639
1318.37	146.986
1318.64	136.427
1318.91	139.599
1319.18	135.373
1319.46	135.369
1319.73	137.475
1320	141.695
1320.28	142.761
1320.55	144.875
1320.82	133.246
1321.09	127.945
1321.37	139.532
1321.64	142.659
1321.91	138.392
1322.18	136.256
1322.46	146.766
1322.73	136.198
1323	140.396
1323.27	139.321
1323.55	134.022
1323.82	151.961
1324.09	132.987
1324.36	143.534
1324.64	134.039
1324.91	140.367
1325.18	129.818
1325.45	144.589
1325.73	139.28
1326	143.432
1326.27	146.508
1326.54	139.037
1326.81	142.152
1327.09	144.244
1327.36	139.03
1327.63	146.492
1327.9	137.062
1328.18	145.54
1328.45	146.65
1328.72	138.27
1328.99	147.808
1329.27	134.105
1329.54	143.582
1329.81	135.156
1330.08	128.82
1330.35	140.413
1330.63	139.339
1330.9	131.931
1331.17	142.443
1331.44	147.67
1331.71	146.558
1331.99	140.174
1332.26	142.231
1332.53	143.243
1332.8	135.834
1333.07	136.838
1333.35	132.583
1333.62	144.102
1333.89	141.956
1334.16	151.369
1334.43	152.377
1334.71	134.487
1334.98	141.801
1335.25	137.573
1335.52	156.433
1335.79	133.323
1336.07	145.886
1336.34	150.055
1336.61	139.547
1336.88	142.672
1337.15	139.51
1337.43	140.545
1337.7	143.676
1337.97	131.083
1338.24	134.194
1338.51	126.829
1338.78	135.189
1339.06	137.26
1339.33	141.433
1339.6	137.24
1339.87	132.009
1340.14	146.676
1340.42	136.206
1340.69	142.494
1340.96	140.404
1341.23	141.448
1341.5	130.968
1341.77	132.005
1342.04	146.649
1342.32	142.437
1342.59	135.079
1342.86	149.692
1343.13	132.914
1343.4	141.263
1343.67	145.435
1343.95	144.383
1344.22	137.061
1344.49	141.246
1344.76	145.429
1345.03	143.323
1345.3	138.071
1345.58	145.357
1345.85	144.265
1346.12	148.407
1346.39	136.868
1346.66	151.414
1346.93	140.929
1347.2	130.453
1347.47	141.884
1347.75	139.759
1348.02	138.69
1348.29	139.714
1348.56	138.659
1348.83	145.943
1349.1	138.625
1349.37	136.515
1349.65	145.862
1349.92	130.214
1350.19	143.725
1350.46	134.33
1350.73	142.631
1351	137.393
1351.27	132.155
1351.54	136.294
1351.81	137.298
1352.09	143.526
1352.36	135.204
1352.63	144.579
1352.9	138.368
1353.17	140.49
1353.44	143.634
1353.71	150.004
1353.98	140.76
1354.25	142.711
1354.53	143.536
1354.8	137.155
1355.07	143.404
1355.34	147.572
1355.61	135.054
1355.88	144.376
1356.15	142.346
1356.42	136.123
1356.69	145.442
1356.96	140.233
1357.24	138.143
1357.51	143.321
1357.78	143.302
1358.05	151.585
1358.32	140.14
1358.59	145.303
1358.86	144.24
1359.13	140.06
1359.4	152.479
1359.67	141.048
1359.94	149.325
1360.22	139.956
1360.49	144.059
1360.76	135.729
1361.03	138.811
1361.3	146.05
1361.57	138.796
1361.84	134.647
1362.11	140.853
1362.38	146.013
1362.65	144.962
1362.92	151.159
1363.19	145.976
1363.46	140.808
1363.73	140.831
1364	148.098
1364.28	157.439
1364.55	148.114
1364.82	143.96
1365.09	132.551
1365.36	139.775
1365.63	148.026
1365.9	152.13
1366.17	143.816
1366.44	146.887
1366.71	140.646
1366.98	135.434
1367.25	142.623
1367.52	143.633
1367.79	156.02
1368.06	152.939
1368.33	149.849
1368.6	158.127
1368.87	170.541
1369.15	185.024
1369.41	174.7
1369.68	163.337
1369.95	156.08
1370.23	146.757
1370.5	147.773
1370.77	141.534
1371.04	141.515
1371.31	147.687
1371.58	139.383
1371.85	145.53
1372.12	156.824
1372.39	137.163
1372.66	147.427
1372.93	156.666
1373.2	158.701
1373.47	158.679
1373.74	147.322
1374.01	159.672
1374.28	155.536
1374.55	142.13
1374.82	151.392
1375.09	157.561
1375.36	146.21
1375.63	147.245
1375.9	145.202
1376.17	145.198
1376.44	154.478
1376.71	150.318
1376.98	146.161
1377.25	157.436
1377.52	156.341
1377.79	150.185
1378.06	146.105
1378.33	151.311
1378.6	154.476
1378.87	157.653
1379.14	154.586
1379.41	159.734
1379.68	160.743
1379.95	151.443
1380.22	161.716
1380.49	156.496
1380.76	152.252
1381.03	159.383
1381.3	161.379
1381.57	164.491
1381.84	154.165
1382.11	161.287
1382.38	172.507
1382.65	176.541
1382.92	178.53
1383.19	174.356
1383.46	176.358
1383.73	187.587
1384	189.604
1384.27	209.055
1384.54	217.264
1384.81	244.966
1385.08	252.189
1385.34	293.29
1385.61	358.055
1385.88	426.924
1386.15	586.157
1386.42	854.242
1386.69	1272.43
1386.96	1723.47
1387.23	2017.21
1387.5	1711.82
1387.77	1183.03
1388.04	747.438
1388.31	501.717
1388.58	363.144
1388.85	281.721
1389.12	247.176
1389.39	232.957
1389.66	210.386
1389.93	192.952
1390.2	177.488
1390.46	187.607
1390.73	180.361
1391	165.999
1391.27	157.731
1391.54	172.065
1391.81	161.801
1392.08	157.665
1392.35	153.526
1392.62	161.684
1392.89	155.513
1393.16	162.657
1393.43	159.567
1393.7	158.527
1393.97	146.23
1394.23	141.101
1394.5	153.37
1394.77	158.476
1395.04	154.376
1395.31	151.322
1395.58	157.488
1395.85	151.365
1396.12	148.3
1396.39	150.342
1396.66	145.212
1396.93	153.381
1397.2	145.175
1397.46	145.147
1397.73	143.073
1398	154.31
1398.27	145.103
1398.54	135.906
1398.81	157.405
1399.08	150.254
1399.35	141.053
1399.62	151.309
1399.89	147.232
1400.16	144.175
1400.42	142.126
1400.69	143.169
1400.96	153.444
1401.23	150.389
1401.5	150.383
1401.77	157.569
1402.04	144.254
1402.31	138.156
1402.58	146.434
1402.84	140.369
1403.11	149.665
1403.38	147.66
1403.65	146.655
1403.92	148.71
1404.19	148.679
1404.46	155.776
1404.73	150.668
1404.99	147.577
1405.26	151.662
1405.53	147.532
1405.8	163.912
1406.07	151.579
1406.34	166.931
1406.61	174.088
1406.87	166.9
1407.14	172.032
1407.41	184.345
1407.68	182.31
1407.95	208.976
1408.22	200.786
1408.49	230.532
1408.76	228.495
1409.02	220.308
1409.29	205.97
1409.56	186.499
1409.83	175.23
1410.1	181.394
1410.37	153.697
1410.63	163.923
1410.9	152.599
1411.17	156.652
1411.44	138.169
1411.71	146.341
1411.98	135.052
1412.25	143.243
1412.51	139.164
1412.78	144.329
1413.05	143.393
1413.32	138.43
1413.59	146.733
1413.86	148.674
1414.12	137.2
1414.39	142.358
1414.66	136.295
1414.93	135.332
1415.2	128.136
1415.47	134.301
1415.73	143.541
1416	133.278
1416.27	130.208
1416.54	146.65
1416.81	134.341
1417.07	134.354
1417.34	128.207
1417.61	142.605
1417.88	138.51
1418.15	149.821
1418.42	135.438
1418.68	129.277
1418.95	142.643
1419.22	139.562
1419.49	135.453
1419.76	144.687
1420.02	127.194
1420.29	132.304
1420.56	133.307
1420.83	137.387
1421.1	139.41
1421.36	145.543
1421.63	136.293
1421.9	135.274
1422.17	143.523
1422.44	128.166
1422.7	136.428
1422.97	127.249
1423.24	140.733
1423.51	147.036
1423.77	141.552
1424.04	142.282
1424.31	140.269
1424.58	140.134
1424.85	131.939
1425.11	136.076
1425.38	136.17
1425.65	137.213
1425.92	132.066
1426.19	126.982
1426.45	135.179
1426.72	145.411
1426.99	138.196
1427.26	146.359
1427.52	126.844
1427.79	133.963
1428.06	133.919
1428.33	126.73
1428.59	145.151
1428.86	139.01
1429.13	136.97
1429.4	128.789
1429.67	133.925
1429.93	143.164
1430.2	143.195
1430.47	125.811
1430.74	138.138
1431	128.952
1431.27	140.292
1431.54	133.157
1431.81	131.127
1432.07	136.259
1432.34	128.025
1432.61	135.176
1432.87	130.026
1433.14	138.191
1433.41	133.014
1433.68	122.71
1433.95	137.002
1434.21	130.824
1434.48	133.882
1434.75	130.871
1435.01	137.046
1435.28	133.978
1435.55	125.781
1435.82	140.124
1436.08	130.895
1436.35	134.985
1436.62	138.049
1436.89	135.988
1437.15	134.95
1437.42	127.768
1437.69	124.692
1437.95	139.016
1438.22	127.744
1438.49	133.895
1438.76	140.061
1439.02	127.781
1439.29	135.981
1439.56	135.988
1439.82	136.009
1440.09	139.114
1440.36	130.952
1440.63	130.968
1440.89	140.204
1441.16	139.181
1441.43	135.087
1441.69	134.051
1441.96	122.751
1442.23	126.841
1442.49	129.943
1442.76	130.971
1443.03	142.28
1443.3	133.032
1443.56	137.11
1443.83	141.192
1444.1	136.052
1444.36	137.072
1444.63	142.206
1444.9	128.916
1445.16	133.05
1445.43	137.196
1445.7	131.029
1445.97	132.042
1446.23	133.057
1446.5	133.045
1446.77	129.958
1447.03	128.922
1447.3	133.014
1447.57	140.178
1447.83	132.984
1448.1	144.247
1448.37	135.019
1448.63	138.119
1448.9	133.022
1449.17	139.184
1449.43	128.925
1449.7	135.067
1449.97	134.024
1450.23	137.078
1450.5	135.005
1450.77	132.943
1451.03	140.108
1451.3	135.997
1451.57	129.836
1451.83	126.749
1452.1	131.859
1452.37	141.07
1452.63	136.966
1452.9	131.845
1453.17	135.949
1453.43	128.791
1453.7	135.977
1453.97	139.053
1454.23	135.968
1454.5	128.788
1454.77	132.886
1455.03	144.158
1455.3	133.907
1455.56	129.799
1455.83	125.703
1456.1	140.072
1456.36	135.986
1456.63	122.661
1456.9	135.974
1457.16	127.753
1457.43	144.125
1457.7	129.771
1457.96	131.811
1458.23	142.049
1458.49	138.977
1458.76	136.931
1459.03	127.718
1459.29	123.626
1459.56	132.851
1459.82	134.903
1460.09	123.627
1460.36	130.79
1460.62	134.878
1460.89	132.818
1461.16	139.973
1461.42	138.931
1461.69	125.601
1461.95	130.701
1462.22	131.703
1462.49	128.608
1462.75	136.768
1463.02	133.669
1463.28	135.684
1463.55	124.402
1463.82	136.644
1464.08	128.46
1464.35	128.5
1464.61	135.721
1464.88	128.604
1465.15	127.64
1465.41	132.658
1465.68	129.353
1465.94	125.165
1466.21	131.275
1466.48	128.253
1466.74	138.447
1467.01	131.244
1467.27	124.085
1467.54	137.36
1467.8	128.169
1468.07	130.2
1468.34	134.274
1468.6	127.131
1468.87	139.368
1469.13	129.159
1469.4	131.186
1469.67	132.189
1469.93	136.242
1470.2	118.881
1470.46	128.03
1470.73	138.202
1470.99	131.053
1471.26	132.062
1471.53	124.912
1471.79	118.776
1472.06	134.035
1472.32	128.933
1472.59	140.129
1472.85	128.924
1473.12	125.865
1473.39	132.982
1473.65	129.908
1473.92	122.763
1474.18	131.907
1474.45	124.774
1474.71	133.932
1474.98	120.713
1475.24	134.969
1475.51	121.739
1475.78	127.841
1476.04	115.617
1476.31	135.952
1476.57	131.868
1476.84	134.909
1477.1	129.8
1477.37	127.744
1477.63	129.767
1477.9	124.677
1478.16	126.707
1478.43	142.961
1478.69	126.667
1478.96	133.763
1479.22	123.579
1479.49	131.687
1479.76	149.95
1480.02	130.617
1480.29	141.76
1480.55	130.542
1480.82	128.474
1481.08	130.477
1481.35	131.479
1481.61	130.442
1481.88	119.293
1482.14	139.606
1482.41	132.527
1482.67	129.508
1482.94	120.39
1483.2	120.389
1483.47	126.495
1483.73	125.488
1484	125.488
1484.26	132.591
1484.53	128.477
1484.79	123.332
1485.06	129.281
1485.32	118.985
1485.59	127.02
1485.85	126.921
1486.12	127.214
1486.38	126.236
1486.65	119.186
1486.91	127.161
1487.18	126.212
1487.44	115.084
1487.71	130.245
1487.97	123.125
1488.24	131.209
1488.5	131.187
1488.77	127.108
1489.03	137.198
1489.3	123.005
1489.56	139.18
1489.83	132.085
1490.09	124.993
1490.36	122.968
1490.62	126.001
1490.89	142.17
1491.15	133.039
1491.42	124.923
1491.68	135.021
1491.95	128.948
1492.21	121.87
1492.48	132.996
1492.74	130.969
1493	119.841
1493.27	130.956
1493.53	121.857
1493.8	130.945
1494.06	126.896
1494.33	126.897
1494.59	136.003
1494.86	132.981
1495.12	132.975
1495.39	130.932
1495.65	130.893
1495.92	124.784
1496.18	127.777
1496.45	129.772
1496.71	132.782
1496.97	133.775
1497.24	127.7
1497.5	120.633
1497.77	123.659
1498.03	134.753
1498.3	128.694
1498.56	121.63
1498.82	127.687
1499.09	131.728
1499.35	133.751
1499.62	123.666
1499.88	125.695
1500.15	127.724
1500.41	131.766
1500.68	121.669
1500.94	127.721
1501.2	119.64
1501.47	119.627
1501.73	129.695
1502	124.64
1502.26	135.737
1502.52	126.649
1502.79	130.672
1503.05	121.564
1503.32	138.686
1503.58	120.516
1503.85	128.56
1504.11	118.476
1504.37	129.579
1504.64	141.685
1504.9	123.534
1505.17	131.595
1505.43	128.555
1505.7	125.51
1505.96	123.459
1506.22	134.497
1506.49	133.48
1506.75	138.512
1507.02	132.472
1507.28	132.491
1507.54	131.488
1507.81	126.454
1508.07	133.506
1508.34	125.435
1508.6	134.496
1508.86	129.46
1509.13	126.441
1509.39	135.511
1509.66	121.401
1509.92	140.545
1510.18	114.359
1510.45	122.428
1510.71	127.442
1510.98	126.409
1511.24	131.415
1511.5	129.364
1511.77	131.324
1512.03	129.243
1512.29	130.18
1512.56	134.135
1512.82	127.046
1513.08	130.026
1513.35	135.016
1513.61	125.954
1513.88	131.966
1514.14	137.016
1514.4	129.033
1514.67	131.054
1514.93	131.038
1515.2	124.982
1515.46	135.991
1515.72	131.941
1515.99	129.894
1516.25	126.845
1516.51	133.838
1516.78	136.833
1517.04	128.799
1517.3	127.787
1517.57	120.765
1517.83	139.816
1518.09	135.815
1518.36	123.804
1518.62	125.816
1518.88	125.824
1519.15	136.865
1519.41	120.825
1519.67	123.844
1519.94	128.866
1520.2	122.843
1520.47	127.847
1520.73	131.85
1520.99	135.869
1521.26	121.836
1521.52	132.883
1521.78	128.874
1522.05	131.878
1522.31	128.856
1522.57	129.844
1522.84	134.843
1523.1	136.834
1523.36	126.783
1523.62	136.769
1523.89	127.695
1524.15	129.664
1524.41	127.633
1524.68	120.6
1524.94	138.604
1525.2	131.609
1525.47	129.611
1525.73	121.603
1525.99	125.627
1526.26	129.657
1526.52	132.697
1526.78	136.733
1527.05	136.743
1527.31	137.742
1527.57	117.677
1527.84	124.684
1528.1	122.668
1528.36	129.672
1528.63	122.642
1528.89	133.648
1529.15	127.625
1529.41	117.601
1529.68	119.602
1529.94	134.617
1530.2	128.586
1530.47	127.578
1530.73	124.585
1530.99	133.624
1531.25	121.629
1531.52	127.659
1531.78	131.669
1532.04	134.666
1532.31	128.656
1532.57	122.627
1532.83	128.653
1533.09	125.68
1533.36	132.742
1533.62	115.733
1533.88	130.795
1534.15	127.795
1534.41	129.8
1534.67	128.789
1534.94	129.781
1535.2	130.77
1535.46	128.752
1535.72	135.745
1535.99	116.636
1536.25	125.616
1536.51	137.607
1536.77	131.551
1537.04	123.494
1537.3	137.461
1537.56	125.436
1537.82	133.408
1538.09	131.408
1538.35	122.38
1538.61	128.34
1538.87	128.326
1539.14	134.31
1539.4	135.346
1539.66	122.417
1539.92	130.515
1540.19	130.58
1540.45	131.636
1540.71	133.698
1540.97	119.696
1541.24	126.728
1541.5	131.687
1541.76	132.683
1542.02	129.639
1542.29	135.618
1542.55	134.581
1542.81	136.55
1543.07	136.517
1543.34	124.475
1543.6	134.45
1543.86	132.405
1544.12	125.359
1544.39	123.364
1544.65	134.372
1544.91	130.398
1545.17	135.44
1545.43	130.465
1545.7	129.515
1545.96	136.552
1546.22	134.566
1546.48	135.582
1546.74	129.563
1547.01	125.562
1547.27	131.587
1547.53	133.606
1547.79	128.609
1548.06	126.576
1548.32	131.516
1548.58	122.503
1548.84	122.509
1549.1	129.556
1549.37	128.435
1549.63	135.3
1549.89	135.269
1550.15	133.344
1550.42	134.483
1550.68	125.663
1550.94	133.829
1551.2	132.954
1551.46	132.864
1551.73	133.881
1551.99	139.876
1552.25	132.807
1552.51	137.885
1552.77	131.915
1553.03	134.91
1553.3	132.862
1553.56	145.808
1553.82	134.749
1554.08	139.752
1554.34	128.692
1554.61	128.654
1554.87	126.606
1555.13	135.577
1555.39	138.565
1555.65	120.524
1555.91	137.551
1556.18	133.552
1556.44	142.569
1556.7	140.543
1556.96	131.529
1557.22	126.529
1557.48	129.54
1557.75	127.538
1558.01	117.513
1558.27	127.506
1558.53	126.464
1558.79	131.437
1559.06	128.389
1559.32	128.349
1559.58	132.315
1559.84	134.285
1560.1	137.259
1560.36	126.244
1560.63	134.225
1560.89	139.211
1561.15	138.202
1561.41	119.213
1561.67	133.212
1561.93	129.237
1562.19	124.273
1562.46	130.31
1562.72	118.309
1562.98	133.304
1563.24	128.292
1563.5	139.298
1563.76	138.284
1564.02	121.276
1564.29	122.318
1564.55	133.372
1564.81	130.385
1565.07	129.375
1565.33	134.302
1565.59	121.086
1565.85	126.768
1566.11	128.596
1566.38	135.119
1566.64	136.281
1566.9	138.209
1567.16	133.123
1567.42	130.231
1567.68	132.347
1567.94	143.319
1568.2	132.222
1568.47	141.235
1568.73	125.256
1568.99	125.264
1569.25	125.251
1569.51	132.201
1569.77	129.174
1570.03	132.172
1570.29	129.183
1570.55	135.182
1570.82	128.187
1571.08	136.179
1571.34	127.178
1571.6	139.156
1571.86	127.144
1572.12	134.113
1572.38	130.113
1572.64	140.083
1572.9	132.066
1573.17	131.048
1573.43	131.028
1573.69	144.98
1573.95	134.978
1574.21	131.986
1574.47	137
1574.73	135.034
1574.99	135.066
1575.25	129.105
1575.51	130.135
1575.78	133.156
1576.04	130.163
1576.3	120.16
1576.56	133.147
1576.82	126.137
1577.08	135.086
1577.34	130.041
1577.6	139.974
1577.86	135.934
1578.12	122.923
1578.38	124.879
1578.64	132.831
1578.9	129.832
1579.17	132.82
1579.43	132.818
1579.69	129.828
1579.95	136.813
1580.21	134.838
1580.47	137.838
1580.73	129.862
1580.99	128.859
1581.25	127.846
1581.51	138.791
1581.77	129.801
1582.03	135.753
1582.29	126.756
1582.55	125.749
1582.81	125.739
1583.07	136.686
1583.33	137.674
1583.59	125.716
1583.85	142.644
1584.11	127.69
1584.38	135.656
1584.64	123.715
1584.9	130.695
1585.16	133.688
1585.42	138.666
1585.68	125.708
1585.94	131.68
1586.2	131.667
1586.46	130.64
1586.72	133.593
1586.98	130.582
1587.24	146.486
1587.5	143.484
1587.76	135.511
1588.02	132.519
1588.28	137.494
1588.54	135.514
1588.8	134.533
1589.06	138.533
1589.32	139.544
1589.58	141.552
1589.84	136.587
1590.1	128.625
1590.36	131.611
1590.62	122.659
1590.88	131.635
1591.14	143.597
1591.4	130.646
1591.66	132.636
1591.92	124.659
1592.18	134.602
1592.44	130.589
1592.7	130.547
1592.96	130.516
1593.22	134.474
1593.48	132.435
1593.74	127.411
1594	127.357
1594.26	133.283
1594.52	127.305
1594.78	131.277
1595.04	126.325
1595.3	133.304
1595.56	138.29
1595.82	134.314
1596.08	130.279
1596.34	143.187
1596.6	135.24
1596.86	125.308
1597.12	134.251
1597.38	131.28
1597.64	137.251
1597.9	133.288
1598.16	133.283
1598.42	135.256
1598.68	126.292
1598.94	134.201
1599.2	137.145
1599.46	134.141
1599.72	128.163
1599.98	139.054
1600.24	133.077
1600.5	135.038
1600.76	133.028
1601.02	132.003
1601.28	135.925
1601.54	137.86
1601.8	137.815
1602.06	136.786
1602.32	123.887
1602.58	133.76
1602.84	131.751
1603.1	135.675
1603.36	138.611
1603.62	133.64
1603.88	134.611
1604.14	134.598
1604.4	143.493
1604.66	128.663
1604.92	135.587
1605.17	143.498
1605.43	131.634
1605.69	127.683
1605.95	132.637
1606.21	125.728
1606.47	122.776
1606.73	134.663
1606.99	137.644
1607.25	130.711
1607.51	133.692
1607.77	139.471
1608.03	126.097
1608.29	135.457
1608.55	132.889
1608.81	136.515
1609.07	132.249
1609.32	132.395
1609.58	138.3
1609.84	127.703
1610.1	129.261
1610.36	122.949
1610.62	133.51
1610.88	136.725
1611.14	138.86
1611.4	133.2
1611.66	134.88
1611.92	136.327
1612.18	134.596
1612.44	127.192
1612.69	136.138
1612.95	131.647
1613.21	128.811
1613.47	136.004
1613.73	129.313
1613.99	134.086
1614.25	134.641
1614.51	132.836
1614.77	126.081
1615.03	128.808
1615.29	122.83
1615.54	132.927
1615.8	137.114
1616.06	130.256
1616.32	124.046
1616.58	132.737
1616.84	135.865
1617.1	133.461
1617.36	140.85
1617.62	132.256
1617.88	137.862
1618.13	130.047
1618.39	130.164
1618.65	136.164
1618.91	129.921
1619.17	132.336
1619.43	133.339
1619.69	129.862
1619.95	131.592
1620.2	137.273
1620.46	132.978
1620.72	133.575
1620.98	132.004
1621.24	132.96
1621.5	135.425
1621.76	133.442
1622.02	135.159
1622.27	135.159
1622.53	135.336
1622.79	135.857
1623.05	134.399
1623.31	130.841
1623.57	131.618
1623.83	136.533
1624.09	133.343
1624.34	138.636
1624.6	133.853
1624.86	132.594
1625.12	134.976
1625.38	136.36
1625.64	140.229
1625.9	134.895
1626.15	131.166
1626.41	133.991
1626.67	135.061
1626.93	134.644
1627.19	131.191
1627.45	129.897
1627.7	136.236
1627.96	138.504
1628.22	136.287
1628.48	135.192
1628.74	131.141
1629	129.186
1629.26	131.499
1629.51	133.704
1629.77	133.885
1630.03	136.154
1630.29	137.482
1630.55	127.252
1630.81	127.114
1631.06	136.278
1631.32	142.034
1631.53	135.145
1631.79	145.016
1632.05	132.233
1632.31	128.313
1632.57	128.305
1632.84	129.326
1633.1	143.199
1633.36	142.161
1633.62	136.174
1633.88	131.231
1634.14	146.03
1634.4	133.24
1634.66	139.16
1634.93	141.135
1635.19	136.203
1635.45	133.24
1635.71	129.289
1635.97	126.321
1636.23	129.263
1636.49	138.114
1636.75	139.081
1637.02	130.196
1637.28	130.174
1637.54	131.134
1637.8	137.029
1638.06	127.177
1638.32	136.025
1638.58	128.135
1638.84	134.031
1639.1	127.141
1639.37	134.031
1639.63	136.982
1639.89	142.886
1640.15	128.118
1640.41	138.94
1640.67	138.943
1640.93	140.938
1641.19	130.125
1641.46	138.007
1641.72	141.935
1641.98	132.073
1642.24	126.156
1642.5	141.899
1642.76	134.017
1643.02	128.104
1643.28	135.974
1643.54	129.079
1643.8	135.965
1644.06	133.985
1644.33	138.889
1644.59	130.995
1644.85	130.977
1645.11	136.874
1645.37	135.9
1645.63	139.854
1645.89	133.959
1646.15	134.944
1646.41	136.898
1646.67	132.945
1646.93	130.962
1647.19	132.92
1647.46	137.824
1647.72	129.94
1647.98	126.977
1648.24	141.724
1648.5	144.679
1648.76	130.933
1649.02	134.893
1649.28	140.866
1649.54	137.939
1649.8	135.955
1650.06	136.923
1650.32	135.937
1650.58	138.93
1650.85	135.024
1651.11	135.048
1651.37	137.044
1651.63	141.988
1651.89	135.097
1652.15	135.096
1652.41	136.081
1652.67	134.115
1652.93	138.042
1653.19	129.157
1653.45	132.105
1653.71	126.193
1653.97	137.036
1654.23	138.035
1654.49	131.145
1654.75	139.033
1655.01	136.085
1655.27	133.145
1655.53	133.171
1655.8	138.14
1656.06	131.283
1656.32	136.248
1656.57	144.164
1656.84	138.254
1657.1	129.375
1657.36	132.332
1657.62	137.255
1657.88	139.213
1658.14	138.216
1658.4	140.178
1658.66	131.282
1658.92	134.222
1659.18	134.201
1659.44	135.167
1659.7	141.063
1659.96	142.027
1660.22	142.98
1660.48	130.176
1660.74	138.079
1661	132.183
1661.26	134.179
1661.52	129.271
1661.78	133.243
1662.04	123.386
1662.3	133.263
1662.56	138.07
1662.82	131.416
1663.08	147.376
1663.34	133.456
1663.6	141.346
1663.86	128.465
1664.12	136.086
1664.38	143.139
1664.64	129.352
1664.9	135.287
1665.16	140.293
1665.42	140.32
1665.68	135.233
1665.94	138.063
1666.2	132.487
1666.46	142.404
1666.72	127.556
1666.98	132.314
1667.24	136.822
1667.5	137.226
1667.76	137.195
1668.02	139.145
1668.28	142.09
1668.54	135.159
1668.8	137.135
1669.06	133.248
1669.32	138.261
1669.58	136.3
1669.84	132.351
1670.1	136.306
1670.36	130.365
1670.62	144.192
1670.88	142.289
1671.14	133.439
1671.4	125.517
1671.66	142.309
1671.92	139.337
1672.18	140.33
1672.44	127.491
1672.69	133.426
1672.95	135.401
1673.21	141.331
1673.47	133.426
1673.73	128.487
1673.99	128.495
1674.25	134.441
1674.51	143.358
1674.77	138.43
1675.03	128.555
1675.29	123.632
1675.55	135.525
1675.81	139.494
1676.07	131.578
1676.33	143.451
1676.59	128.61
1676.85	118.718
1677.11	134.557
1677.37	136.533
1677.63	124.648
1677.89	139.48
1678.14	134.512
1678.4	141.41
1678.66	130.498
1678.92	134.429
1679.18	137.376
1679.44	125.495
1679.7	135.368
1679.96	134.365
1680.22	128.42
1680.48	145.21
1680.74	130.372
1681	138.262
1681.26	130.345
1681.52	141.204
1681.78	134.286
1682.03	130.332
1682.29	135.27
1682.55	147.125
1682.81	133.296
1683.07	135.265
1683.33	124.394
1683.59	148.1
1683.85	137.232
1684.11	148.094
1684.37	140.181
1684.63	131.27
1684.89	137.183
1685.14	135.2
1685.4	131.244
1685.66	128.278
1685.92	133.214
1686.18	135.189
1686.44	145.066
1686.7	135.201
1686.96	132.264
1687.22	134.253
1687.48	132.279
1687.73	146.097
1687.99	130.276
1688.25	132.235
1688.51	145.059
1688.77	132.206
1689.03	130.211
1689.29	131.169
1689.55	140.028
1689.81	137.042
1690.06	135.041
1690.32	130.078
1690.58	141.903
1690.84	137.003
1691.1	140.966
1691.36	127.164
1691.62	142.957
1691.88	135.077
1692.13	135.088
1692.39	146.93
1692.65	130.144
1692.91	138.018
1693.17	140.95
1693.43	137.957
1693.69	140.877
1693.95	137.877
1694.2	129.963
1694.46	129.936
1694.72	135.819
1694.98	133.828
1695.24	143.675
1695.5	122.996
1695.76	129.898
1696.01	135.815
1696.27	135.824
1696.53	138.798
1696.79	132.896
1697.05	134.865
1697.31	139.779
1697.57	143.692
1697.82	136.76
1698.08	131.799
1698.34	142.599
1698.6	143.558
1698.86	139.596
1699.12	140.56
1699.38	135.629
1699.63	142.512
1699.89	135.631
1700.15	140.551
1700.41	138.584
1700.67	138.557
1700.92	133.631
1701.18	139.526
1701.44	135.582
1701.7	145.405
1701.96	140.463
1702.22	135.518
1702.47	139.425
1702.73	142.345
1702.99	141.335
1703.25	142.308
1703.51	141.32
1703.77	138.362
1704.02	134.418
1704.28	144.233
1704.54	147.192
1704.8	137.384
1705.06	135.422
1705.32	139.345
1705.57	147.196
1705.83	139.334
1706.09	142.281
1706.35	135.38
1706.61	149.101
1706.86	134.335
1707.12	137.245
1707.38	138.192
1707.64	140.123
1707.9	123.407
1708.16	137.097
1708.41	138.032
1708.67	145.828
1708.93	134.997
1709.19	140.828
1709.44	131.982
1709.7	135.877
1709.96	141.74
1710.22	140.758
1710.48	140.759
1710.73	135.868
1710.99	140.773
1711.25	138.835
1711.51	132.971
1711.77	131.022
1712.02	143.764
1712.28	135.929
1712.54	137.872
1712.8	134.895
1713.06	141.689
1713.31	140.649
1713.57	140.591
1713.83	145.427
1714.09	134.622
1714.34	145.343
1714.6	138.485
1714.86	140.424
1715.12	136.508
1715.38	133.575
1715.63	132.619
1715.89	140.464
1716.15	137.531
1716.41	135.564
1716.66	143.358
1716.92	145.28
1717.18	135.474
1717.44	148.113
1717.69	147.074
1717.95	134.323
1718.21	141.086
1718.47	136.159
1718.72	142.931
1718.98	149.714
1719.24	140.931
1719.5	153.585
1719.75	147.74
1720.01	144.81
1720.27	139.951
1720.53	142.876
1720.78	133.125
1721.04	151.595
1721.3	139.874
1721.56	143.735
1721.81	147.596
1722.07	151.451
1722.33	143.634
1722.59	142.624
1722.84	139.671
1723.1	133.807
1723.36	149.319
1723.62	142.494
1723.87	148.302
1724.13	148.3
1724.39	144.402
1724.64	140.51
1724.9	141.456
1725.16	138.506
1725.42	150.092
1725.67	145.188
1725.93	149.01
1726.19	152.849
1726.45	150.891
1726.7	139.271
1726.96	151.857
1727.22	150.865
1727.47	144.03
1727.73	136.277
1727.99	143.089
1728.24	138.236
1728.5	138.211
1728.76	142.03
1729.02	143.766
1729.27	139.682
1729.53	152.144
1729.79	146.438
1730.05	139.752
1730.3	144.637
1730.56	137.788
1730.82	143.541
1731.07	151.249
1731.33	133.057
1731.59	158.193
1731.84	154.329
1732.1	147.559
1732.36	144.65
1732.61	144.635
1732.87	148.483
1733.13	137.832
1733.39	136.836
1733.64	152.242
1733.9	144.459
1734.16	144.397
1734.41	145.317
1734.67	144.306
1734.93	146.186
1735.18	148.064
1735.44	146.089
1735.7	149.898
1735.95	144.089
1736.21	154.655
1736.47	146.939
1736.72	143.073
1736.98	135.355
1737.24	156.502
1737.49	143.972
1737.75	137.218
1738.01	150.665
1738.26	142.944
1738.52	145.797
1738.78	144.804
1739.03	148.616
1739.29	143.776
1739.55	144.693
1739.8	153.279
1740.06	152.249
1740.32	148.345
1740.57	144.452
1740.83	140.571
1741.09	144.369
1741.34	143.377
1741.6	141.428
1741.86	150.976
1742.11	138.501
1742.37	148.06
1742.63	143.263
1742.88	148.037
1743.14	146.106
1743.4	141.31
1743.65	151.834
1743.91	150.86
1744.16	147.001
1744.42	148.888
1744.68	141.212
1744.93	150.765
1745.19	147.895
1745.45	147.896
1745.7	146.938
1745.96	145.017
1746.22	141.172
1746.47	145.923
1746.73	147.796
1746.98	142.017
1747.24	143.893
1747.5	140.986
1747.75	148.591
1748.01	154.283
1748.27	141.855
1748.52	158.078
1748.78	153.306
1749.03	150.448
1749.29	152.366
1749.55	139.016
1749.8	150.497
1750.06	140.974
1750.32	141.96
1750.57	147.726
1750.83	147.757
1751.08	145.856
1751.34	147.784
1751.6	146.831
1751.85	151.591
1752.11	142.946
1752.36	150.544
1752.62	147.642
1752.88	147.61
1753.13	147.575
1753.39	140.86
1753.64	156.101
1753.9	145.577
1754.15	155.092
1754.41	155.057
1754.67	142.625
1754.92	156.903
1755.18	147.347
1755.43	146.376
1755.69	148.263
1755.95	149.189
1756.2	151.062
1756.46	151.024
1756.71	143.364
1756.97	142.365
1757.23	146.124
1757.48	148.935
1757.74	153.672
1757.99	150.798
1758.25	146.051
1758.5	153.705
1758.76	153.719
1759.02	148.964
1759.27	146.11
1759.53	156.578
1759.78	149.924
1760.04	154.679
1760.3	151.811
1760.55	153.7
1760.81	151.782
1761.06	154.617
1761.32	151.738
1761.57	150.755
1761.83	151.678
1762.08	156.412
1762.34	146.893
1762.6	144.034
1762.85	151.664
1763.11	140.27
1763.36	154.535
1763.62	158.33
1763.87	146.924
1764.13	150.738
1764.38	155.508
1764.64	149.832
1764.89	152.742
1765.15	155.621
1765.4	153.737
1765.66	152.799
1765.92	154.713
1766.17	150.909
1766.43	153.765
1766.68	144.239
1766.94	149.938
1767.19	152.782
1767.45	154.683
1767.7	152.765
1767.96	146.082
1768.21	153.671
1768.47	140.332
1768.73	154.589
1768.98	151.723
1769.24	150.708
1769.49	157.276
1769.75	154.344
1770	159.038
1770.26	154.294
1770.51	148.63
1770.77	157.217
1771.02	149.619
1771.28	151.529
1771.53	157.272
1771.79	153.525
1772.04	164.004
1772.3	149.748
1772.55	147.87
1772.81	152.656
1773.06	156.485
1773.32	163.164
1773.57	158.424
1773.83	156.537
1774.08	147.032
1774.34	151.803
1774.59	145.147
1774.85	148.961
1775.1	160.408
1775.36	155.659
1775.61	151.876
1775.87	144.321
1776.12	154.843
1776.38	148.19
1776.63	149.148
1776.89	155.813
1777.14	152.933
1777.4	150.046
1777.65	150.982
1777.91	153.813
1778.16	156.642
1778.42	158.517
1778.67	156.583
1778.93	162.261
1779.18	154.602
1779.44	148.849
1779.69	149.775
1779.95	148.82
1780.2	146.008
1780.46	147.921
1780.71	141.269
1780.97	156.51
1781.22	150.814
1781.47	160.336
1781.73	149.87
1781.98	144.17
1782.24	147.046
1782.49	146.117
1782.75	150.914
1783	143.314
1783.26	158.577
1783.51	156.688
1783.77	138.598
1784.02	143.382
1784.28	154.843
1784.53	150.103
1784.79	146.325
1785.04	152.071
1785.29	151.129
1785.55	146.358
1785.8	147.304
1786.06	148.241
1786.31	155.856
1786.57	150.134
1786.82	155.87
1787.08	148.262
1787.33	147.339
1787.58	150.243
1787.84	151.254
1788.09	149.434
1788.35	148.574
1788.6	144.841
1788.86	149.689
1789.11	151.629
1789.37	151.664
1789.62	153.637
1789.87	146.968
1790.13	152.737
1790.38	159.466
1790.64	145.107
1790.89	145.107
1791.15	143.182
1791.4	145.066
1791.65	147.85
1791.91	146.878
1792.16	146.863
1792.42	154.526
1792.67	153.574
1792.93	140.172
1793.18	150.727
1793.43	149.781
1793.69	146.91
1793.94	137.331
1794.2	139.265
1794.45	143.102
1794.7	144.057
1794.96	153.615
1795.21	157.492
1795.47	148.982
1795.72	148.1
1795.97	141.419
1796.23	151.041
1796.48	154.909
1796.74	145.334
1796.99	153.047
1797.25	157.882
1797.5	149.263
1797.75	150.247
1798.01	146.422
1798.26	149.322
1798.51	150.297
1798.77	147.421
1799.02	143.575
1799.28	147.412
1799.53	151.241
1799.78	148.333
1800.04	152.147
1800.29	151.157
1800.55	139.605
1800.8	144.391
1801.05	147.259
1801.31	150.131
1801.56	141.481
1801.81	145.322
1802.07	145.327
1802.32	148.218
1802.58	141.507
1802.83	148.25
1803.08	148.275
1803.34	145.42
1803.59	138.721
1803.84	154.131
1804.1	143.566
1804.35	155.114
1804.61	146.476
1804.86	145.541
1805.11	144.605
1805.37	150.412
1805.62	155.263
1805.87	152.412
1806.13	144.739
1806.38	142.837
1806.64	152.494
1806.89	152.515
1807.14	148.673
1807.4	154.46
1807.65	140.967
1807.9	146.75
1808.16	149.642
1808.41	150.608
1808.66	161.214
1808.92	152.543
1809.17	151.584
1809.42	147.733
1809.68	157.378
1809.93	150.636
1810.18	147.749
1810.44	146.789
1810.69	145.826
1810.94	153.531
1811.2	151.594
1811.45	140.022
1811.7	150.623
1811.96	145.8
1812.21	156.406
1812.46	149.664
1812.72	149.679
1812.97	146.807
1813.22	147.797
1813.48	137.206
1813.73	159.403
1813.98	146.881
1814.24	144.984
1814.49	144.057
1814.74	144.096
1815	151.871
1815.25	144.171
1815.5	142.26
1815.76	152.902
1816.01	147.111
1816.26	148.084
1816.52	151.957
1816.77	151
1817.02	138.443
1817.27	144.234
1817.53	141.313
1817.78	143.177
1818.03	145.06
1818.29	156.656
1818.54	147.989
1818.79	148.029
1819.05	141.287
1819.3	154.808
1819.55	148.054
1819.8	145.171
1820.06	147.121
1820.31	146.167
1820.56	149.084
1820.82	149.104
1821.07	156.857
1821.32	151.067
1821.58	154.957
1821.83	145.306
1822.08	160.809
1822.33	155.988
1822.59	142.451
1822.84	161.82
1823.09	142.468
1823.34	141.506
1823.6	147.311
1823.85	150.201
1824.1	144.378
1824.36	140.502
1824.61	152.127
1824.86	153.108
1825.11	151.185
1825.37	148.294
1825.62	140.563
1825.87	155.099
1826.12	138.638
1826.38	154.131
1826.63	152.196
1826.88	136.704
1827.14	146.392
1827.39	151.243
1827.64	150.288
1827.89	145.46
1828.15	153.225
1828.4	151.287
1828.65	141.592
1828.9	142.546
1829.16	156.086
1829.41	147.353
1829.66	148.315
1829.91	145.403
1830.17	147.33
1830.42	153.122
1830.67	152.136
1830.92	151.15
1831.18	153.086
1831.43	152.135
1831.68	151.186
1831.93	157.017
1832.19	158.005
1832.44	151.243
1832.69	140.606
1832.94	156.139
1833.2	152.284
1833.45	149.378
1833.7	147.442
1833.95	151.333
1834.2	149.4
1834.46	138.745
1834.71	158.094
1834.96	150.259
1835.21	145.342
1835.47	155.92
1835.72	154.905
1835.97	150.026
1836.22	147.121
1836.48	148.053
1836.73	142.829
1836.98	151.548
1837.23	140.677
1837.48	150.3
1837.74	142.445
1837.99	150.097
1838.24	142.209
1838.49	147.918
1838.74	147.898
1839	149.114
1839.25	147.285
1839.5	144.433
1839.75	139.608
1840	151.255
1840.26	137.721
1840.51	151.152
1840.76	143.303
1841.01	139.348
1841.27	139.276
1841.52	147.906
1841.77	154.599
1842.02	153.57
1842.27	148.688
1842.53	138.988
1842.78	141.835
1843.03	159.222
1843.28	151.489
1843.53	149.576
1843.78	147.643
1844.04	142.819
1844.29	146.661
1844.54	153.411
1844.79	151.5
1845.04	151.502
1845.3	150.511
1845.55	155.339
1845.8	159.198
1846.05	154.438
1846.3	149.678
1846.55	151.668
1846.81	146.942
1847.06	158.45
1847.31	145.682
1847.56	154.101
1847.81	150.199
1848.07	153.089
1848.32	150.276
1848.57	149.382
1848.82	151.23
1849.07	153.114
1849.32	143.49
1849.57	144.423
1849.83	144.38
1850.08	144.334
1850.33	151.985
1850.58	144.235
1850.83	149.958
1851.09	144.153
1851.34	144.121
1851.59	146.974
1851.84	147.912
1852.09	147.895
1852.34	144.046
1852.59	134.442
1852.84	145.004
1853.1	138.281
1853.35	144.037
1853.6	148.827
1853.85	150.73
1854.1	149.74
1854.35	143.939
1854.6	145.81
1854.86	152.48
1855.11	142.867
1855.36	139.968
1855.61	156.219
1855.86	151.376
1856.11	142.725
1856.36	133.133
1856.61	149.408
1856.87	147.491
1857.12	146.531
1857.37	157.059
1857.62	146.51
1857.87	153.194
1858.12	148.387
1858.37	142.619
1858.63	151.203
1858.88	147.34
1859.13	142.521
1859.38	134.834
1859.63	145.316
1859.88	148.158
1860.13	146.241
1860.38	147.197
1860.63	139.556
1860.89	144.363
1861.14	152.039
1861.39	136.755
1861.64	147.305
1861.89	140.629
1862.14	143.506
1862.39	137.756
1862.64	150.173
1862.9	154.922
1863.15	152.972
1863.4	151.978
1863.65	147.163
1863.9	146.174
1864.15	144.233
1864.4	145.161
1864.65	151.821
1864.9	143.197
1865.15	148.896
1865.4	145.993
1865.66	147.856
1865.91	142.082
1866.16	154.423
1866.41	146.732
1866.66	146.668
1866.91	146.605
1867.16	137.974
1867.41	149.336
1867.66	152.132
1867.91	153.037
1868.16	137.796
1868.41	154.892
1868.67	154.881
1868.92	150.129
1869.17	152.988
1869.42	143.479
1869.67	141.569
1869.92	147.262
1870.17	145.352
1870.42	147.244
1870.67	147.236
1870.92	143.427
1871.17	146.274
1871.42	151.973
1871.67	149.11
1871.92	140.54
1872.17	149.065
1872.42	151.896
1872.68	146.181
1872.93	164.197
1873.18	141.374
1873.43	144.202
1873.68	153.688
1873.93	144.182
1874.18	149.855
1874.43	156.468
1874.68	146.945
1874.93	157.341
1875.18	155.403
1875.43	143.983
1875.68	138.255
1875.93	163.784
1876.18	149.489
1876.43	148.486
1876.68	155.063
1876.93	147.456
1877.18	150.272
1877.43	145.469
1877.68	141.6
1877.93	138.606
1878.18	139.662
1878.44	150.598
1878.69	149.44
1878.93	147.479
1879.19	146.513
1879.44	158.016
1879.69	153.351
1879.94	151.409
1880.19	137.158
1880.44	156.087
1880.69	138.087
1880.94	144.746
1881.19	150.393
1881.44	141.864
1881.69	147.482
1881.94	142.678
1882.19	143.551
1882.44	155.756
1882.69	147.165
1882.94	144.23
1883.19	148.905
1883.44	150.68
1883.69	155.478
1883.94	154.802
1884.19	148.741
1884.44	144.982
1884.69	144.124
1884.94	142.161
1885.19	146.928
1885.44	150.777
1885.69	155.515
1885.94	145.154
1886.19	149.945
1886.44	149.98
1886.69	138.669
1886.94	145.264
1887.19	144.258
1887.44	156.494
1887.69	151.738
1887.94	148.87
1888.19	153.546
1888.44	142.188
1888.69	149.67
1888.94	148.675
1889.19	151.452
1889.44	152.345
1889.69	136.315
1889.94	141.957
1890.19	147.597
1890.44	147.61
1890.69	140.11
1890.94	151.444
1891.19	155.221
1891.43	145.795
1891.68	150.49
1891.94	143.894
1892.18	147.65
1892.43	155.174
1892.68	155.168
1892.93	148.554
1893.18	158.876
1893.43	147.527
1893.68	150.264
1893.93	157.709
1894.18	148.291
1894.43	150.194
1894.68	151.078
1894.93	151.989
1895.18	152.916
1895.43	151.98
1895.68	144.474
1895.93	146.367
1896.18	141.685
1896.43	144.522
1896.68	146.425
1896.93	146.453
1897.18	148.358
1897.42	152.138
1897.68	149.33
1897.92	145.574
1898.17	152.157
1898.42	153.087
1898.67	150.247
1898.92	145.518
1899.17	150.184
1899.42	154.844
1899.67	156.693
1899.92	149.158
1900.17	147.259
1900.42	142.543
1900.67	150.051
1900.92	148.177
1901.16	150.07
1901.41	152.913
1901.66	151.065
1901.91	152.033
1902.16	153.004
1902.41	147.397
1902.66	163.419
1902.91	144.607
1903.16	153.999
1903.41	154.923
1903.66	154.903
1903.91	148.307
1904.16	151.117
1904.41	149.228
1904.65	143.582
1904.9	144.516
1905.15	155.788
1905.4	152.021
1905.65	152.018
1905.9	152.008
1906.15	147.266
1906.4	153.79
1906.65	158.464
1906.9	147.174
1907.14	144.341
1907.39	152.781
1907.64	152.782
1907.89	148.094
1908.14	150.931
1908.39	151.898
1908.64	150.97
1908.89	152.857
1909.14	137.838
1909.39	141.618
1909.63	147.286
1909.88	153.904
1910.13	142.664
1910.38	166.231
1910.63	150.289
1910.88	153.159
1911.13	148.485
1911.38	156.984
1911.62	149.463
1911.87	154.179
1912.12	151.351
1912.37	156.049
1912.62	147.561
1912.87	155.091
1913.12	152.265
1913.37	144.729
1913.61	148.501
1913.86	151.349
1914.11	149.508
1914.36	156.153
1914.61	151.474
1914.86	158.106
1915.11	144.935
1915.36	144.963
1915.6	153.475
1915.85	156.314
1916.1	158.197
1916.35	148.747
1916.6	152.513
1916.85	143.056
1917.1	142.082
1917.34	157.144
1917.59	147.691
1917.84	157.103
1918.09	154.264
1918.34	152.382
1918.59	148.631
1918.83	157.151
1919.08	148.703
1919.33	155.352
1919.58	153.514
1919.83	145.078
1920.08	149.853
1920.33	154.605
1920.57	150.831
1920.82	147.034
1921.07	148.933
1921.32	151.806
1921.57	154.681
1921.81	146.195
1922.06	155.671
1922.31	148.118
1922.56	148.118
1922.81	163.236
1923.06	154.7
1923.31	156.568
1923.55	145.208
1923.8	157.484
1924.05	154.633
1924.3	159.335
1924.55	146.078
1924.79	152.672
1925.04	142.273
1925.29	157.395
1925.54	148.91
1925.79	153.667
1926.04	155.604
1926.28	152.81
1926.53	154.74
1926.78	156.675
1927.03	153.884
1927.28	146.342
1927.52	153.938
1927.77	159.641
1928.02	145.454
1928.27	143.576
1928.52	153.064
1928.76	148.337
1929.01	152.146
1929.26	145.531
1929.51	154.084
1929.76	144.637
1930	148.475
1930.25	152.307
1930.5	146.659
1930.75	153.338
1931	150.531
1931.24	151.491
1931.49	154.343
1931.74	155.279
1931.99	151.461
1932.24	150.491
1932.48	156.163
1932.73	159.936
1932.98	156.115
1933.23	156.108
1933.47	147.549
1933.72	148.506
1933.97	150.446
1934.22	146.721
1934.46	145.866
1934.71	150.75
1934.96	151.83
1935.21	155.752
1935.46	140.599
1935.7	144.481
1935.95	147.391
1936.2	146.339
1936.45	155.854
1936.69	153.937
1936.94	145.341
1937.19	153.884
1937.44	146.226
1937.68	146.195
1937.93	155.684
1938.18	150.895
1938.43	147.056
1938.68	154.668
1938.92	154.721
1939.17	149.978
1939.42	157.619
1939.67	150.025
1939.91	147.186
1940.16	145.304
1940.41	150.073
1940.66	149.156
1940.9	148.239
1941.15	152.152
1941.4	155.073
1941.64	150.3
1941.89	157.913
1942.14	146.41
1942.39	153.947
1942.63	157.817
1942.88	148.433
1943.13	149.422
1943.38	143.698
1943.62	147.457
1943.87	147.389
1944.12	145.43
1944.37	153.157
1944.61	153.189
1944.86	152.266
1945.11	147.525
1945.35	146.606
1945.6	145.686
1945.85	147.633
1946.1	149.576
1946.34	144.823
1946.59	153.451
1946.84	150.598
1947.09	137.217
1947.33	157.298
1947.58	156.327
1947.83	141.01
1948.07	148.656
1948.32	149.61
1948.57	154.389
1948.82	145.771
1949.06	156.295
1949.31	155.366
1949.56	154.441
1949.8	154.473
1950.05	153.554
1950.3	145.936
1950.54	150.785
1950.79	153.728
1951.04	153.782
1951.29	151.924
1951.53	152.945
1951.78	156.842
1952.03	145.37
1952.27	153.079
1952.52	150.221
1952.77	144.482
1953.01	151.198
1953.26	150.265
1953.51	160.871
1953.76	153.141
1954	142.52
1954.25	147.225
1954.49	152.896
1954.74	150.897
1954.99	140.288
1955.24	156.553
1955.48	154.63
1955.73	155.606
1955.98	148.939
1956.22	149.003
1956.47	161.581
1956.72	142.432
1956.96	153.998
1957.21	146.342
1957.46	155.981
1957.7	155.052
1957.95	152.199
1958.2	153.181
1958.44	158.001
1958.69	137.828
1958.94	148.408
1959.18	151.278
1959.43	150.287
1959.68	155.075
1959.92	154.108
1960.17	146.398
1960.42	148.295
1960.66	160.757
1960.91	153.047
1961.16	140.537
1961.4	149.15
1961.65	148.166
1961.9	159.666
1962.14	151.033
1962.39	150.082
1962.63	161.604
1962.88	159.691
1963.13	153.938
1963.37	149.144
1963.62	149.148
1963.87	154.913
1964.11	157.8
1964.36	144.377
1964.61	149.193
1964.85	151.11
1965.1	143.416
1965.35	150.14
1965.59	158.775
1965.84	155.897
1966.08	155.912
1966.33	158.823
1966.58	155.015
1966.82	150.244
1967.07	156.034
1967.32	153.169
1967.56	161.815
1967.81	155.087
1968.05	155.1
1968.3	147.415
1968.55	150.305
1968.79	157.031
1969.04	152.209
1969.29	156.026
1969.53	154.064
1969.78	154.015
1970.02	157.806
1970.27	152.004
1970.52	159.65
1970.76	159.627
1971.01	151.922
1971.25	148.06
1971.5	159.554
1971.75	160.497
1971.99	153.769
1972.24	167.209
1972.48	160.509
1972.73	162.436
1972.98	153.799
1973.22	163.377
1973.47	155.676
1973.71	158.518
1973.96	160.405
1974.21	160.383
1974.45	146.949
1974.7	162.278
1974.94	171.863
1975.19	160.366
1975.44	162.296
1975.68	169.986
1975.93	162.341
1976.17	162.362
1976.42	162.378
1976.66	155.673
1976.91	150.882
1977.16	156.638
1977.4	166.224
1977.65	159.498
1977.89	168.111
1978.14	161.372
1978.39	160.386
1978.63	160.363
1978.88	147.884
1979.12	163.209
1979.37	154.582
1979.61	160.337
1979.86	163.213
1980.1	156.509
1980.35	169.93
1980.6	160.328
1980.84	165.09
1981.09	162.187
1981.33	169.837
1981.58	154.485
1981.82	166.919
1982.07	165.949
1982.31	164.984
1982.56	160.189
1982.81	161.12
1983.05	162.049
1983.3	171.583
1983.54	165.79
1983.79	161.926
1984.03	171.475
1984.28	158.07
1984.52	166.662
1984.77	156.124
1985.02	160.891
1985.26	165.644
1985.51	164.644
1985.75	169.401
1986	157.932
1986.24	152.206
1986.49	156.05
1986.73	169.461
1986.98	167.562
1987.22	164.687
1987.47	172.348
1987.71	157.976
1987.96	181.825
1988.21	166.475
1988.45	175.008
1988.7	165.382
1988.94	165.251
1989.19	157.675
1989.43	163.192
1989.68	173.297
1989.92	168.987
1990.17	171.089
1990.41	173.124
1990.66	170.344
1990.9	166.528
1991.15	170.769
1991.39	166.474
1991.64	169.848
1991.88	165.044
1992.13	175.117
1992.37	160.497
1992.62	177.895
1992.86	177.843
1993.11	176.989
1993.35	171.363
1993.6	173.615
1993.84	171.643
1994.09	171.093
1994.33	164.765
1994.58	156.427
1994.82	168.459
1995.07	168.933
1995.31	171.665
1995.56	170.167
1995.8	172.252
1996.05	167.815
1996.29	178.805
1996.54	173.084
1996.78	173.188
1997.03	172.034
1997.27	170.133
1997.52	178.199
1997.76	173.291
1998.01	174.213
1998.25	167.674
1998.5	177.557
1998.74	168.575
1998.99	172.901
1999.23	174.121
1999.48	173.328
1999.72	179.047
1999.97	176.067
2000.21	174.608
2000.46	178.549
2000.7	170.12
2000.95	172.224
2001.19	177.05
2001.43	175.708
2001.68	171.665
2001.92	171.073
2002.17	172.305
2002.41	172.766
2002.66	172.881
2002.9	175.076
2003.15	176.367
2003.39	176.356
2003.64	180.064
2003.88	178.058
2004.13	179.46
2004.37	180.168
2004.61	184.061
2004.86	180.794
2005.1	176.697
2005.35	175.826
2005.59	172.255
2005.84	174.429
2006.08	177.48
2006.33	176.559
2006.57	173.45
2006.81	175.228
2007.06	179.215
2007.3	175.866
2007.55	176.095
2007.79	178.589
2008.04	174.777
2008.28	182.406
2008.53	176.405
2008.77	173.411
2009.01	183.37
2009.26	180.097
2009.5	175.582
2009.75	176.092
2009.99	178.111
2010.24	179.916
2010.48	178.27
2010.73	177.863
2010.97	179.84
2011.21	166.477
2011.46	181.058
2011.7	176.619
2011.95	185.87
2012.19	177.957
2012.43	177.075
2012.68	176.118
2012.92	168.572
2013.17	180.774
2013.42	179.769
2013.67	174.035
2013.91	168.342
2014.16	172.039
2014.41	173.841
2014.66	172.809
2014.9	180.236
2015.15	177.396
2015.4	180.219
2015.64	164.287
2015.89	179.335
2016.14	175.601
2016.39	172.765
2016.63	177.504
2016.88	177.635
2017.13	169.201
2017.37	184.228
2017.62	170.103
2017.87	172.881
2018.11	173.766
2018.36	172.76
2018.61	167.995
2018.86	171.685
2019.1	173.496
2019.35	167.802
2019.6	168.677
2019.84	173.328
2020.09	171.429
2020.34	179.845
2020.58	169.538
2020.83	165.783
2021.08	172.331
2021.33	174.213
2021.57	175.161
2021.82	177.034
2022.07	164.849
2022.31	177.945
2022.56	158.254
2022.81	176.948
2023.05	160.056
2023.3	167.496
2023.55	175.879
2023.8	173.033
2024.04	154.292
2024.29	171.086
2024.54	171.052
2024.78	169.126
2025.03	170.935
2025.27	175.546
2025.52	169.889
2025.77	171.704
2026.02	167.924
2026.26	179.988
2026.51	162.284
2026.76	155.813
2027	167.116
2027.25	164.44
2027.5	162.712
2027.74	156.248
2027.99	166.518
2028.23	167.346
2028.48	166.256
2028.73	167.663
2028.98	169.98
2029.22	169.669
2029.47	164.648
2029.72	184.469
2029.96	164.512
2030.21	164.331
2030.45	169.739
2030.7	173.46
2030.95	163.065
2031.19	175.308
2031.44	164.214
2031.69	160.456
2031.93	177.252
2032.18	168.859
2032.43	162.374
2032.67	168.963
2032.92	162.487
2033.17	161.606
2033.41	160.713
2033.66	174.767
2033.91	163.598
2034.15	162.686
2034.4	158.861
2034.64	155.016
2034.89	178.185
2035.14	167.876
2035.38	167.947
2035.63	168.005
2035.87	169.968
2036.12	164.483
2036.37	171.115
2036.61	172.042
2036.86	165.408
2037.11	167.282
2037.35	162.647
2037.6	170.125
2037.84	163.571
2038.09	165.424
2038.34	176.621
2038.58	167.248
2038.83	166.287
2039.08	168.128
2039.32	170.903
2039.57	171.807
2039.81	167.107
2040.06	157.732
2040.31	164.22
2040.55	164.174
2040.8	156.667
2041.04	165.023
2041.29	171.515
2041.54	161.229
2041.78	174.267
2042.03	165.865
2042.27	163.046
2042.52	168.617
2042.77	151.809
2043.01	160.182
2043.26	164.839
2043.5	161.126
2043.75	163.965
2044	157.504
2044.24	163.166
2044.49	157.593
2044.73	165.048
2044.98	166.873
2045.23	159.339
2045.47	159.195
2045.72	169.649
2045.96	166.903
2046.21	168.076
2046.45	161.801
2046.7	158.857
2046.95	154.032
2047.19	167.917
2047.44	163.257
2047.68	160.408
2047.93	155.616
2048.17	150.922
2048.42	153.724
2048.67	159.325
2048.91	163.064
2049.16	166.811
2049.4	158.459
2049.65	165.956
2049.89	166.004
2050.14	167.931
2050.39	161.441
2050.63	158.684
2050.88	165.248
2051.12	164.322
2051.37	150.298
2051.61	156.805
2051.86	157.692
2052.11	163.292
2052.35	153.958
2052.6	161.452
2052.84	165.195
2053.09	156.808
2053.33	168.977
2053.58	154.995
2053.82	160.643
2054.07	159.784
2054.31	162.62
2054.56	163.577
2054.8	164.517
2055.05	161.707
2055.3	162.633
2055.54	155.138
2055.79	166.322
2056.03	154.147
2056.28	164.424
2056.52	166.277
2056.77	159.715
2057.01	158.77
2057.26	149.421
2057.5	159.71
2057.75	164.397
2058	159.742
2058.24	157.896
2058.49	160.726
2058.73	158.894
2058.98	161.737
2059.22	158.028
2059.47	171.157
2059.71	166.487
2059.96	163.687
2060.2	161.818
2060.45	150.564
2060.69	156.156
2060.94	151.459
2061.18	158.029
2061.43	170.221
2061.67	166.494
2061.92	154.329
2062.16	155.268
2062.41	159.955
2062.65	159.966
2062.9	152.491
2063.14	154.386
2063.39	151.603
2063.63	155.376
2063.88	159.146
2064.12	158.226
2064.37	146.054
2064.61	159.189
2064.86	161.082
2065.1	164.857
2065.35	164.895
2065.59	161.193
2065.84	151.853
2066.08	164.093
2066.33	155.676
2066.57	158.514
2066.82	160.399
2067.06	154.781
2067.31	164.191
2067.55	155.751
2067.8	155.771
2068.04	152.978
2068.29	148.3
2068.53	157.715
2068.78	160.544
2069.02	154.927
2069.27	159.629
2069.51	162.426
2069.76	152.981
2070	168.882
2070.25	166.974
2070.49	153.841
2070.73	157.664
2070.98	150.223
2071.22	157.826
2071.47	168.16
2071.71	149.304
2071.96	156.065
2072.2	161.78
2072.45	161.768
2072.69	161.755
2072.94	155.158
2073.18	144.788
2073.43	161.734
2073.67	163.608
2073.92	161.732
2074.16	155.146
2074.4	157.98
2074.65	165.531
2074.89	157.085
2075.14	160.896
2075.38	157.181
2075.63	155.366
2075.87	161.109
2076.12	161.167
2076.36	155.533
2076.6	157.425
2076.85	158.376
2077.09	159.302
2077.34	165.875
2077.58	153.57
2077.83	152.555
2078.07	154.423
2078.31	152.555
2078.56	158.248
2078.8	151.658
2079.05	154.502
2079.29	153.58
2079.54	149.841
2079.78	153.689
2080.03	156.554
2080.27	159.415
2080.51	166.054
2080.76	150.956
2081	156.628
2081.25	159.446
2081.49	158.489
2081.74	149.036
2081.98	154.703
2082.22	145.249
2082.47	164.157
2082.71	150.94
2082.96	162.288
2083.2	160.401
2083.45	159.453
2083.69	161.336
2083.93	151.88
2084.18	160.384
2084.42	149.991
2084.67	165.108
2084.91	161.331
2085.15	149.995
2085.4	163.227
2085.64	162.281
2085.89	149.996
2086.13	150.951
2086.37	162.334
2086.62	169.006
2086.86	161.478
2087.11	167.17
2087.35	148.268
2087.59	150.185
2087.84	156.824
2088.08	165.342
2088.32	156.827
2088.57	159.67
2088.81	153.998
2089.06	156.845
2089.3	157.799
2089.54	154.984
2089.79	156.903
2090.03	156.945
2090.28	156.012
2090.52	154.126
2090.76	157.926
2091.01	154.15
2091.25	153.22
2091.5	163.661
2091.74	166.522
2091.98	157.084
2092.23	160.924
2092.47	163.821
2092.72	161.976
2092.96	150.641
2093.2	158.278
2093.45	148.82
2093.69	156.458
2093.93	168.85
2094.18	166.034
2094.42	165.114
2094.66	152.764
2094.91	159.419
2095.15	157.509
2095.39	166.053
2095.64	162.223
2095.88	162.192
2096.13	162.169
2096.37	150.748
2096.61	160.237
2096.86	150.731
2097.1	163.073
2097.34	156.402
2097.59	159.219
2097.83	159.186
2098.07	155.375
2098.32	162.961
2098.56	146.815
2098.8	151.539
2099.05	167.673
2099.29	152.483
2099.53	158.168
2099.78	150.568
2100.02	169.545
2100.27	160.056
2100.51	158.162
2100.75	156.273
2101	152.491
2101.24	146.832
2101.48	152.558
2101.73	155.426
2101.97	149.737
2102.21	157.335
2102.45	151.632
2102.7	161.13
2102.94	150.673
2103.18	159.194
2103.43	150.616
2103.67	156.295
2103.92	157.239
2104.16	163.874
2104.4	154.384
2104.64	158.194
2104.89	149.673
2105.13	162.99
2105.37	161.113
2105.62	161.141
2105.86	147.875
2106.1	155.506
2106.35	155.523
2106.59	147.934
2106.83	154.596
2107.08	160.306
2107.32	150.813
2107.56	164.129
2107.8	167.913
2108.05	158.375
2108.29	163.085
2108.53	163.039
2108.78	152.547
2109.02	152.514
2109.26	164.844
2109.51	158.204
2109.75	155.395
2109.99	158.276
2110.23	162.077
2110.48	145.928
2110.72	167.776
2110.96	155.426
2111.21	148.776
2111.45	158.274
2111.69	155.412
2111.93	165.838
2112.18	160.122
2112.42	155.364
2112.66	151.564
2112.91	158.227
2113.15	159.193
2113.39	159.211
2113.63	152.599
2113.88	164.035
2114.12	159.298
2114.36	157.387
2114.61	156.422
2114.85	159.269
2115.09	160.227
2115.33	157.379
2115.58	157.37
2115.82	150.704
2116.06	159.243
2116.31	156.379
2116.55	155.397
2116.79	153.466
2117.03	162.948
2117.28	162.939
2117.52	157.234
2117.76	154.392
2118	165.77
2118.25	154.35
2118.49	157.172
2118.73	155.231
2118.97	148.544
2119.22	161.788
2119.46	155.115
2119.7	154.133
2119.94	162.632
2120.19	155.967
2120.43	151.206
2120.67	163.515
2120.91	167.31
2121.16	154.069
2121.4	159.77
2121.64	163.598
2121.88	157
2122.13	165.571
2122.37	153.272
2122.61	165.636
2122.85	159.967
2123.1	159.039
2123.34	156.209
2123.58	152.424
2123.82	149.581
2124.07	158.113
2124.31	151.45
2124.55	166.608
2124.79	162.769
2125.03	152.271
2125.28	156.937
2125.52	151.181
2125.76	151.128
2126	151.081
2126.25	160.503
2126.49	159.514
2126.73	148.124
2126.97	151.876
2127.21	157.518
2127.46	160.321
2127.7	157.469
2127.94	154.624
2128.18	149.887
2128.43	164.995
2128.67	157.422
2128.91	159.313
2129.15	148.915
2129.39	153.635
2129.64	165.909
2129.88	153.61
2130.12	162.108
2130.36	155.485
2130.6	157.365
2130.85	151.683
2131.09	164.894
2131.33	160.15
2131.57	156.347
2131.81	160.1
2132.06	156.299
2132.3	159.116
2132.54	151.544
2132.78	151.514
2133.02	158.091
2133.27	162.793
2133.51	145.805
2133.75	151.472
2133.99	147.703
2134.23	155.254
2134.48	153.372
2134.72	152.433
2134.96	168.472
2135.2	162.804
2135.44	162.799
2135.68	160.903
2135.93	162.773
2136.17	160.857
2136.41	157.035
2136.65	154.158
2136.89	146.593
2137.14	163.568
2137.38	161.689
2137.62	160.749
2137.86	165.48
2138.1	158.914
2138.34	160.787
2138.59	164.511
2138.83	158.82
2139.07	156.021
2139.31	160.786
2139.55	154.22
2139.79	156.028
2140.03	147.486
2140.28	156.882
2140.52	155.915
2140.76	156.837
2141	155.877
2141.24	160.573
2141.49	151.142
2141.73	163.387
2141.97	150.171
2142.21	167.081
2142.45	153.887
2142.69	167.065
2142.93	151.092
2143.18	149.232
2143.42	166.318
2143.66	160.598
2143.9	154.555
2144.14	147.976
2144.38	163.98
2144.62	153.696
2144.87	156.57
2145.11	163.186
2145.35	150.868
2145.59	162.163
2145.83	150.887
2146.07	163.101
2146.31	157.445
2146.55	158.371
2146.8	154.598
2147.04	163.984
2147.28	165.846
2147.52	170.52
2147.76	148.887
2148	164.838
2148.24	159.184
2148.48	165.739
2148.73	148.815
2148.97	154.428
2149.21	163.793
2149.45	155.31
2149.69	156.21
2149.93	162.711
2150.17	157.045
2150.42	163.564
2150.66	161.655
2150.9	164.45
2151.14	156.948
2151.38	152.274
2151.62	160.737
2151.86	150.439
2152.1	158.902
2152.34	153.285
2152.58	159.872
2152.83	165.474
2153.07	156.073
2153.31	156.044
2153.55	158.829
2153.79	154.128
2154.03	162.548
2154.27	155.96
2154.51	159.668
2154.75	163.359
2154.99	150.183
2155.24	159.479
2155.48	154.73
2155.72	152.809
2155.96	160.24
2156.2	157.395
2156.44	160.167
2156.68	158.281
2156.92	157.339
2157.16	156.4
2157.4	163.873
2157.64	157.345
2157.89	159.235
2158.13	161.133
2158.37	157.42
2158.61	161.165
2158.85	155.555
2159.09	152.743
2159.33	171.421
2159.57	159.25
2159.81	154.552
2160.05	156.388
2160.29	152.613
2160.53	156.308
2160.77	161.874
2161.01	152.508
2161.25	159.023
2161.5	160.88
2161.74	158.065
2161.98	150.585
2162.22	158.975
2162.46	157.108
2162.7	165.504
2162.94	161.769
2163.18	168.284
2163.42	151.472
2163.66	160.781
2163.9	149.573
2164.14	147.691
2164.38	150.47
2164.62	160.689
2164.86	163.442
2165.11	157.824
2165.35	151.308
2165.59	160.64
2165.83	154.119
2166.07	162.507
2166.31	147.598
2166.55	154.103
2166.79	158.743
2167.03	161.513
2167.27	156.823
2167.51	158.662
2167.75	152.107
2167.99	171.605
2168.23	151.055
2168.47	163.074
2168.71	147.243
2168.95	155.606
2169.19	145.388
2169.43	155.635
2169.67	170.547
2169.91	161.291
2170.15	162.277
2170.39	163.271
2170.63	159.583
2170.87	156.802
2171.11	153.997
2171.35	165.139
2171.59	159.537
2171.83	152.958
2172.07	163.078
2172.31	157.439
2172.56	161.126
2172.79	160.168
2173.04	161.074
2173.28	157.353
2173.51	160.137
2173.76	158.276
2174	153.641
2174.24	156.448
2174.48	149.027
2174.72	167.621
2174.96	153.682
2175.2	158.327
2175.44	150.888
2175.68	165.747
2175.92	162.948
2176.16	153.649
2176.4	162.003
2176.64	152.697
2176.88	158.246
2177.12	163.809
2177.36	152.662
2177.6	158.239
2177.84	163.815
2178.08	152.663
2178.32	157.314
2178.55	159.156
2178.8	162.826
2179.03	160.007
2179.28	153.503
2179.52	168.365
2179.75	162.796
2180	157.226
2180.23	153.511
2180.47	160.937
2180.71	154.433
2180.95	153.494
2181.19	158.125
2181.43	161.833
2181.67	162.751
2181.91	154.377
2182.15	154.359
2182.39	156.206
2182.63	148.761
2182.87	159.88
2183.11	163.575
2183.35	160.76
2183.59	159.795
2183.83	151.404
2184.07	161.567
2184.31	159.687
2184.55	157.81
2184.79	159.655
2185.03	162.44
2185.27	152.262
2185.51	153.199
2185.75	163.406
2185.99	163.425
2186.23	151.4
2186.47	162.555
2186.7	154.236
2186.95	160.774
2187.18	156.182
2187.42	155.299
2187.66	159.058
2187.9	160.021
2188.14	168.389
2188.38	161.87
2188.62	153.484
2188.86	166.451
2189.1	160.845
2189.34	158.949
2189.58	160.76
2189.82	156.997
2190.06	157.88
2190.3	155.077
2190.54	155.997
2190.78	155.073
2191.01	159.721
2191.25	161.589
2191.49	157.879
2191.73	165.306
2191.97	143.991
2192.21	159.77
2192.45	162.566
2192.69	157.941
2192.93	157.955
2193.17	162.62
2193.41	145.945
2193.65	158.962
2193.89	157.141
2194.13	155.351
2194.36	161.93
2194.6	159.194
2194.84	160.152
2195.08	160.143
2195.32	160.123
2195.56	151.742
2195.8	160.081
2196.04	155.4
2196.28	155.355
2196.52	155.301
2196.76	169.173
2197	157.067
2197.23	162.603
2197.47	155.154
2197.71	166.26
2197.95	158.84
2198.19	158.845
2198.43	164.427
2198.67	159.827
2198.91	157.083
2199.15	165.485
2199.38	162.756
2199.62	154.443
2199.86	152.635
2200.1	162.912
2200.34	162.06
2200.58	151.91
2200.82	163.154
2201.06	166.946
2201.3	159.542
2201.54	154.921
2201.77	171.625
2202.01	158.419
2202.25	167.367
2202.49	170.835
2202.73	151.459
2202.97	167.524
2203.21	162.074
2203.45	156.448
2203.68	164.783
2203.92	159.343
2204.16	156.124
2204.4	159.661
2204.64	157.783
2204.88	160.608
2205.12	159.565
2205.36	161.284
2205.59	163.946
2205.83	161.994
2206.07	159.18
2206.31	152.675
2206.55	160.149
2206.79	159.225
2207.03	158.235
2207.26	164.752
2207.5	158.268
2207.74	162.017
2207.98	158.33
2208.22	159.294
2208.46	161.19
2208.7	151.914
2208.93	149.148
2209.17	164.999
2209.41	154.773
2209.65	161.301
2209.89	167.821
2210.13	163.159
2210.36	156.646
2210.6	152.008
2210.84	160.414
2211.08	154.85
2211.32	166.058
2211.56	156.762
2211.8	171.704
2212.03	156.823
2212.27	153.126
2212.51	170.871
2212.75	155.959
2212.99	161.544
2213.23	165.259
2213.46	157.781
2213.7	161.486
2213.94	164.254
2214.18	158.669
2214.42	155.902
2214.66	159.698
2214.89	148.561
2215.13	154.177
2215.37	162.592
2215.61	149.532
2215.85	162.61
2216.08	160.746
2216.32	157.946
2216.56	157.944
2216.8	161.674
2217.04	165.4
2217.28	164.46
2217.51	152.323
2217.75	159.798
2217.99	150.468
2218.23	160.738
2218.47	160.736
2218.7	158.875
2218.94	160.759
2219.18	151.442
2219.42	156.139
2219.66	172.051
2219.9	157.12
2220.13	164.616
2220.37	161.828
2220.61	155.282
2220.85	158.079
2221.09	160.877
2221.32	163.663
2221.56	154.282
2221.8	168.25
2222.04	157.941
2222.27	165.379
2222.51	156.023
2222.75	158.819
2222.99	161.631
2223.23	155.118
2223.46	161.678
2223.7	165.442
2223.94	155.205
2224.18	153.381
2224.42	170.255
2224.65	159.083
2224.89	169.411
2225.13	153.545
2225.37	164.807
2225.6	166.72
2225.84	157.405
2226.08	164.932
2226.32	160.284
2226.56	165.003
2226.79	165.029
2227.03	159.441
2227.27	163.222
2227.51	152.934
2227.74	164.205
2227.98	166.092
2228.22	165.15
2228.46	163.262
2228.69	156.686
2228.93	158.551
2229.17	166.042
2229.41	162.283
2229.64	166.033
2229.88	158.56
2230.12	157.664
2230.36	164.269
2230.6	157.73
2230.83	168.084
2231.07	158.732
2231.31	156.888
2231.55	157.864
2231.78	165.417
2232.02	152.296
2232.26	166.423
2232.5	156.116
2232.73	160.848
2232.97	159.937
2233.21	156.206
2233.45	164.7
2233.68	157.204
2233.92	145.941
2234.16	159.138
2234.39	157.274
2234.63	154.441
2234.87	160.076
2235.11	161.938
2235.34	163.791
2235.58	160.911
2235.82	153.347
2236.06	174.038
2236.29	164.641
2236.53	160.889
2236.77	160.898
2237	153.38
2237.24	149.626
2237.48	159.07
2237.72	162.868
2237.95	159.165
2238.19	162.057
2238.43	160.235
2238.67	151.797
2238.9	150.895
2239.14	157.542
2239.38	159.486
2239.61	160.441
2239.85	163.257
2240.09	155.689
2240.33	162.246
2240.56	155.607
2240.8	157.474
2241.04	166.029
2241.27	157.601
2241.51	160.442
2241.75	163.283
2241.99	152.916
2242.22	165.194
2242.46	151.996
2242.7	160.508
2242.93	166.192
2243.17	173.748
2243.41	154.861
2243.64	156.728
2243.88	165.198
2244.12	152.917
2244.36	161.406
2244.59	163.299
2244.83	162.38
2245.07	152.986
2245.3	153.049
2245.54	162.554
2245.78	159.757
2246.01	168.297
2246.25	169.278
2246.49	164.584
2246.72	164.613
2246.96	166.521
2247.2	161.816
2247.43	164.68
2247.67	156.179
2247.91	145.775
2248.14	162.809
2248.38	160.908
2248.62	161.844
2248.85	152.371
2249.09	162.772
2249.33	160.87
2249.56	162.756
2249.8	158.053
2250.04	158.072
2250.27	159.963
2250.51	153.319
2250.75	163.697
2250.98	156.095
2251.22	159.841
2251.46	164.539
2251.69	165.461
2251.93	157.889
2252.17	153.167
2252.4	166.422
2252.64	152.262
2252.88	160.807
2253.11	168.428
2253.35	169.467
2253.59	173.32
2253.82	165.793
2254.06	165.833
2254.3	155.437
2254.53	163.052
2254.77	154.541
2255.01	159.285
2255.24	158.321
2255.48	156.433
2255.72	157.382
2255.95	158.336
2256.19	153.602
2256.42	149.834
2256.66	158.4
2256.9	159.377
2257.13	161.301
2257.37	164.176
2257.61	162.304
2257.84	163.279
2258.08	163.297
2258.32	157.609
2258.55	173.76
2258.79	147.18
2259.02	152.893
2259.26	160.514
2259.5	168.14
2259.73	160.554
2259.97	171.021
2260.2	160.587
2260.44	163.456
2260.68	155.867
2260.91	155.882
2261.15	161.611
2261.39	156.907
2261.62	158.844
2261.86	164.56
2262.1	157.91
2262.33	160.778
2262.57	157.937
2262.8	165.574
2263.04	158.945
2263.28	168.503
2263.51	159.023
2263.75	152.403
2263.98	168.66
2264.22	155.378
2264.46	168.792
2264.69	162.171
2264.93	162.219
2265.16	167.032
2265.4	166.112
2265.64	164.232
2265.87	156.596
2266.11	155.647
2266.34	162.321
2266.58	170.88
2266.81	152.7
2267.05	164.116
2267.29	159.308
2267.52	158.328
2267.76	156.396
2267.99	155.417
2268.23	159.197
2268.47	170.613
2268.7	163.928
2268.94	157.259
2269.17	159.188
2269.41	170.669
2269.65	158.311
2269.88	150.721
2270.12	165.087
2270.35	158.46
2270.59	168.064
2270.82	162.363
2271.06	168.118
2271.3	171.979
2271.53	165.317
2271.77	156.733
2272	154.843
2272.24	153.916
2272.47	172.108
2272.71	170.199
2272.95	155.856
2273.18	149.167
2273.42	161.615
2273.65	165.451
2273.89	160.676
2274.12	160.685
2274.36	176.006
2274.6	150.172
2274.83	158.795
2275.07	162.633
2275.3	161.688
2275.54	160.739
2275.77	155.005
2276.01	163.617
2276.24	160.769
2276.48	160.808
2276.72	168.513
2276.95	157.051
2277.18	159.959
2277.42	158.078
2277.66	164.843
2277.89	160.109
2278.13	158.252
2278.36	156.4
2278.6	155.464
2278.83	153.555
2279.07	156.438
2279.3	161.234
2279.54	163.145
2279.78	157.354
2280.01	164.961
2280.24	156.277
2280.48	147.602
2280.72	159.075
2280.95	160.003
2281.19	169.567
2281.42	161.881
2281.66	154.193
2281.89	150.344
2282.13	154.195
2282.36	164.751
2282.6	159.023
2282.83	165.767
2283.07	159.092
2283.3	158.17
2283.54	161.094
2283.77	162.119
2284.01	162.195
2284.24	156.498
2284.48	165.226
2284.71	160.462
2284.95	157.596
2285.19	167.253
2285.42	161.517
2285.65	161.53
2285.89	166.347
2286.12	155.727
2286.36	161.439
2286.59	168.166
2286.83	170.103
2287.06	157.625
2287.3	166.362
2287.54	156.798
2287.77	165.49
2288	161.655
2288.24	155.919
2288.47	159.762
2288.71	166.48
2288.94	146.23
2289.18	168.351
2289.41	163.486
2289.65	160.538
2289.88	172.026
2290.12	164.262
2290.35	154.624
2290.59	166.145
2290.82	162.3
2291.06	160.381
2291.29	161.366
2291.53	148.906
2291.76	164.35
2292	158.614
2292.23	154.792
2292.47	149.042
2292.7	160.626
2292.94	166.443
2293.17	159.737
2293.41	164.583
2293.64	157.863
2293.88	150.17
2294.11	158.854
2294.34	160.769
2294.58	163.641
2294.81	153.017
2295.05	153.951
2295.28	161.635
2295.52	154.871
2295.75	156.774
2295.99	171.195
2296.22	162.51
2296.46	165.359
2296.69	164.329
2296.93	159.51
2297.16	150.864
2297.39	150.885
2297.63	162.463
2297.86	157.687
2298.1	155.806
2298.33	166.456
2298.57	156.857
2298.8	164.59
2299.04	145.345
2299.27	156.952
2299.51	156.987
2299.74	161.838
2299.97	161.854
2300.21	161.851
2300.44	167.64
2300.68	157.99
2300.91	164.762
2301.15	166.72
2301.38	149.371
2301.61	167.726
2301.85	159.051
2302.08	171.603
2302.32	152.293
2302.55	159.035
2302.79	160.954
2303.02	159.028
2303.25	160.955
2303.49	155.155
2303.72	163.838
2303.96	164.807
2304.19	163.858
2304.43	170.644
2304.66	162.947
2304.89	157.172
2305.13	150.434
2305.36	154.327
2305.6	155.311
2305.83	164.014
2306.07	166.926
2306.3	163.082
2306.53	164.069
2306.77	164.077
2307	158.281
2307.24	164.078
2307.47	162.139
2307.7	156.326
2307.94	159.205
2308.17	162.092
2308.41	169.806
2308.64	159.165
2308.87	156.266
2309.11	162.07
2309.34	156.297
2309.58	164.056
2309.81	161.197
2310.04	165.116
2310.28	166.12
2310.51	163.234
2310.75	172.913
2310.98	161.299
2311.21	162.249
2311.45	158.343
2311.68	166.95
2311.92	162.012
2312.15	160.023
2312.38	157.087
2312.62	157.063
2312.85	165.721
2313.08	160.874
2313.32	152.188
2313.55	159.926
2313.79	172.524
2314.02	157.14
2314.25	157.187
2314.49	157.234
2314.72	164.049
2314.95	159.276
2315.19	163.199
2315.42	156.455
2315.66	163.184
2315.89	167.978
2316.12	166.01
2316.36	157.266
2316.59	163.942
2316.82	167.757
2317.06	160.974
2317.29	169.661
2317.52	168.704
2317.76	158.091
2317.99	166.827
2318.23	162.993
2318.46	162.937
2318.69	160.978
2318.93	170.612
2319.16	159
2319.39	153.181
2319.63	157.984
2319.86	157.001
2320.09	162.779
2320.33	160.85
2320.56	153.134
2320.79	159.888
2321.03	161.833
2321.26	169.579
2321.5	153.197
2321.73	157.088
2321.96	171.609
2322.2	162.963
2322.43	168.813
2322.66	163.057
2322.9	170.808
2323.13	152.433
2323.36	165.974
2323.6	158.252
2323.83	163.095
2324.06	179.545
2324.3	165.046
2324.53	157.303
2324.76	171.799
2325	167.89
2325.23	176.535
2325.46	176.471
2325.7	179.327
2325.93	185.085
2326.16	185.048
2326.4	188.87
2326.63	188.829
2326.86	198.436
2327.09	218.65
2327.33	245.605
2327.56	278.333
2327.79	294.68
2328.03	277.28
2328.26	274.357
2328.49	255.094
2328.73	225.216
2328.96	196.305
2329.19	188.556
2329.43	185.628
2329.66	175.945
2329.89	181.707
2330.13	182.662
2330.36	174.017
2330.59	178.82
2330.82	170.137
2331.06	173.01
2331.29	166.262
2331.52	161.458
2331.76	161.482
2331.99	159.582
2332.22	168.293
2332.46	170.173
2332.69	159.544
2332.92	158.557
2333.16	170.09
2333.39	160.439
2333.62	162.343
2333.85	170.988
2334.09	169.046
2334.32	154.587
2334.55	162.258
2334.79	161.253
2335.02	160.267
2335.25	164.096
2335.48	162.167
2335.72	167.927
2335.95	163.125
2336.18	172.754
2336.41	157.361
2336.65	158.305
2336.88	155.41
2337.11	156.364
2337.34	164.05
2337.58	156.35
2337.81	157.304
2338.04	164.981
2338.28	162.085
2338.51	153.426
2338.74	160.147
2338.97	163.986
2339.21	169.759
2339.44	161.112
2339.67	158.227
2339.91	158.222
2340.14	168.781
2340.37	169.721
2340.6	164.887
2340.84	162.937
2341.07	159.058
2341.3	157.093
2341.53	152.242
2341.77	160.819
2342	158.853
2342.23	157.865
2342.46	159.756
2342.7	159.731
2342.93	168.34
2343.16	160.661
2343.39	156.823
2343.63	161.617
2343.86	154.899
2344.09	168.312
2344.32	162.563
2344.56	157.781
2344.79	164.497
2345.02	165.45
2345.25	166.398
2345.49	165.421
2345.72	160.602
2345.95	156.727
2346.18	161.487
2346.41	159.541
2346.65	163.359
2346.88	168.138
2347.11	161.426
2347.34	160.454
2347.58	160.441
2347.81	168.096
2348.04	156.611
2348.27	154.705
2348.5	160.469
2348.74	154.736
2348.97	149.947
2349.2	154.72
2349.43	172.885
2349.67	155.584
2349.9	160.3
2350.13	159.262
2350.36	159.166
2350.59	160.004
2350.83	170.284
2351.06	165.161
2351.29	166.378
2351.52	165.04
2351.75	166.169
2351.99	161.049
2352.22	168.503
2352.45	154.201
2352.68	177.13
2352.91	162.71
2353.15	172.092
2353.38	157.682
2353.61	166.297
2353.84	170.092
2354.07	167.202
2354.31	162.441
2354.54	164.34
2354.77	160.57
2355	166.326
2355.23	162.509
2355.47	169.167
2355.7	158.672
2355.93	166.277
2356.16	160.542
2356.39	167.181
2356.63	163.318
2356.86	156.578
2357.09	169.835
2357.32	168.849
2357.55	164.065
2357.79	154.53
2358.02	161.161
2358.25	165.89
2358.48	156.368
2358.71	158.256
2358.94	164.872
2359.18	164.854
2359.41	163.892
2359.64	164.832
2359.87	169.561
2360.1	171.43
2360.33	155.252
2360.57	159.961
2360.8	160.873
2361.03	162.732
2361.26	157.002
2361.49	148.428
2361.72	155.975
2361.96	160.674
2362.19	169.16
2362.42	162.48
2362.65	159.595
2362.88	154.824
2363.11	155.739
2363.34	158.55
2363.58	167.988
2363.81	166.075
2364.04	165.11
2364.27	170.766
2364.5	149.931
2364.73	161.257
2364.97	174.471
