#Acq. time (s)=	30
#Accumulations=	2
#Range (cm-¹)=	1200...2400
#Windows=	4
#Auto scanning=	Off
#Autofocus=	Off
#Macrospot=	Off
#AutoExposure=	Off
#Spike filter=	Multiple accum.
#Delay time (s)=	2
#Binning=	1
#Readout mode=	Signal
#DeNoise=	Off
#ICS correction=	On
#Dark correction=	Off
#Inst. Process=	Off
#Detector Gain=	Best Dynamic
#Detector ADC=	50 kHz HS
#Detector temperature (°C)=	-60.09
#Instrument=	LabRAM HR Evol
#Detector=	SIN-EM FIVIS
#Objective=	x100_VIS
#Grating=	1800 (450-850nm)
#ND Filter=	100%
#Laser=	532nm_Edge
#Hole=	49.98
#Temperature=	0
#Range=	Visible
#StageXY=	75x50mm Scan+
#StageZ=	Z motor
#X (µm)=	0
#Y (µm)=	0
#Z (µm)=	-270.7
#Full time(mm:ss)=	4:20
#Project=	21_11_04
#Sample=	BU19w
#Site=	
#Title=	BU19w-E-FF11b-FI10-V_1800 (450-850nm)_532nm_Edge_100%_x100_VIS_H50um_30sX2
#Remark=	
#Date=	04.11.2021 17:12
#Acquired=	04.11.2021 17:12:18
1200.19	25.3215
1200.46	22.0857
1200.74	25.3052
1201.02	24.2103
1201.3	27.4211
1201.57	20.9596
1201.85	20.9603
1202.13	26.3577
1202.41	26.4062
1202.69	23.1542
1202.96	26.375
1203.24	27.4232
1203.52	23.1191
1203.8	18.8073
1204.08	27.4167
1204.35	22.0389
1204.63	26.3322
1204.91	26.3206
1205.19	24.1622
1205.47	27.3702
1205.74	23.066
1206.02	25.1999
1206.3	24.1162
1206.58	27.3193
1206.85	24.0971
1207.13	24.0917
1207.41	21.9452
1207.69	26.2232
1207.97	24.0767
1208.24	20.8601
1208.52	21.9241
1208.8	24.0578
1209.08	25.1251
1209.36	28.3312
1209.63	28.3274
1209.91	25.1134
1210.19	25.1027
1210.46	22.9578
1210.74	25.085
1211.02	22.942
1211.3	25.0679
1211.57	23.9916
1211.85	26.1153
1212.13	23.9768
1212.41	25.035
1212.69	26.0936
1212.96	21.8297
1213.24	29.279
1213.52	26.0822
1213.79	22.8895
1214.07	23.9547
1214.35	23.9549
1214.63	27.1483
1214.9	26.0825
1215.18	23.952
1215.46	23.9483
1215.74	26.0693
1216.01	24.9954
1216.29	27.1112
1216.57	27.1015
1216.85	23.9061
1217.12	24.9612
1217.4	24.9547
1217.68	27.0724
1217.95	27.0662
1218.23	26.0004
1218.51	23.8758
1218.79	25.9959
1219.06	25.9936
1219.34	22.8066
1219.62	29.168
1219.89	24.9255
1220.17	27.0459
1220.45	22.8022
1220.73	28.1006
1221	28.0962
1221.28	28.0899
1221.56	27.0208
1221.84	27.0095
1222.11	23.8205
1222.39	25.9246
1222.67	26.971
1222.94	26.9579
1223.22	29.0624
1223.5	27.9948
1223.77	27.986
1224.05	27.9805
1224.33	26.9193
1224.61	25.8615
1224.88	27.9727
1225.16	30.0891
1225.44	29.0363
1225.71	26.9265
1225.99	30.092
1226.27	31.1444
1226.54	27.9718
1226.82	33.2398
1227.1	31.1077
1227.37	25.8134
1227.65	27.9044
1227.93	26.8321
1228.21	31.0136
1228.48	26.7953
1228.76	31.0276
1229.03	30.0468
1229.31	31.1281
1229.59	27.9359
1229.86	30.023
1230.14	31.0719
1230.42	32.1209
1230.69	27.8729
1230.97	28.8953
1231.25	32.0505
1231.52	27.8466
1231.8	30.9965
1232.08	29.9436
1232.35	27.8413
1232.63	27.8391
1232.91	30.9885
1233.18	29.9383
1233.46	28.8899
1233.74	30.9938
1234.01	28.8959
1234.29	31.0026
1234.57	29.9553
1234.84	29.9578
1235.12	28.9098
1235.4	29.9645
1235.67	34.1717
1235.95	29.9638
1236.23	26.806
1236.5	29.9547
1236.78	33.0985
1237.06	25.7343
1237.33	28.8751
1237.61	27.8153
1237.88	25.7065
1238.16	28.8443
1238.44	28.8379
1238.71	26.7364
1238.99	29.8781
1239.27	28.8272
1239.54	28.8258
1239.82	27.7769
1240.1	27.7772
1240.37	27.7782
1240.65	25.6833
1240.92	27.7803
1241.2	28.8237
1241.48	30.9147
1241.75	26.7209
1242.03	28.819
1242.3	28.8201
1242.58	24.6336
1242.86	27.7798
1243.13	26.7301
1243.41	28.8282
1243.68	28.8302
1243.96	29.8765
1244.24	26.73
1244.51	28.8229
1244.79	33.0063
1245.06	25.6653
1245.34	28.7963
1245.62	36.1163
1245.89	25.6461
1246.17	23.5507
1246.44	28.7854
1246.72	24.5971
1247	29.8279
1247.27	29.8276
1247.55	32.961
1247.82	32.9479
1248.1	29.8071
1248.38	30.8526
1248.65	24.5796
1248.93	30.8564
1249.2	30.8538
1249.48	26.67
1249.75	26.6689
1250.03	32.9353
1250.31	29.7912
1250.58	26.6497
1250.86	26.6447
1251.13	29.7742
1251.41	29.769
1251.69	23.4975
1251.96	28.7139
1252.24	29.7522
1252.51	27.6587
1252.79	36.0028
1253.06	25.5657
1253.34	31.8288
1253.61	30.7906
1253.89	32.8847
1254.17	27.6695
1254.44	33.936
1254.72	37.0698
1254.99	28.7174
1255.27	29.761
1255.54	29.7607
1255.82	28.7181
1256.09	34.9877
1256.37	26.6353
1256.65	27.6801
1256.92	31.8552
1257.2	34.9843
1257.47	34.9815
1257.75	37.067
1258.02	33.9317
1258.3	26.6184
1258.57	31.8328
1258.85	28.7032
1259.13	32.8808
1259.4	38.1139
1259.67	37.0723
1259.95	31.8436
1260.23	34.9646
1260.5	33.9104
1260.78	33.9033
1261.05	42.2431
1261.33	40.177
1261.6	43.3515
1261.88	43.4194
1262.15	54.8841
1262.43	48.5452
1262.7	52.6564
1262.98	61.026
1263.25	61.0788
1263.53	55.8994
1263.8	53.8733
1264.08	46.5352
1264.35	44.4231
1264.63	45.4632
1264.9	45.465
1265.18	41.2751
1265.45	36.0473
1265.73	31.8688
1266	26.647
1266.28	35.0124
1266.55	33.9742
1266.83	35.0283
1267.1	31.9004
1267.38	32.9561
1267.66	35.0609
1267.93	32.9845
1268.2	36.1348
1268.48	35.0935
1268.75	31.9558
1269.03	29.8635
1269.31	29.8581
1269.58	37.1824
1269.85	32.9831
1270.13	34.0234
1270.4	30.8756
1270.68	32.9646
1270.95	37.1479
1271.23	34.0056
1271.5	35.0573
1271.78	30.8794
1272.05	37.1718
1272.33	36.1375
1272.6	36.1464
1272.88	28.8201
1273.15	36.1658
1273.43	29.8839
1273.7	33.0372
1273.98	29.8944
1274.25	30.9437
1274.53	33.0406
1274.8	35.1401
1275.07	33.0466
1275.35	36.2
1275.62	35.1578
1275.9	33.0661
1276.17	37.2719
1276.45	34.128
1276.72	38.3355
1277	38.3448
1277.27	35.2018
1277.54	42.5669
1277.82	42.575
1278.1	44.688
1278.37	40.4915
1278.64	39.4467
1278.92	38.3974
1279.19	39.4469
1279.47	42.5983
1279.74	47.8531
1280.02	54.1643
1280.29	55.2201
1280.56	65.7487
1280.84	77.3434
1281.11	89.9933
1281.39	108.945
1281.66	143.684
1281.94	196.343
1282.21	258.457
1282.49	359.432
1282.76	443.304
1283.03	551.247
1283.31	601.625
1283.58	562.627
1283.86	411.019
1284.13	262.876
1284.41	193.374
1284.68	126.948
1284.95	95.2975
1285.23	79.4863
1285.5	64.7575
1285.78	53.1843
1286.05	47.9099
1286.32	50.0122
1286.6	46.8525
1286.87	43.6897
1287.15	40.5245
1287.42	40.5179
1287.69	39.4631
1287.97	40.5161
1288.24	35.2554
1288.52	34.2067
1288.79	37.3707
1289.06	39.4832
1289.34	35.2785
1289.61	33.1796
1289.89	35.291
1290.16	30.0207
1290.43	35.2843
1290.71	33.1767
1290.98	33.1765
1291.26	28.9633
1291.53	27.9086
1291.8	32.1231
1292.08	34.2318
1292.35	36.3333
1292.62	33.1729
1292.9	32.1232
1293.17	32.1382
1293.45	28.9881
1293.72	32.1646
1293.99	28.9989
1294.27	31.1091
1294.54	28.997
1294.82	29.0071
1295.09	30.0761
1295.36	29.0382
1295.64	32.2293
1295.91	32.2373
1296.18	30.1245
1296.46	30.1246
1296.73	30.1199
1297.01	33.2844
1297.28	30.1081
1297.55	30.101
1297.83	31.1514
1298.1	32.2125
1298.37	27.9835
1298.65	32.2024
1298.92	27.9753
1299.19	33.2495
1299.47	27.9737
1299.74	30.0903
1300.02	32.2041
1300.29	31.1483
1300.56	27.9793
1300.84	29.035
1301.11	27.9818
1301.38	29.0429
1301.65	32.2155
1301.93	26.936
1302.2	30.1054
1302.47	29.0481
1302.75	32.2144
1303.02	30.098
1303.29	32.2061
1303.57	27.9821
1303.84	26.9267
1304.12	30.0945
1304.39	27.9811
1304.66	27.9772
1304.94	32.1939
1305.21	27.9656
1305.48	27.9591
1305.75	26.898
1306.03	29.0032
1306.3	33.2201
1306.57	25.8389
1306.85	29.0048
1307.12	27.9505
1307.39	29.0048
1307.67	30.0604
1307.94	27.9509
1308.21	29.0052
1308.49	25.8437
1308.76	32.1776
1309.03	32.1824
1309.31	22.689
1309.58	24.8007
1309.85	23.7442
1310.13	26.9092
1310.4	30.0756
1310.67	32.1879
1310.94	29.0233
1311.22	30.0802
1311.49	24.8063
1311.76	30.0894
1312.04	30.0929
1312.31	30.0944
1312.58	29.035
1312.85	24.8088
1313.13	29.0308
1313.4	26.9169
1313.67	31.1377
1313.95	27.9718
1314.22	25.8628
1314.49	30.0887
1314.76	26.9249
1315.04	29.0403
1315.31	29.0442
1315.58	24.8215
1315.86	26.9324
1316.13	29.0431
1316.4	26.93
1316.67	26.9296
1316.95	25.8748
1317.22	26.9346
1317.49	31.1623
1317.77	26.9384
1318.04	26.9394
1318.31	27.9964
1318.58	29.0526
1318.86	25.8825
1319.13	29.0507
1319.4	25.8817
1319.67	25.8829
1319.95	26.9391
1320.22	24.8241
1320.49	26.9321
1320.76	25.8697
1321.04	24.8064
1321.31	25.8554
1321.58	27.9598
1321.85	29.0085
1322.13	22.6763
1322.4	30.0553
1322.67	30.0497
1322.94	25.8309
1323.22	25.8331
1323.49	26.8886
1323.76	26.8884
1324.03	28.9973
1324.31	27.9423
1324.58	33.216
1324.85	28.9962
1325.12	26.8783
1325.4	25.8119
1325.67	28.9528
1325.94	27.8854
1326.21	26.8271
1326.48	26.8288
1326.76	31.0542
1327.03	24.7506
1327.3	30.0271
1327.57	26.8762
1327.85	30.0501
1328.12	29.0063
1328.39	22.684
1328.66	24.7919
1328.93	25.8479
1329.21	25.8486
1329.48	30.0672
1329.75	26.8997
1330.02	31.1146
1330.3	27.9448
1330.57	26.8833
1330.84	28.9826
1331.11	23.7028
1331.38	23.6932
1331.66	31.0551
1331.93	24.7319
1332.2	28.9325
1332.47	26.8187
1332.74	25.7583
1333.01	29.9542
1333.29	23.6412
1333.56	21.5336
1333.83	26.7786
1334.1	28.8715
1334.37	28.8648
1334.65	23.6121
1334.92	26.7552
1335.19	30.9465
1335.46	24.6481
1335.73	23.5955
1336.01	25.6893
1336.28	27.7828
1336.55	30.9248
1336.82	30.9221
1337.09	26.7271
1337.37	26.7237
1337.64	27.7629
1337.91	28.8058
1338.18	27.7546
1338.45	26.7023
1338.72	27.7478
1339	27.7476
1339.27	28.7966
1339.54	29.8452
1339.81	22.515
1340.08	28.7999
1340.35	26.7059
1340.63	24.6103
1340.9	23.562
1341.17	26.7013
1341.44	28.7919
1341.71	31.9271
1341.98	28.7801
1342.26	27.7259
1342.53	24.5814
1342.8	25.625
1343.07	28.7611
1343.34	28.7605
1343.61	28.7606
1343.88	23.5319
1344.16	29.8063
1344.43	30.8484
1344.7	28.7516
1344.97	28.7444
1345.24	30.8253
1345.51	27.6833
1345.79	24.5397
1346.06	28.7034
1346.33	28.6951
1346.6	29.7296
1346.87	27.635
1347.14	25.5431
1347.41	27.624
1347.68	30.7478
1347.95	29.7032
1348.23	27.6161
1348.5	26.5694
1348.77	23.4392
1349.04	28.6425
1349.31	26.5546
1349.58	25.5087
1349.86	27.5862
1350.13	27.5806
1350.4	24.4522
1350.67	27.5678
1350.94	26.5223
1351.21	31.7168
1351.48	25.4761
1351.75	26.5168
1352.02	30.681
1352.3	27.568
1352.57	28.6148
1352.84	28.6271
1353.11	24.4862
1353.38	27.6173
1353.65	25.5028
1353.92	29.6265
1354.19	29.6105
1354.46	28.5751
1354.73	29.6115
1355.01	28.5606
1355.28	33.7555
1355.55	29.6154
1355.82	26.4915
1356.09	28.5656
1356.36	28.563
1356.63	31.6764
1356.9	28.5576
1357.17	30.6302
1357.44	26.4727
1357.71	25.4301
1357.99	28.5388
1358.26	24.3838
1358.53	25.4156
1358.8	30.5974
1359.07	26.4452
1359.34	29.5527
1359.61	24.3599
1359.88	35.7528
1360.15	31.5988
1360.42	23.3075
1360.69	28.4856
1360.96	29.5215
1361.23	28.484
1361.5	27.4466
1361.78	28.4782
1362.05	34.6886
1362.32	28.4731
1362.59	30.5439
1362.86	29.5116
1363.13	29.5173
1363.4	35.735
1363.67	30.5595
1363.94	30.5576
1364.21	32.6269
1364.48	31.5871
1364.75	32.6163
1365.02	34.6792
1365.29	32.6011
1365.56	30.5245
1365.83	28.4486
1366.11	36.7155
1366.38	31.5345
1366.65	33.5921
1366.92	32.555
1367.19	34.6207
1367.46	30.4915
1367.73	38.7627
1368	33.5965
1368.27	44.9704
1368.54	59.4476
1368.81	52.2148
1369.08	47.0456
1369.35	37.7348
1369.62	36.697
1369.89	29.4563
1370.16	27.383
1370.43	33.5784
1370.7	35.637
1370.97	31.4958
1371.24	30.4523
1371.51	33.5361
1371.78	32.4924
1372.05	36.6068
1372.32	35.5676
1372.59	29.3774
1372.86	34.5269
1373.13	33.4924
1373.4	34.5196
1373.67	36.5777
1373.94	32.4541
1374.21	33.4821
1374.48	40.6896
1374.75	32.4467
1375.02	39.6601
1375.29	36.5721
1375.56	34.5123
1375.83	36.5703
1376.1	38.6211
1376.37	37.581
1376.64	31.3912
1376.91	39.6172
1377.18	39.6241
1377.45	36.5478
1377.72	36.5635
1377.99	40.7054
1378.26	40.7216
1378.53	41.7562
1378.8	40.7221
1379.07	37.6243
1379.34	40.7103
1379.61	40.6997
1379.88	44.7929
1380.15	35.5028
1380.42	36.514
1380.69	44.7389
1380.96	50.9095
1381.23	41.6388
1381.5	46.7567
1381.77	49.8163
1382.04	46.7172
1382.31	48.7516
1382.58	55.9181
1382.85	56.9267
1383.12	56.9138
1383.39	66.1306
1383.66	62.0261
1383.93	65.1046
1384.2	78.4436
1384.47	88.7145
1384.74	104.137
1385.01	129.828
1385.28	181.194
1385.55	237.69
1385.82	360.97
1386.09	572.611
1386.36	935.241
1386.62	1293.63
1386.89	1272.23
1387.16	833.774
1387.43	476.797
1387.7	266.32
1387.97	178.669
1388.24	132.776
1388.51	97.003
1388.78	73.4065
1389.05	58.0203
1389.32	59.0439
1389.59	51.8309
1389.86	48.7054
1390.13	54.8682
1390.4	44.5934
1390.67	42.5329
1390.94	35.3579
1391.21	38.4263
1391.47	41.4901
1391.74	42.5037
1392.01	41.4714
1392.28	37.3698
1392.55	41.4599
1392.82	35.314
1393.09	36.3341
1393.36	40.4246
1393.63	35.3049
1393.9	41.4423
1394.17	35.3006
1394.44	39.3925
1394.71	36.33
1394.97	33.2646
1395.24	33.2683
1395.51	35.316
1395.78	31.2198
1396.05	31.2167
1396.32	34.2829
1396.59	35.3019
1396.86	33.2484
1397.13	35.2891
1397.4	34.2642
1397.66	30.1736
1397.93	34.268
1398.2	36.3178
1398.47	36.3201
1398.74	30.1842
1399.01	34.2824
1399.28	34.286
1399.55	37.3587
1399.82	33.2659
1400.09	37.3671
1400.35	30.2071
1400.62	31.2331
1400.89	32.2577
1401.16	34.3086
1401.43	34.3126
1401.7	32.2777
1401.97	28.1954
1402.24	34.3661
1402.5	30.2747
1402.77	30.2826
1403.04	34.3923
1403.31	31.3104
1403.58	33.3519
1403.85	36.4203
1404.12	35.3966
1404.39	32.3156
1404.65	36.4141
1404.92	36.4077
1405.19	33.3251
1405.46	35.3699
1405.73	37.4153
1406	40.4866
1406.27	39.4606
1406.54	48.688
1406.8	54.8426
1407.07	57.9224
1407.34	65.1027
1407.61	71.2585
1407.88	80.4911
1408.15	88.7
1408.42	90.7586
1408.68	76.4082
1408.95	67.1835
1409.22	54.8791
1409.49	50.7787
1409.76	42.5688
1410.03	38.4573
1410.29	37.4208
1410.56	34.3357
1410.83	32.2793
1411.1	32.2742
1411.37	31.2465
1411.64	32.2722
1411.9	28.1795
1412.17	31.2648
1412.44	31.2939
1412.71	29.2734
1412.98	31.3314
1413.25	31.2916
1413.51	26.1455
1413.78	28.2085
1414.05	29.2542
1414.32	30.2861
1414.59	25.1528
1414.86	33.3667
1415.12	33.3671
1415.39	23.1017
1415.66	29.2648
1415.93	26.1869
1416.2	29.2707
1416.47	26.1926
1416.73	29.2777
1417	30.3088
1417.27	27.2291
1417.54	28.2578
1417.81	28.2585
1418.07	30.3159
1418.34	26.2055
1418.61	24.1515
1418.88	24.1509
1419.15	26.2027
1419.41	26.1975
1419.68	28.2471
1419.95	30.2959
1420.22	27.2093
1420.49	26.1772
1420.75	26.173
1421.02	28.2249
1421.29	30.2811
1421.56	26.185
1421.83	30.3005
1422.09	32.3688
1422.36	28.2749
1422.63	28.3049
1422.9	26.264
1423.17	29.2206
1423.43	28.2078
1423.7	27.1664
1423.97	30.2125
1424.24	31.2589
1424.5	27.1543
1424.77	24.1144
1425.04	29.2183
1425.31	27.1848
1425.58	28.2113
1425.84	25.1321
1426.11	24.1005
1426.38	27.1705
1426.65	26.1378
1426.91	24.0809
1427.18	26.1181
1427.45	25.0883
1427.72	25.0852
1427.98	25.0847
1428.25	24.0618
1428.52	25.0876
1428.79	29.1864
1429.06	24.0692
1429.32	24.0734
1429.59	26.1286
1429.86	26.136
1430.12	25.1156
1430.39	23.0741
1430.66	24.111
1430.93	25.144
1431.2	26.1734
1431.46	25.1456
1431.73	23.0875
1432	25.1342
1432.26	24.1053
1432.53	24.0963
1432.8	24.0874
1433.07	27.1507
1433.33	23.0444
1433.6	26.1123
1433.87	23.0405
1434.14	25.1034
1434.4	31.2531
1434.67	28.1801
1434.94	25.1059
1435.21	28.1794
1435.47	25.1041
1435.74	25.1026
1436.01	26.1254
1436.28	26.123
1436.54	24.072
1436.81	24.0704
1437.08	30.2152
1437.34	26.1154
1437.61	23.0428
1437.88	25.0936
1438.15	22.024
1438.41	28.1724
1438.68	26.1246
1438.95	26.127
1439.21	24.0823
1439.48	27.1635
1439.75	25.1193
1440.01	25.1219
1440.28	22.0469
1440.55	26.1496
1440.82	24.099
1441.08	21.0204
1441.35	24.0933
1441.62	27.1698
1441.88	22.0466
1442.15	25.1253
1442.42	23.0762
1442.69	23.0731
1442.95	25.1202
1443.22	25.1171
1443.49	24.0902
1443.75	24.0902
1444.02	26.1444
1444.29	22.0493
1444.55	25.1333
1444.82	24.1115
1445.09	24.1095
1445.35	27.185
1445.62	23.0798
1445.89	25.1295
1446.15	23.0765
1446.42	23.0748
1446.69	28.2003
1446.95	29.2227
1447.22	23.068
1447.49	25.1167
1447.76	22.0427
1448.02	23.0728
1448.29	22.051
1448.56	22.0519
1448.82	24.1024
1449.09	26.1512
1449.35	25.1222
1449.62	21.0172
1449.89	24.0899
1450.15	23.063
1450.42	23.0613
1450.69	23.0596
1450.96	23.0576
1451.22	23.0554
1451.49	28.1764
1451.75	18.9539
1452.02	25.1007
1452.29	24.0769
1452.55	22.0296
1452.82	19.9827
1453.09	23.0586
1453.35	25.1077
1453.62	22.0318
1453.89	21.0066
1454.15	25.1056
1454.42	25.1056
1454.68	23.0551
1454.95	19.9801
1455.22	22.0318
1455.48	26.1347
1455.75	25.1113
1456.02	26.1357
1456.28	22.0335
1456.55	23.0542
1456.82	23.0516
1457.08	21.0012
1457.35	25.0975
1457.61	17.9266
1457.88	23.0487
1458.15	19.9765
1458.41	22.0267
1458.68	23.0522
1458.95	26.127
1459.21	21.004
1459.48	22.0276
1459.74	19.9773
1460.01	19.9759
1460.28	22.0229
1460.54	24.0687
1460.81	20.9936
1461.08	22.0149
1461.34	22.0116
1461.61	20.9843
1461.87	19.957
1462.14	23.0227
1462.41	25.0637
1462.67	20.9669
1462.94	25.0521
1463.2	24.0253
1463.47	23.0047
1463.74	24.0379
1464	22.001
1464.27	18.9378
1464.53	24.0695
1464.8	23.0032
1465.07	22.9733
1465.33	23.9791
1465.6	23.985
1465.86	23.9904
1466.13	15.8188
1466.39	21.9322
1466.66	18.8741
1466.93	24.9955
1467.19	24.9937
1467.46	20.9118
1467.72	24.9915
1467.99	22.9511
1468.26	20.9105
1468.52	19.889
1468.79	22.9465
1469.05	23.9634
1469.32	20.8995
1469.58	19.8755
1469.85	22.9296
1470.12	17.832
1470.38	26.9998
1470.65	22.9233
1470.91	20.8817
1471.18	20.8779
1471.44	20.8757
1471.71	20.8747
1471.97	21.8923
1472.24	20.8736
1472.51	21.8912
1472.77	23.9253
1473.04	23.9213
1473.3	24.936
1473.57	22.8979
1473.83	22.8968
1474.1	20.862
1474.36	22.9003
1474.63	17.8119
1474.9	18.8299
1475.16	21.8824
1475.43	22.8977
1475.69	22.8944
1475.96	24.9278
1476.22	22.8907
1476.49	18.8177
1476.75	22.8831
1477.02	23.899
1477.29	22.8815
1477.55	23.8978
1477.81	20.8438
1478.08	17.7901
1478.34	19.8205
1478.61	22.8664
1478.88	23.8785
1479.14	22.858
1479.41	22.8532
1479.67	27.9246
1479.94	24.87
1480.2	24.8637
1480.47	22.8304
1480.73	19.7842
1481	23.8405
1481.26	19.7849
1481.53	25.8769
1481.79	18.777
1482.06	24.8716
1482.32	15.7367
1482.59	25.8905
1482.85	23.8624
1483.12	21.8326
1483.38	25.8943
1483.65	21.8289
1483.92	18.7746
1484.18	17.7469
1484.44	24.8168
1484.71	22.7676
1484.97	23.7647
1485.24	20.7384
1485.5	22.7974
1485.77	24.8323
1486.03	18.7478
1486.3	20.7647
1486.56	20.7728
1486.83	21.7858
1487.09	23.806
1487.36	23.8014
1487.62	22.7853
1487.89	21.7687
1488.15	25.8129
1488.42	21.7591
1488.68	22.7676
1488.95	21.7535
1489.21	21.7518
1489.48	21.7509
1489.74	21.7508
1490.01	21.7497
1490.27	20.735
1490.54	24.7759
1490.8	22.7498
1491.07	21.7371
1491.33	17.6925
1491.6	17.6928
1491.86	18.7042
1492.12	22.7474
1492.39	18.7026
1492.65	18.7023
1492.92	23.7563
1493.18	24.7658
1493.45	21.7328
1493.71	21.7335
1493.98	19.7134
1494.24	18.7033
1494.51	22.7455
1494.77	21.7301
1495.04	23.7439
1495.3	23.736
1495.56	21.7106
1495.83	21.7071
1496.09	20.6949
1496.36	20.692
1496.62	22.7089
1496.89	20.6903
1497.15	20.6896
1497.42	19.6795
1497.68	20.6885
1497.94	22.7073
1498.21	21.6986
1498.47	20.6902
1498.74	23.7192
1499	22.7116
1499.27	18.6757
1499.53	22.7153
1499.8	19.687
1500.06	19.6866
1500.32	23.7243
1500.59	19.6852
1500.85	18.6727
1501.12	23.7162
1501.38	20.6876
1501.64	21.6962
1501.91	22.7042
1502.17	19.6742
1502.44	22.6959
1502.7	25.7186
1502.97	22.6891
1503.23	25.7113
1503.5	23.696
1503.76	24.7062
1504.02	22.6901
1504.29	25.7153
1504.55	18.655
1504.81	17.6446
1505.08	20.6658
1505.34	20.6581
1505.61	21.6611
1505.87	20.6526
1506.13	18.6371
1506.4	20.6546
1506.66	19.6487
1506.93	21.665
1507.19	20.658
1507.46	23.6804
1507.72	24.6862
1507.98	22.6705
1508.25	19.6484
1508.51	23.6796
1508.77	20.6568
1509.04	21.664
1509.3	23.6798
1509.57	21.6683
1509.83	21.6665
1510.09	20.6551
1510.36	24.6802
1510.62	22.6602
1510.89	21.6465
1511.15	19.6239
1511.41	20.6192
1511.68	21.6145
1511.94	22.6085
1512.21	21.5964
1512.47	21.5912
1512.73	21.5865
1513	21.5828
1513.26	18.5709
1513.52	19.5824
1513.79	20.5927
1514.05	22.6016
1514.31	23.6029
1514.58	19.58
1514.84	23.5909
1515.1	19.57
1515.37	22.574
1515.63	22.5674
1515.9	22.5641
1516.16	23.5649
1516.42	20.555
1516.69	20.5539
1516.95	19.5511
1517.21	19.5518
1517.48	23.5652
1517.74	22.5657
1518	21.564
1518.27	18.5563
1518.53	22.5701
1518.79	21.5688
1519.06	21.5703
1519.32	20.5676
1519.58	21.57
1519.85	21.5682
1520.11	21.5676
1520.37	19.5627
1520.64	24.5812
1520.9	19.5661
1521.16	23.5799
1521.43	20.5686
1521.69	19.5634
1521.95	19.5612
1522.22	19.559
1522.48	19.5566
1522.75	20.5552
1523.01	23.5556
1523.27	21.5434
1523.53	19.5346
1523.8	21.5339
1524.06	20.529
1524.32	21.529
1524.59	22.5324
1524.85	22.5334
1525.11	19.5304
1525.38	25.5438
1525.64	21.5416
1525.9	22.5491
1526.17	23.5551
1526.43	18.5442
1526.69	18.5431
1526.95	20.5454
1527.22	23.5504
1527.48	21.5444
1527.74	22.5443
1528.01	19.5362
1528.27	22.5396
1528.53	21.5362
1528.8	21.5354
1529.06	20.5331
1529.32	24.5372
1529.58	22.5314
1529.85	16.5231
1530.11	22.5345
1530.37	22.5391
1530.64	20.5395
1530.9	20.5417
1531.16	21.5435
1531.42	18.537
1531.69	23.5462
1531.95	21.5413
1532.21	18.5387
1532.48	20.549
1532.74	20.5561
1533	23.5702
1533.27	21.5669
1533.53	20.5648
1533.79	21.5674
1534.05	22.5692
1534.32	22.5673
1534.58	22.5651
1534.84	21.5598
1535.1	20.5508
1535.37	19.54
1535.63	24.5437
1535.89	21.5326
1536.15	22.5263
1536.42	20.5165
1536.68	20.5115
1536.94	24.5092
1537.2	21.5053
1537.47	22.5042
1537.73	23.4984
1537.99	20.494
1538.25	19.492
1538.52	21.4918
1538.78	21.4999
1539.04	22.5142
1539.31	18.5237
1539.57	21.5375
1539.83	20.5448
1540.09	17.5448
1540.36	27.5773
1540.62	22.5606
1540.88	19.5476
1541.14	22.5518
1541.41	22.546
1541.67	22.5404
1541.93	23.5364
1542.19	21.5281
1542.45	23.5255
1542.72	21.5184
1542.98	22.5133
1543.24	22.5052
1543.5	20.5011
1543.77	22.5021
1544.03	19.504
1544.29	22.5103
1544.55	20.5145
1544.81	19.5198
1545.08	23.5316
1545.34	21.5328
1545.6	24.5408
1545.86	21.5365
1546.13	22.5378
1546.39	24.543
1546.65	25.5476
1546.91	20.5411
1547.17	19.5395
1547.44	21.5349
1547.7	21.5287
1547.96	23.5305
1548.22	21.534
1548.49	20.5286
1548.75	19.5071
1549.01	24.4903
1549.27	22.4928
1549.53	23.5084
1549.79	24.5405
1550.06	24.5717
1550.32	20.5863
1550.58	21.5939
1550.84	22.5913
1551.1	23.5958
1551.37	20.5764
1551.63	22.5838
1551.89	23.5995
1552.15	23.6034
1552.41	20.5882
1552.68	23.5879
1552.94	20.5666
1553.2	22.5707
1553.46	20.5619
1553.72	17.5487
1553.99	21.5536
1554.25	24.5519
1554.51	21.54
1554.77	22.5396
1555.03	21.5368
1555.3	22.5389
1555.56	20.5371
1555.82	25.5439
1556.08	23.5385
1556.34	21.536
1556.6	20.5357
1556.87	20.5367
1557.13	22.5402
1557.39	19.5333
1557.65	22.5325
1557.91	22.5266
1558.17	20.5182
1558.43	23.5132
1558.7	21.5058
1558.96	20.5005
1559.22	22.496
1559.48	23.492
1559.74	21.49
1560	21.488
1560.26	20.487
1560.53	21.4854
1560.79	22.4849
1561.05	23.4869
1561.31	20.4928
1561.57	21.4992
1561.83	21.5032
1562.1	24.5034
1562.36	18.5014
1562.62	23.5011
1562.88	17.5007
1563.14	20.4989
1563.4	22.5007
1563.66	22.5091
1563.93	21.5151
1564.19	22.5173
1564.45	22.5129
1564.71	23.4909
1564.97	21.4486
1565.23	20.4057
1565.49	22.4143
1565.76	23.4833
1566.02	22.4972
1566.28	19.4853
1566.54	21.4811
1566.8	23.5002
1567.06	19.5098
1567.32	22.5015
1567.58	26.4913
1567.84	20.4959
1568.11	25.498
1568.37	22.4988
1568.63	21.4945
1568.89	23.4865
1569.15	20.4855
1569.41	21.4856
1569.67	24.485
1569.93	22.4867
1570.19	23.4862
1570.45	24.4849
1570.72	20.4862
1570.98	24.4808
1571.24	20.4804
1571.5	20.478
1571.76	23.4733
1572.02	24.4685
1572.28	24.4642
1572.54	23.4623
1572.8	18.4676
1573.07	25.4512
1573.33	21.457
1573.59	18.4644
1573.85	18.4681
1574.11	22.4663
1574.37	21.4731
1574.63	21.4784
1574.89	22.4824
1575.15	25.4836
1575.41	22.4855
1575.67	18.4872
1575.94	23.4828
1576.2	22.4794
1576.46	27.4655
1576.72	19.4683
1576.98	21.4574
1577.24	26.4387
1577.5	25.433
1577.76	21.438
1578.02	22.4319
1578.28	21.4341
1578.54	26.4185
1578.8	26.4184
1579.06	24.4251
1579.32	20.4392
1579.58	21.4388
1579.85	22.4372
1580.11	18.4484
1580.37	18.4472
1580.63	22.4328
1580.89	27.414
1581.15	23.4229
1581.41	19.4318
1581.67	21.4214
1581.93	22.4162
1582.19	23.4107
1582.45	24.4052
1582.71	23.4079
1582.97	21.4153
1583.23	23.406
1583.49	22.4084
1583.75	22.4092
1584.01	22.4109
1584.27	22.4123
1584.53	25.4012
1584.79	25.4004
1585.06	21.4152
1585.32	17.4302
1585.58	23.4029
1585.84	23.3973
1586.1	23.3921
1586.36	27.3692
1586.62	23.3854
1586.88	21.393
1587.14	22.3863
1587.4	20.3957
1587.66	20.3964
1587.92	22.3883
1588.18	22.3912
1588.44	24.3848
1588.7	20.4062
1588.96	22.3996
1589.22	21.4057
1589.48	20.4103
1589.74	23.3978
1590	25.3915
1590.26	22.4069
1590.52	25.3955
1590.78	20.4157
1591.04	22.4068
1591.3	21.4094
1591.56	22.4021
1591.82	23.3916
1592.08	19.4043
1592.34	20.3957
1592.6	22.3803
1592.86	22.372
1593.12	22.3627
1593.38	19.3741
1593.64	22.3498
1593.9	23.3411
1594.16	18.3755
1594.42	24.339
1594.68	22.356
1594.94	23.3528
1595.2	21.3605
1595.46	22.3478
1595.72	18.3746
1595.98	21.3542
1596.24	26.3207
1596.5	25.3287
1596.76	23.3439
1597.02	24.3396
1597.28	26.3277
1597.54	23.3461
1597.8	25.33
1598.06	22.3452
1598.32	21.3464
1598.58	22.3343
1598.84	22.3303
1599.1	23.3189
1599.36	25.2992
1599.62	27.2789
1599.88	21.3235
1600.14	22.3107
1600.4	26.27
1600.66	21.3067
1600.92	24.2717
1601.17	25.2546
1601.43	22.278
1601.69	23.2634
1601.95	20.2896
1602.21	24.2142
1602.47	21.2419
1602.73	23.1711
1602.99	21.2279
1603.25	21.3023
1603.51	21.2093
1603.77	21.9915
1604.03	22.1363
1604.29	22.017
1604.55	22.8109
1604.81	24.841
1605.07	21.3881
1605.33	22.1312
1605.59	23.8937
1605.85	22.9482
1606.11	21.978
1606.37	19.7121
1606.63	22.8576
1606.88	22.0273
1607.14	23.0044
1607.4	23.5883
1607.66	21.9101
1607.92	22.0455
1608.18	22.7987
1608.44	23.5303
1608.7	24.3633
1608.96	20.8482
1609.22	20.4374
1609.48	23.163
1609.74	23.6361
1610	20.0232
1610.26	21.8829
1610.51	25.4758
1610.77	21.2138
1611.03	21.2798
1611.29	19.6392
1611.55	23.4586
1611.81	22.4763
1612.07	24.313
1612.33	23.1626
1612.59	22.1489
1612.85	23.5721
1613.11	23.7163
1613.37	21.4144
1613.62	22.0673
1613.88	22.6268
1614.14	22.9424
1614.4	22.2718
1614.66	23.3021
1614.92	23.5999
1615.18	21.8376
1615.44	20.2532
1615.7	24.4635
1615.96	21.8132
1616.21	24.0014
1616.47	23.0642
1616.73	23.1878
1616.99	22.7509
1617.25	24.8904
1617.51	22.5887
1617.77	23.2181
1618.03	20.9208
1618.28	24.1034
1618.54	22.8731
1618.8	21.9128
1619.06	25.0606
1619.32	23.6057
1619.58	20.0606
1619.84	21.199
1620.1	21.1355
1620.35	22.9065
1620.61	22.9494
1620.87	20.9758
1621.13	22.522
1621.39	22.7774
1621.65	22.5117
1621.91	22.4222
1622.17	23.1868
1622.42	22.3746
1622.68	21.2023
1622.94	23.089
1623.2	22.9441
1623.46	22.838
1623.72	22.7446
1623.98	22.366
1624.23	20.6453
1624.49	19.4972
1624.75	19.9317
1625.01	21.8713
1625.27	22.7026
1625.53	22.7534
1625.79	23.2901
1626.04	22.9885
1626.3	21.1873
1626.56	20.8928
1626.82	21.2128
1627.08	22.0007
1627.34	20.8869
1627.59	20.3301
1627.85	20.6037
1628.11	21.5897
1628.37	22.5186
1628.63	21.6044
1628.81	18.2297
1629.07	19.2135
1629.33	25.1237
1629.59	22.167
1629.85	19.2104
1630.12	22.1644
1630.38	26.101
1630.64	22.1615
1630.9	21.1783
1631.16	18.2265
1631.42	20.2008
1631.68	21.1891
1631.95	26.1166
1632.21	26.1264
1632.47	23.1767
1632.73	21.1941
1632.99	23.1558
1633.25	24.1406
1633.51	19.2171
1633.78	21.191
1634.04	21.192
1634.3	22.1781
1634.56	23.1634
1634.82	22.1768
1635.08	21.1898
1635.34	20.2025
1635.6	23.1565
1635.87	21.1831
1636.13	21.1805
1636.39	18.2225
1636.65	21.1739
1636.91	21.1707
1637.17	24.1231
1637.43	23.1373
1637.69	21.1662
1637.95	22.1485
1638.21	19.1946
1638.48	21.1635
1638.74	20.1792
1639	21.1635
1639.26	21.1634
1639.52	20.1786
1639.78	19.1938
1640.04	22.1489
1640.3	19.1993
1640.57	19.2015
1640.83	20.1863
1641.09	21.1692
1641.35	20.1827
1641.61	19.1969
1641.87	20.1805
1642.13	21.164
1642.39	21.1633
1642.65	20.1783
1642.91	20.1781
1643.17	22.1457
1643.44	23.1279
1643.7	20.1731
1643.96	17.2178
1644.22	22.1354
1644.48	23.1186
1644.74	22.1382
1645	22.1403
1645.26	23.1265
1645.52	24.1098
1645.78	23.1231
1646.04	20.1689
1646.31	21.1507
1646.57	22.1334
1646.83	20.1633
1647.09	20.1616
1647.35	22.1264
1647.61	18.1933
1647.87	20.161
1648.13	23.1165
1648.39	22.1375
1648.65	20.1831
1648.91	20.1818
1649.17	20.1805
1649.43	22.1462
1649.69	22.1477
1649.95	22.1568
1650.21	21.1754
1650.47	21.18
1650.74	19.2134
1651	21.1864
1651.26	20.2018
1651.52	19.2163
1651.78	21.1874
1652.04	20.2031
1652.3	19.2146
1652.56	22.1684
1652.82	22.1677
1653.08	20.1977
1653.34	22.1696
1653.6	24.143
1653.86	22.1734
1654.12	19.2178
1654.38	21.1907
1654.64	21.194
1654.9	21.199
1655.16	20.2195
1655.42	24.1734
1655.68	22.2048
1655.94	22.208
1656.21	22.2097
1656.47	21.2233
1656.73	20.2353
1656.99	20.2334
1657.25	21.2183
1657.51	21.217
1657.77	20.2285
1658.03	18.2529
1658.29	23.1828
1658.55	23.1794
1658.81	18.2449
1659.07	25.1448
1659.33	20.211
1659.59	21.1942
1659.85	22.1822
1660.11	23.1714
1660.37	17.2582
1660.63	22.1933
1660.89	19.2381
1661.15	21.2148
1661.41	20.2308
1661.67	19.2371
1661.93	19.2376
1662.19	22.2354
1662.45	26.2018
1662.71	22.2373
1662.97	22.2373
1663.23	20.2379
1663.49	21.2055
1663.75	23.1968
1664.01	23.2005
1664.27	20.2437
1664.53	24.2058
1664.79	19.2633
1665.05	21.2057
1665.31	22.2074
1665.57	21.2583
1665.83	19.2806
1666.09	20.2728
1666.35	20.2036
1666.61	20.2027
1666.87	21.2234
1667.13	21.2187
1667.39	20.2295
1667.65	18.2532
1667.91	23.1834
1668.17	20.2264
1668.43	21.2264
1668.69	20.247
1668.95	23.2116
1669.21	20.2491
1669.47	21.2377
1669.72	18.2707
1669.98	22.2256
1670.24	19.274
1670.51	23.2304
1670.76	20.2627
1671.02	20.2616
1671.28	21.249
1671.54	19.2743
1671.8	20.2641
1672.06	23.2303
1672.32	20.2644
1672.58	24.2187
1672.84	20.2654
1673.1	23.2322
1673.36	20.2681
1673.62	17.3041
1673.88	20.2736
1674.14	21.265
1674.4	20.2789
1674.66	22.2622
1674.92	22.2651
1675.18	24.2462
1675.44	23.2563
1675.69	18.308
1675.95	17.3194
1676.21	23.2587
1676.47	18.3105
1676.73	20.2895
1676.99	23.2571
1677.25	19.2966
1677.51	23.2512
1677.77	20.2787
1678.03	19.2853
1678.29	20.271
1678.55	20.2684
1678.81	19.2774
1679.07	20.2645
1679.33	20.2623
1679.59	20.2604
1679.84	21.2471
1680.1	21.2449
1680.36	19.2667
1680.62	18.2773
1680.88	20.2525
1681.14	21.2401
1681.4	15.3126
1681.66	22.2281
1681.92	22.2284
1682.18	20.2527
1682.44	19.264
1682.7	20.2515
1682.95	22.2271
1683.21	19.2634
1683.47	22.2262
1683.73	20.2488
1683.99	20.2461
1684.25	21.2321
1684.51	19.2562
1684.77	19.2556
1685.03	22.2178
1685.29	23.2052
1685.55	17.2807
1685.8	20.2439
1686.06	19.2589
1686.32	17.2867
1686.58	20.2519
1686.84	20.2518
1687.1	23.2134
1687.36	22.223
1687.62	18.2703
1687.88	20.2436
1688.14	21.2286
1688.39	19.2506
1688.65	24.1818
1688.91	18.2566
1689.17	20.2267
1689.43	20.2224
1689.69	23.1768
1689.95	18.2471
1690.2	18.2505
1690.46	21.2127
1690.72	17.2676
1690.98	17.2683
1691.24	18.2577
1691.5	20.2327
1691.76	21.2194
1692.02	22.2048
1692.28	21.2142
1692.53	20.2236
1692.79	22.1913
1693.05	21.199
1693.31	15.2783
1693.57	19.2181
1693.83	20.1992
1694.09	20.1951
1694.34	19.2076
1694.6	18.2231
1694.86	18.2244
1695.12	18.2254
1695.38	21.1822
1695.64	20.1985
1695.89	20.2018
1696.15	21.1888
1696.41	20.2026
1696.67	22.171
1696.93	19.2108
1697.19	19.2056
1697.45	22.1546
1697.7	21.1658
1697.96	22.1465
1698.22	19.1906
1698.48	19.1882
1698.74	18.2032
1699	21.1549
1699.26	21.1562
1699.51	20.1723
1699.77	19.188
1700.03	17.2169
1700.29	21.1516
1700.55	18.1994
1700.81	20.1656
1701.06	19.1799
1701.32	19.1765
1701.58	20.156
1701.84	22.1183
1702.1	20.1483
1702.35	20.1453
1702.61	22.1096
1702.87	20.1436
1703.13	19.1596
1703.39	16.2106
1703.65	20.14
1703.9	20.1422
1704.16	18.1791
1704.42	18.1793
1704.68	18.1783
1704.94	21.1252
1705.19	22.1079
1705.45	24.072
1705.71	17.1913
1705.97	18.1697
1706.23	20.1292
1706.48	23.0691
1706.74	20.1193
1707	20.1147
1707.26	20.109
1707.52	20.1026
1707.77	18.1356
1708.03	20.0894
1708.29	20.0822
1708.55	21.0555
1708.81	21.0511
1709.06	17.1325
1709.32	21.0473
1709.58	19.0894
1709.84	20.0688
1710.1	21.0485
1710.35	17.1346
1710.61	19.0953
1710.87	21.0558
1711.13	17.14
1711.39	20.0797
1711.64	20.0794
1711.9	23.0144
1712.16	19.0907
1712.42	22.0186
1712.67	17.1179
1712.93	19.0674
1713.19	21.9918
1713.45	18.0765
1713.71	18.0736
1713.96	21.0019
1714.22	18.07
1714.48	18.069
1714.74	20.0224
1714.99	20.0278
1715.25	19.0534
1715.51	19.0528
1715.77	19.051
1716.02	20.0247
1716.28	19.0435
1716.54	19.0377
1716.8	19.0307
1717.05	17.0712
1717.31	17.0623
1717.57	19.0048
1717.83	17.0488
1718.08	19.9655
1718.34	17.0403
1718.6	18.986
1718.86	18.0125
1719.12	18.9856
1719.37	23.8522
1719.63	21.9081
1719.89	20.9342
1720.14	19.958
1720.4	16.0606
1720.66	18.9749
1720.92	21.8904
1721.17	22.8583
1721.43	21.8805
1721.69	17.0138
1721.95	21.8692
1722.2	16.0334
1722.46	19.9156
1722.72	16.0263
1722.98	19.9083
1723.23	18.9352
1723.49	18.9356
1723.75	16.0206
1724	21.8454
1724.26	17.9581
1724.52	19.8938
1724.78	17.9454
1725.03	16.9695
1725.29	16.9631
1725.55	16.9597
1725.8	16.9583
1726.06	16.9597
1726.32	18.8959
1726.58	18.8923
1726.83	19.8546
1727.09	18.8872
1727.35	17.9225
1727.6	18.8891
1727.86	17.9166
1728.12	19.8416
1728.38	20.7787
1728.63	18.8203
1728.89	17.8504
1729.15	18.8266
1729.4	16.9041
1729.66	15.9405
1729.92	19.7941
1730.18	18.8242
1730.43	17.8629
1730.69	19.8112
1730.95	18.8459
1731.2	21.7454
1731.46	17.879
1731.72	17.8778
1731.97	20.7749
1732.23	17.8739
1732.49	20.769
1732.74	17.8668
1733	18.8263
1733.26	19.7834
1733.51	17.8466
1733.77	20.7342
1734.03	17.8354
1734.29	15.9021
1734.54	16.8604
1734.8	14.9287
1735.06	20.7022
1735.31	17.81
1735.57	21.6579
1735.82	18.7685
1736.08	18.7664
1736.34	18.7639
1736.6	20.6855
1736.85	21.6445
1737.11	20.6799
1737.37	22.6005
1737.62	18.7501
1737.88	20.6687
1738.14	20.6644
1738.39	19.699
1738.65	15.8514
1738.91	15.8465
1739.16	16.8001
1739.42	17.752
1739.67	19.663
1739.93	17.738
1740.19	15.8158
1740.44	18.687
1740.7	18.6827
1740.96	17.7208
1741.21	18.6749
1741.47	17.7146
1741.73	19.6279
1741.98	18.6696
1742.24	20.5824
1742.5	17.7087
1742.75	14.8363
1743.01	18.6646
1743.26	19.6192
1743.52	18.6579
1743.78	17.6985
1744.03	15.7827
1744.29	19.6082
1744.55	17.6952
1744.8	20.5652
1745.06	15.7825
1745.32	17.6944
1745.57	16.7355
1745.83	20.5563
1746.09	19.5948
1746.34	18.6332
1746.6	19.5847
1746.85	17.6684
1747.11	19.5746
1747.37	15.7512
1747.62	21.4776
1747.88	19.5683
1748.13	16.705
1748.39	17.6605
1748.65	20.5259
1748.9	16.7093
1749.16	19.5773
1749.42	16.7158
1749.67	17.6752
1749.93	18.6351
1750.18	19.5948
1750.44	19.5959
1750.7	18.6424
1750.95	20.5543
1751.21	16.7274
1751.46	18.6333
1751.72	19.5831
1751.98	20.5339
1752.23	18.6198
1752.49	18.6155
1752.74	17.657
1753	19.5623
1753.26	17.6508
1753.51	17.6479
1753.77	19.5513
1754.02	20.5007
1754.28	19.5444
1754.53	15.7287
1754.79	19.5395
1755.05	18.5838
1755.3	23.3447
1755.56	18.5764
1755.81	19.5241
1756.07	18.5665
1756.33	19.5123
1756.58	20.4577
1756.84	18.55
1757.09	16.6454
1757.35	17.5952
1757.6	17.5974
1757.86	18.5533
1758.12	20.4579
1758.37	16.6522
1758.63	17.604
1758.88	19.5077
1759.14	16.6535
1759.39	21.411
1759.65	16.6518
1759.91	14.7474
1760.16	18.5514
1760.42	15.6954
1760.67	18.5459
1760.93	19.4932
1761.18	18.5392
1761.44	21.3891
1761.69	17.5852
1761.95	17.5857
1762.21	17.5886
1762.46	19.4919
1762.72	19.4919
1762.97	18.5407
1763.23	17.5907
1763.48	19.494
1763.74	22.3495
1763.99	17.5993
1764.25	18.5564
1764.5	17.6076
1764.76	19.5137
1765.02	17.6115
1765.27	17.6127
1765.53	18.5653
1765.78	19.5173
1766.04	16.6604
1766.29	21.4187
1766.55	18.5622
1766.8	21.4172
1767.06	16.6563
1767.31	17.6054
1767.57	21.4093
1767.82	20.455
1768.08	16.6489
1768.33	18.5488
1768.59	16.6382
1768.84	18.53
1769.1	18.5199
1769.36	21.3647
1769.61	18.5171
1769.86	18.5231
1770.12	21.3761
1770.38	21.3768
1770.63	13.7775
1770.89	16.6338
1771.14	17.5901
1771.4	18.5421
1771.65	18.5437
1771.91	19.4985
1772.16	18.5513
1772.42	19.5055
1772.67	17.6047
1772.93	18.5585
1773.18	15.705
1773.44	20.4661
1773.69	21.4198
1773.95	14.7567
1774.2	19.518
1774.46	19.5212
1774.71	19.5227
1774.97	17.622
1775.22	18.5837
1775.48	16.6813
1775.73	22.4031
1775.99	20.4969
1776.24	16.6824
1776.5	17.6333
1776.75	18.5833
1777.01	18.5813
1777.26	18.5779
1777.51	18.5746
1777.77	18.5712
1778.03	16.6634
1778.28	20.4676
1778.53	16.6552
1778.79	20.4568
1779.04	19.5028
1779.3	18.5525
1779.55	15.7023
1779.81	17.6069
1780.06	15.7047
1780.32	20.4657
1780.57	24.2754
1780.83	16.6601
1781.08	17.6131
1781.34	19.5194
1781.59	19.5223
1781.85	21.4309
1782.1	18.5776
1782.36	17.6275
1782.61	20.4885
1782.86	19.538
1783.12	18.5874
1783.37	17.6367
1783.63	18.593
1783.88	20.5042
1784.14	17.6474
1784.39	17.65
1784.65	19.5594
1784.9	18.6052
1785.15	19.5581
1785.41	15.7402
1785.66	23.3701
1785.92	18.6013
1786.17	19.5574
1786.43	19.5609
1786.68	17.6567
1786.94	15.7526
1787.19	16.7148
1787.44	16.7251
1787.7	18.649
1787.95	16.7464
1788.21	17.7098
1788.46	19.628
1788.72	17.7182
1788.97	21.557
1789.23	19.6452
1789.48	16.7725
1789.73	21.5678
1789.99	18.6942
1790.24	18.6941
1790.5	16.7762
1790.75	15.8112
1791	15.8041
1791.26	17.718
1791.51	17.7168
1791.77	21.5482
1792.02	18.6758
1792.28	16.7618
1792.53	21.5535
1792.78	16.7653
1793.04	20.5973
1793.29	16.7665
1793.55	17.7264
1793.8	15.811
1794.05	20.6005
1794.31	19.6401
1794.56	21.567
1794.82	18.7052
1795.07	19.6735
1795.32	17.7582
1795.58	20.6415
1795.83	18.7249
1796.09	16.8077
1796.34	18.7326
1796.6	18.7365
1796.85	18.74
1797.1	19.7042
1797.36	15.8616
1797.61	18.7477
1797.86	19.711
1798.12	16.8274
1798.37	15.8658
1798.63	18.7493
1798.88	18.7471
1799.13	17.7828
1799.39	16.8182
1799.64	17.7763
1799.9	16.8131
1800.15	16.8112
1800.4	21.6127
1800.66	18.7301
1800.91	17.7692
1801.16	18.7299
1801.42	20.6519
1801.67	19.6929
1801.93	19.6951
1802.18	20.6588
1802.43	18.7405
1802.69	22.5895
1802.94	20.6716
1803.19	21.6367
1803.45	17.7916
1803.7	17.7926
1803.95	14.9097
1804.21	19.7232
1804.46	17.8024
1804.71	21.6569
1804.97	19.7369
1805.22	17.8158
1805.48	19.7461
1805.73	17.8228
1805.98	16.8622
1806.24	20.7192
1806.49	20.7209
1806.74	21.6852
1807	16.8665
1807.25	18.7942
1807.5	16.8669
1807.76	17.8312
1808.01	19.7595
1808.26	18.7963
1808.52	19.7611
1808.77	18.7979
1809.02	17.8346
1809.28	17.8355
1809.53	16.8722
1809.79	18.8012
1810.04	17.8372
1810.29	18.8002
1810.55	17.8354
1810.8	19.7634
1811.05	19.763
1811.3	18.7989
1811.56	21.6915
1811.81	17.8365
1812.06	17.8386
1812.32	18.8058
1812.57	18.8093
1812.82	18.8116
1813.08	19.7779
1813.33	18.8162
1813.58	18.8208
1813.84	16.895
1814.09	15.9347
1814.34	18.8375
1814.6	18.8412
1814.85	15.9449
1815.1	22.7112
1815.36	19.813
1815.61	16.9145
1815.86	18.8485
1816.12	16.917
1816.37	19.8176
1816.62	19.8169
1816.88	18.8457
1817.13	18.8366
1817.38	18.8324
1817.63	18.8339
1817.89	17.8718
1818.14	17.8771
1818.39	17.8783
1818.64	19.8109
1818.9	17.8797
1819.15	18.8487
1819.4	17.8841
1819.66	17.8859
1819.91	16.9213
1820.16	16.9237
1820.42	20.7941
1820.67	15.96
1820.92	18.8646
1821.18	17.9002
1821.43	17.9028
1821.68	17.9048
1821.93	21.7782
1822.19	17.9077
1822.44	17.9088
1822.69	17.9097
1822.94	16.9409
1823.2	19.8434
1823.45	19.8414
1823.7	19.8417
1823.95	18.8755
1824.21	15.973
1824.46	18.879
1824.71	17.9128
1824.96	16.9464
1825.22	17.9159
1825.47	18.8847
1825.72	20.8215
1825.98	22.7592
1826.23	16.9488
1826.48	19.8549
1826.73	17.9193
1826.99	21.7959
1827.24	16.9544
1827.49	19.8628
1827.74	21.8003
1828	18.8929
1828.25	21.797
1828.5	20.8253
1828.75	19.8552
1829.01	17.9176
1829.26	17.9169
1829.51	19.8527
1829.76	18.8818
1830.02	16.9435
1830.27	21.7822
1830.52	16.9424
1830.77	18.8812
1831.03	17.9154
1831.28	15.0124
1831.53	16.9516
1831.78	18.8915
1832.04	24.7079
1832.29	19.8677
1832.54	18.9009
1832.79	15.993
1833.04	15.0243
1833.3	18.9037
1833.55	19.8738
1833.8	20.845
1834.05	19.8684
1834.31	19.8572
1834.56	18.8796
1834.81	18.871
1835.06	19.8337
1835.31	14.992
1835.57	15.9602
1835.82	19.8232
1836.07	17.9825
1836.32	18.9257
1836.58	17.9326
1836.83	16.9586
1837.08	17.9128
1837.33	19.8379
1837.58	15.9493
1837.84	18.8398
1838.09	15.9415
1838.34	18.8782
1838.59	18.8868
1838.85	20.8312
1839.1	18.8954
1839.35	21.8058
1839.6	18.902
1839.85	17.9131
1840.11	19.8371
1840.36	20.7927
1840.61	15.9494
1840.86	15.9419
1841.11	20.7636
1841.36	18.8247
1841.62	17.8529
1841.87	16.8823
1842.12	15.9133
1842.37	19.7747
1842.62	17.8438
1842.88	19.7752
1843.13	16.8809
1843.38	19.7746
1843.63	18.8082
1843.88	20.7377
1844.14	15.9168
1844.39	16.8813
1844.64	15.9145
1844.89	19.7734
1845.14	19.7751
1845.39	22.6788
1845.65	18.8268
1845.9	19.8014
1846.15	16.9115
1846.4	18.8305
1846.65	20.7306
1846.9	16.8498
1847.16	17.8079
1847.41	15.8847
1847.66	16.8561
1847.91	21.6779
1848.16	22.6308
1848.41	18.7749
1848.67	17.8119
1848.92	16.8455
1849.17	16.8406
1849.42	18.7595
1849.67	17.7917
1849.92	18.7469
1850.18	17.7803
1850.43	16.8151
1850.68	19.6935
1850.93	16.8085
1851.18	19.6872
1851.43	17.7649
1851.68	17.7643
1851.94	16.804
1852.19	20.645
1852.44	16.8041
1852.69	16.8035
1852.94	16.8024
1853.19	17.7603
1853.44	19.6761
1853.69	16.7919
1853.95	18.7047
1854.2	17.741
1854.45	19.6563
1854.7	17.7355
1854.95	20.6049
1855.2	17.7244
1855.45	20.5954
1855.71	20.5937
1855.96	17.7195
1856.21	17.7196
1856.46	18.6772
1856.71	16.7608
1856.96	16.7591
1857.21	21.545
1857.46	20.5849
1857.72	15.7951
1857.97	17.706
1858.22	17.7019
1858.47	17.6978
1858.72	17.6935
1858.97	17.6889
1859.22	19.5984
1859.47	19.5985
1859.72	17.6864
1859.98	16.732
1860.23	17.6918
1860.48	19.6076
1860.73	19.6106
1860.98	16.7442
1861.23	19.6175
1861.48	19.6182
1861.73	17.703
1861.98	16.7433
1862.24	18.6527
1862.49	21.5172
1862.74	18.6439
1862.99	16.7278
1863.24	19.5913
1863.49	15.7657
1863.74	18.6288
1863.99	17.6704
1864.24	20.5322
1864.49	17.6635
1864.74	20.5223
1864.99	20.5161
1865.25	18.6013
1865.5	17.6404
1865.75	20.4924
1866	16.6727
1866.25	17.6181
1866.5	19.5145
1866.75	17.6036
1867	18.5482
1867.25	17.5921
1867.5	18.5403
1867.75	17.5877
1868	15.6854
1868.25	16.6367
1868.51	19.4898
1868.76	17.5879
1869.01	16.6363
1869.26	13.7835
1869.51	19.486
1869.76	15.6831
1870.01	19.4841
1870.26	20.4339
1870.51	18.5327
1870.76	18.5325
1871.01	19.4812
1871.26	19.4789
1871.51	18.5254
1871.76	16.6236
1872.01	18.5216
1872.26	18.5179
1872.52	15.6658
1872.77	19.4613
1873.02	19.4608
1873.27	16.6113
1873.52	18.507
1873.77	16.6056
1874.02	16.6018
1874.27	15.6492
1874.52	17.5416
1874.77	22.2764
1875.02	23.2178
1875.27	17.5252
1875.52	18.4616
1875.77	16.5628
1876.02	22.2348
1876.27	18.4459
1876.52	15.606
1876.77	18.4329
1877.02	21.2552
1877.27	21.2307
1877.52	18.4234
1877.77	20.39
1878.02	19.3999
1878.27	21.2889
1878.52	18.4494
1878.78	20.3633
1879.02	17.5278
1879.27	17.521
1879.52	16.5694
1879.78	19.4094
1880.03	19.4085
1880.28	19.4127
1880.53	21.3013
1880.78	16.5666
1881.03	14.6666
1881.28	19.3881
1881.53	18.4329
1881.78	24.0916
1882.03	18.412
1882.28	18.3999
1882.53	18.394
1882.78	19.3416
1883.03	19.4474
1883.28	18.4148
1883.53	17.4329
1883.78	17.4371
1884.03	20.2736
1884.28	19.3226
1884.53	17.4448
1884.78	16.5095
1885.03	18.3988
1885.28	17.4587
1885.53	16.5225
1885.78	20.3036
1886.03	20.306
1886.28	17.4699
1886.53	17.4631
1886.78	18.4029
1887.03	17.4551
1887.28	16.5075
1887.52	17.4463
1887.78	19.3265
1888.03	16.4919
1888.27	16.4863
1888.52	17.4227
1888.77	17.4177
1889.02	19.2981
1889.27	17.4146
1889.52	19.2969
1889.77	20.2407
1890.02	20.2456
1890.27	20.2498
1890.52	19.309
1890.77	19.3079
1891.02	18.3648
1891.27	19.3061
1891.52	19.3048
1891.77	16.4791
1892.02	20.2446
1892.27	18.3586
1892.52	17.4133
1892.77	18.3471
1893.02	18.3369
1893.27	18.3285
1893.52	18.3288
1893.77	19.2691
1894.02	19.2628
1894.27	22.0782
1894.52	19.2587
1894.76	19.2595
1895.02	20.2006
1895.26	18.3235
1895.51	18.3258
1895.76	15.5086
1896.01	20.2117
1896.26	17.3949
1896.51	19.2787
1896.76	18.3406
1897.01	18.3423
1897.26	14.5804
1897.51	17.4022
1897.76	18.3416
1898.01	19.2798
1898.26	18.336
1898.51	18.3317
1898.75	20.2068
1899.01	21.1431
1899.25	17.3826
1899.5	18.3196
1899.75	16.439
1900	20.196
1900.25	18.3182
1900.5	17.3808
1900.75	20.2031
1901	21.1471
1901.25	21.1514
1901.5	18.335
1901.75	17.3993
1902	18.3431
1902.25	19.2836
1902.49	16.4602
1902.74	17.3989
1902.99	19.2777
1903.24	16.4553
1903.49	17.3945
1903.74	20.2144
1903.99	18.3335
1904.24	13.6322
1904.49	18.3319
1904.74	16.4512
1904.98	14.5709
1905.23	19.2699
1905.48	17.3839
1905.73	18.3183
1905.98	15.4981
1906.23	17.3747
1906.48	18.3121
1906.73	19.25
1906.98	18.3116
1907.23	20.1908
1907.47	18.3158
1907.72	19.2583
1907.97	19.2598
1908.22	16.4423
1908.47	19.2633
1908.72	22.0861
1908.97	18.3307
1909.22	17.3953
1909.47	17.4007
1909.71	16.4657
1909.96	18.3541
1910.21	18.3596
1910.46	18.3636
1910.71	16.4827
1910.96	19.3101
1911.21	17.4268
1911.46	20.2526
1911.7	18.3672
1911.95	18.3662
1912.2	18.3659
1912.45	16.4823
1912.7	17.4243
1912.95	19.3089
1913.2	15.5442
1913.45	17.4337
1913.69	18.3819
1913.94	22.1574
1914.19	19.3331
1914.44	17.4507
1914.69	17.4542
1914.94	16.513
1915.18	19.3447
1915.43	19.3441
1915.68	19.3424
1915.93	16.5112
1916.18	16.5084
1916.43	16.505
1916.68	17.4452
1916.92	18.3856
1917.17	18.3839
1917.42	19.3257
1917.67	18.3839
1917.92	17.4439
1918.17	16.5049
1918.42	17.453
1918.66	16.5147
1918.91	16.5201
1919.16	17.4719
1919.41	17.4777
1919.66	16.5358
1919.91	20.316
1920.15	17.4787
1920.4	18.426
1920.65	18.431
1920.9	20.3267
1921.15	16.5472
1921.39	17.4955
1921.64	18.4426
1921.89	18.4425
1922.14	18.4409
1922.39	21.2745
1922.64	15.5992
1922.89	21.2698
1923.13	20.3229
1923.38	17.4856
1923.63	18.428
1923.88	15.5901
1924.13	23.1465
1924.37	18.4223
1924.62	16.5338
1924.87	16.5363
1925.12	18.4303
1925.37	21.2726
1925.61	17.4956
1925.86	20.3381
1926.11	20.3439
1926.36	21.2971
1926.61	17.5143
1926.86	15.6232
1927.1	20.3604
1927.35	20.3631
1927.6	16.5765
1927.85	18.4731
1928.1	16.5795
1928.34	18.4771
1928.59	20.3748
1928.84	15.6392
1929.09	19.4351
1929.33	20.3899
1929.58	17.5492
1929.83	18.5037
1930.08	20.4063
1930.33	18.5132
1930.57	18.5141
1930.82	18.5146
1931.07	18.5129
1931.32	19.4597
1931.57	21.3555
1931.81	19.4545
1932.06	18.503
1932.31	18.5001
1932.56	18.4998
1932.8	15.6513
1933.05	20.3962
1933.3	20.4029
1933.55	18.5147
1933.79	20.4275
1934.04	17.5935
1934.29	19.512
1934.54	19.5263
1934.79	20.4911
1935.03	20.5009
1935.28	16.692
1935.53	17.6316
1935.78	20.491
1936.02	19.5365
1936.27	17.6282
1936.52	12.861
1936.77	15.7152
1937.01	19.5211
1937.26	23.3252
1937.51	16.658
1937.76	16.6546
1938	16.6552
1938.25	18.5659
1938.5	18.5675
1938.75	14.7612
1938.99	19.5263
1939.24	17.6236
1939.49	16.6738
1939.74	17.6273
1939.98	19.5382
1940.23	17.6368
1940.48	17.6492
1940.73	19.5637
1940.97	18.6086
1941.22	20.5142
1941.47	16.6912
1941.72	17.6349
1941.96	20.5049
1942.21	18.6168
1942.46	18.6196
1942.71	21.4843
1942.95	18.6114
1943.2	16.6953
1943.45	18.5982
1943.7	20.5201
1943.94	20.5237
1944.19	20.5282
1944.44	18.623
1944.68	15.7619
1944.93	21.4989
1945.18	17.6813
1945.42	20.5531
1945.67	18.6447
1945.92	16.7349
1946.17	21.5187
1946.41	18.6506
1946.66	19.6065
1946.91	20.5611
1947.16	17.6904
1947.4	19.6026
1947.65	19.6026
1947.9	19.6023
1948.14	16.7326
1948.39	17.69
1948.64	14.8242
1948.89	19.6103
1949.13	19.6146
1949.38	19.6198
1949.62	19.6253
1949.87	19.6339
1950.12	18.6847
1950.37	21.5669
1950.61	18.6989
1950.86	15.8287
1951.11	17.754
1951.35	17.7593
1951.6	19.683
1951.85	18.7258
1952.1	19.6889
1952.34	16.8074
1952.59	18.732
1952.83	21.6181
1953.08	15.8486
1953.33	18.7224
1953.58	16.7916
1953.82	19.6592
1954.07	19.6491
1954.32	17.7247
1954.56	18.6805
1954.81	16.7644
1955.06	16.7668
1955.3	18.6886
1955.55	19.6563
1955.8	19.6693
1956.04	17.7555
1956.29	19.6811
1956.54	19.6848
1956.78	19.6894
1957.03	18.733
1957.28	17.7757
1957.52	18.7392
1957.77	20.6633
1958.02	20.6648
1958.26	21.6268
1958.51	20.6637
1958.76	15.8554
1959	18.7365
1959.25	18.7356
1959.5	15.8508
1959.74	18.7299
1959.99	19.6874
1960.23	16.8035
1960.48	16.8004
1960.73	19.6772
1960.98	19.6743
1961.22	16.7938
1961.47	16.7945
1961.71	16.7955
1961.96	18.7158
1962.21	17.7569
1962.45	23.517
1962.7	18.7184
1962.95	17.7592
1963.19	16.7999
1963.44	16.801
1963.69	14.8828
1963.93	20.6459
1964.18	19.6852
1964.42	17.7636
1964.67	19.6843
1964.92	17.7634
1965.16	21.6049
1965.41	20.6471
1965.66	18.7302
1965.9	16.8131
1966.15	17.7777
1966.39	16.8194
1966.64	17.7825
1966.89	16.8209
1967.13	18.7438
1967.38	18.7455
1967.63	17.7848
1967.87	17.7857
1968.12	15.8625
1968.36	18.7448
1968.61	18.7413
1968.86	16.8149
1969.1	15.8489
1969.35	19.6849
1969.59	16.8001
1969.84	17.7566
1970.09	16.7946
1970.33	21.5891
1970.58	17.7486
1970.82	20.6245
1971.07	16.7858
1971.32	20.6211
1971.56	18.7048
1971.81	21.5845
1972.05	17.7482
1972.3	20.6259
1972.55	15.8277
1972.79	22.5386
1973.04	16.7803
1973.28	17.7361
1973.53	17.7339
1973.78	18.6911
1974.02	18.6905
1974.27	17.7323
1974.51	16.7745
1974.76	18.6934
1975.01	20.6135
1975.25	19.6579
1975.5	19.6605
1975.74	16.7851
1975.99	17.7454
1976.23	18.7053
1976.48	16.7869
1976.73	21.5825
1976.97	18.7035
1977.22	20.6195
1977.46	17.7395
1977.71	19.6542
1977.95	19.6517
1978.2	16.7741
1978.45	17.7317
1978.69	19.6488
1978.94	22.5251
1979.18	19.6497
1979.43	20.6092
1979.67	17.7338
1979.92	18.6903
1980.17	19.6452
1980.41	19.6421
1980.66	16.7664
1980.9	20.5956
1981.15	18.6779
1981.39	16.7612
1981.64	21.5495
1981.88	17.7178
1982.13	18.6723
1982.37	19.6267
1982.62	18.6648
1982.87	21.5299
1983.11	15.7854
1983.36	17.6974
1983.6	20.5658
1983.85	20.5638
1984.09	18.649
1984.34	20.5601
1984.58	18.6441
1984.83	16.7275
1985.08	17.6816
1985.32	17.682
1985.56	18.6386
1985.81	16.7308
1986.06	17.7218
1986.3	17.6535
1986.55	19.4599
1986.79	16.7473
1987.04	15.843
1987.28	19.1011
1987.53	15.8855
1987.77	20.3514
1988.02	17.882
1988.26	17.842
1988.51	16.7325
1988.75	17.8464
1989	17.3281
1989.24	17.449
1989.49	17.4351
1989.73	18.9501
1989.98	17.9802
1990.22	16.4747
1990.47	18.3596
1990.72	18.3539
1990.96	18.3498
1991.2	17.6371
1991.45	18.0855
1991.7	19.5172
1991.94	17.8249
1992.19	17.3336
1992.43	19.5779
1992.68	18.6435
1992.92	17.8834
1993.17	17.7049
1993.41	18.4566
1993.66	17.8617
1993.9	18.7309
1994.15	16.1266
1994.39	16.0672
1994.63	16.6304
1994.88	18.1739
1995.13	18.1631
1995.37	18.5129
1995.61	18.8389
1995.86	19.6373
1996.11	17.8446
1996.35	16.8014
1996.59	18.181
1996.84	19.6378
1997.08	19.3669
1997.33	17.9524
1997.57	17.4877
1997.82	17.9822
1998.06	19.3259
1998.31	19.5953
1998.55	15.4203
1998.8	16.5844
1999.04	16.2572
1999.29	16.7309
1999.53	16.7151
1999.78	17.8417
2000.02	17.8078
2000.27	18.1507
2000.51	17.2344
2000.76	18.7347
2001	18.0497
2001.24	16.2903
2001.49	17.7566
2001.73	17.3929
2001.98	17.7681
2002.22	17.3911
2002.47	15.0167
2002.71	17.0608
2002.96	18.5958
2003.2	18.4441
2003.45	18.4407
2003.69	17.4634
2003.93	15.2811
2004.18	16.5958
2004.42	16.5387
2004.67	17.191
2004.91	17.0186
2005.16	16.8753
2005.4	17.3652
2005.65	17.2762
2005.89	17.8378
2006.13	18.1052
2006.38	17.1928
2006.62	16.8496
2006.87	17.2542
2007.11	17.1764
2007.36	19.7153
2007.6	16.935
2007.81	19.3575
2008.06	16.5188
2008.31	17.4583
2008.56	18.3976
2008.8	17.4487
2009.05	14.6143
2009.3	18.3812
2009.55	17.4343
2009.79	17.4301
2010.04	16.4835
2010.29	16.4828
2010.53	19.3078
2010.78	17.4237
2011.03	16.4815
2011.28	17.4228
2011.52	19.3053
2011.77	19.3044
2012.02	19.3031
2012.27	16.4765
2012.51	17.4142
2012.76	15.5251
2013.01	16.4588
2013.26	18.3342
2013.5	16.4474
2013.75	16.4399
2014	16.4308
2014.24	19.2398
2014.49	18.2997
2014.74	17.3624
2014.99	15.4879
2015.23	18.3069
2015.48	16.4311
2015.73	20.1828
2015.97	17.3762
2016.22	20.2058
2016.47	15.5082
2016.71	18.3265
2016.96	18.3234
2017.21	18.3188
2017.46	21.1302
2017.7	21.1216
2017.95	14.5445
2018.2	19.2294
2018.44	16.4091
2018.69	19.2143
2018.94	19.2075
2019.18	17.3311
2019.43	17.3284
2019.68	19.2008
2019.93	18.2638
2020.17	17.3263
2020.42	18.2622
2020.67	15.454
2020.91	17.3281
2021.16	17.3281
2021.41	20.1369
2021.65	17.3254
2021.9	19.1955
2022.15	15.447
2022.4	14.507
2022.64	19.1812
2022.89	19.1775
2023.14	15.432
2023.38	19.1689
2023.63	16.3601
2023.88	13.5529
2024.12	15.4167
2024.37	17.2794
2024.62	17.2736
2024.86	17.2683
2025.11	17.2632
2025.36	17.2584
2025.6	15.3876
2025.85	17.2559
2026.1	17.2633
2026.34	23.8117
2026.59	13.5508
2026.84	21.0446
2027.08	17.3106
2027.33	18.242
2027.57	16.3595
2027.82	17.2725
2028.07	19.1061
2028.32	17.2925
2028.56	17.3374
2028.81	18.2485
2029.06	15.4472
2029.3	17.2914
2029.55	18.2053
2029.79	14.4578
2030.04	17.2517
2030.29	17.2431
2030.53	17.2558
2030.78	15.397
2031.03	18.1944
2031.27	17.2614
2031.52	18.1961
2031.77	19.135
2032.01	16.3405
2032.26	19.1488
2032.5	18.2206
2032.75	14.4867
2033	17.2945
2033.24	15.4297
2033.49	18.2347
2033.74	19.16
2033.98	21.0121
2034.23	18.1937
2034.48	20.0586
2034.72	19.1332
2034.97	15.4058
2035.21	19.1529
2035.46	18.2313
2035.71	16.3693
2035.95	15.4302
2036.2	17.293
2036.45	19.1654
2036.69	19.1687
2036.94	18.2334
2037.18	17.2974
2037.43	16.3607
2037.68	19.163
2037.92	19.1602
2038.17	18.2226
2038.41	16.351
2038.66	17.2826
2038.91	18.2136
2039.15	18.2105
2039.4	19.1397
2039.64	15.4007
2039.89	13.5303
2040.14	18.1911
2040.38	18.1868
2040.63	17.2507
2040.87	18.1801
2041.12	18.1791
2041.37	19.11
2041.61	15.3789
2041.86	16.3092
2042.1	16.3052
2042.35	14.4414
2042.6	19.0998
2042.84	19.1021
2043.09	13.5154
2043.33	20.0487
2043.58	13.5269
2043.83	19.1261
2044.07	16.3259
2044.32	18.1867
2044.56	14.4489
2044.81	14.4346
2045.05	18.1917
2045.3	18.1912
2045.55	19.1582
2045.79	15.4442
2046.04	17.2933
2046.28	15.4097
2046.53	17.266
2046.78	19.1349
2047.02	15.3952
2047.27	18.1797
2047.51	16.3131
2047.76	20.0431
2048	18.1796
2048.25	16.3163
2048.5	16.3197
2048.74	18.1881
2048.99	17.2593
2049.23	20.9976
2049.48	18.2048
2049.72	18.2096
2049.97	18.2148
2050.22	17.2831
2050.46	16.3494
2050.71	15.4139
2050.95	19.1463
2051.2	18.2076
2051.44	15.4066
2051.69	19.1424
2051.93	16.3434
2052.18	19.1463
2052.42	18.2147
2052.67	15.4151
2052.91	17.2873
2053.16	17.2927
2053.41	16.365
2053.65	20.1093
2053.9	15.4346
2054.14	18.2414
2054.39	18.2409
2054.63	19.1754
2054.88	19.1734
2055.12	16.364
2055.37	18.2324
2055.62	15.4266
2055.86	15.4251
2056.11	17.293
2056.35	17.2921
2056.6	20.0964
2056.84	18.228
2057.09	18.2297
2057.33	15.4272
2057.58	18.235
2057.82	16.3677
2058.07	20.1139
2058.31	19.1828
2058.56	19.1869
2058.8	18.2535
2059.05	20.1269
2059.29	16.3835
2059.54	18.2557
2059.78	19.1895
2060.03	17.3145
2060.27	15.4418
2060.52	18.2519
2060.76	17.3185
2061.01	18.2563
2061.25	17.3208
2061.5	15.4487
2061.74	16.3858
2061.99	16.3871
2062.24	18.2621
2062.48	16.3916
2062.73	17.3316
2062.97	18.2715
2063.22	16.3997
2063.46	16.4015
2063.7	17.3403
2063.95	18.2792
2064.19	18.2817
2064.44	17.3468
2064.68	18.2895
2064.93	16.4187
2065.18	15.4848
2065.42	17.366
2065.66	17.3694
2065.91	15.4937
2066.15	18.3113
2066.4	17.3748
2066.64	19.255
2066.89	18.3176
2067.13	16.4413
2067.38	18.3235
2067.62	18.326
2067.87	14.5684
2068.11	20.2089
2068.36	17.3923
2068.6	14.5714
2068.85	18.3289
2069.09	15.5041
2069.34	15.497
2069.58	17.3738
2069.83	17.3761
2070.07	16.445
2070.31	16.4534
2070.56	18.3437
2070.8	15.5183
2071.05	17.394
2071.29	17.42
2071.54	15.5393
2071.78	15.5376
2072.03	16.4783
2072.27	16.4779
2072.52	19.3009
2072.76	17.4182
2073.01	17.4172
2073.25	16.4767
2073.5	16.4774
2073.74	16.4785
2073.98	19.3059
2074.23	18.368
2074.47	16.4889
2074.72	20.2653
2074.96	19.3319
2075.21	18.3985
2075.45	19.3485
2075.69	16.5197
2075.94	14.6322
2076.18	20.2967
2076.43	16.5185
2076.67	19.3462
2076.92	17.454
2077.16	16.5039
2077.41	15.5597
2077.65	14.6189
2077.9	17.4518
2078.14	19.3403
2078.38	16.5117
2078.63	17.4581
2078.87	20.2951
2079.12	15.582
2079.36	17.4744
2079.61	15.588
2079.85	15.5906
2080.09	19.3724
2080.34	18.4273
2080.58	18.4255
2080.83	18.4244
2081.07	15.5896
2081.32	17.4788
2081.56	17.4787
2081.8	19.3699
2082.05	19.3714
2082.29	22.2075
2082.54	16.5378
2082.78	18.4275
2083.02	20.3167
2083.27	18.4262
2083.51	18.4264
2083.76	20.3165
2084	18.4265
2084.24	17.482
2084.49	14.6476
2084.73	17.4827
2084.98	18.4278
2085.22	18.4279
2085.47	17.4849
2085.71	18.4352
2085.95	16.5499
2086.2	20.3368
2086.44	17.5009
2086.69	15.6111
2086.93	16.5602
2087.17	16.5613
2087.42	15.6152
2087.66	17.5083
2087.9	18.4554
2088.15	17.5099
2088.39	15.6178
2088.64	18.4584
2088.88	16.5683
2089.12	16.5711
2089.37	18.4705
2089.61	14.6825
2089.85	16.578
2090.1	17.5267
2090.34	19.4235
2090.59	19.4257
2090.83	17.5326
2091.07	16.5868
2091.32	19.436
2091.56	16.5967
2091.8	15.6535
2092.05	15.6587
2092.29	16.6136
2092.54	21.3661
2092.78	18.5221
2093.02	18.527
2093.27	18.5316
2093.51	17.5849
2093.75	16.6373
2094	18.5397
2094.24	17.5888
2094.49	17.5879
2094.73	19.4877
2094.97	15.6825
2095.22	17.5803
2095.46	15.6776
2095.7	19.4762
2095.95	18.5249
2096.19	18.5243
2096.43	20.4231
2096.68	14.7215
2096.92	18.5169
2097.16	14.7159
2097.41	17.5628
2097.65	18.5113
2097.89	18.51
2098.14	17.5588
2098.38	16.6097
2098.62	16.6092
2098.87	20.4044
2099.11	17.5567
2099.36	15.6585
2099.6	18.5058
2099.84	17.5575
2100.08	16.6094
2100.33	17.5609
2100.57	18.5147
2100.81	17.5686
2101.06	18.5205
2101.3	18.5215
2101.54	18.5214
2101.79	14.722
2102.03	19.471
2102.28	17.5701
2102.52	17.567
2102.76	16.6143
2103	18.5115
2103.25	17.5615
2103.49	13.7639
2103.73	16.6121
2103.98	15.6645
2104.22	16.6165
2104.46	18.5183
2104.71	16.6215
2104.95	18.5246
2105.19	17.5788
2105.44	19.4827
2105.68	18.5345
2105.92	18.5363
2106.17	15.6853
2106.41	17.5876
2106.65	17.5894
2106.89	19.4911
2107.14	18.538
2107.38	17.5838
2107.62	17.5791
2107.87	17.5743
2108.11	18.5192
2108.35	17.5662
2108.59	15.6661
2108.84	18.5158
2109.08	18.5216
2109.32	16.6244
2109.57	18.5245
2109.81	16.6247
2110.05	17.5747
2110.3	19.4747
2110.54	17.5748
2110.78	18.5246
2111.02	19.473
2111.27	17.5707
2111.51	16.6195
2111.75	19.4674
2112	17.5684
2112.24	17.5705
2112.48	17.5722
2112.72	16.6246
2112.97	18.5297
2113.21	16.6324
2113.45	17.5843
2113.7	19.4836
2113.94	20.4324
2114.18	15.6806
2114.42	17.5823
2114.67	14.7314
2114.91	13.7801
2115.15	17.58
2115.39	18.5289
2115.64	17.5772
2115.88	19.4731
2116.12	17.5701
2116.36	16.6191
2116.61	18.5176
2116.85	19.4665
2117.09	16.6187
2117.34	14.7175
2117.58	16.6139
2117.82	19.4587
2118.06	18.5043
2118.3	18.4988
2118.55	16.5979
2118.79	18.4909
2119.03	20.3831
2119.28	19.4311
2119.52	18.4799
2119.76	17.5299
2120	16.5817
2120.24	16.5826
2120.49	18.4809
2120.73	23.2221
2120.97	15.6431
2121.22	17.5436
2121.46	21.3416
2121.7	15.6538
2121.94	17.5546
2122.18	20.4044
2122.43	17.5597
2122.67	20.4095
2122.91	17.5631
2123.15	16.6142
2123.4	16.6128
2123.64	14.7124
2123.88	20.4039
2124.12	18.5006
2124.36	15.6479
2124.61	19.432
2124.85	17.5287
2125.09	18.4699
2125.33	15.6236
2125.58	17.5124
2125.82	17.5079
2126.06	21.2889
2126.3	17.5005
2126.55	16.5509
2126.79	19.3845
2127.03	19.383
2127.27	17.4912
2127.51	15.5991
2127.76	17.4881
2128	16.542
2128.24	18.4327
2128.48	19.378
2128.72	16.5414
2128.97	16.5401
2129.21	18.4293
2129.45	18.4285
2129.69	15.5926
2129.93	22.2063
2130.18	18.4251
2130.42	17.4784
2130.66	18.4209
2130.9	15.5846
2131.14	14.6378
2131.39	16.5243
2131.63	18.4111
2131.87	18.4088
2132.11	20.2927
2132.35	19.3455
2132.6	21.2311
2132.84	16.5131
2133.08	16.5139
2133.32	20.2893
2133.56	18.4021
2133.81	19.347
2134.05	14.6284
2134.29	20.2906
2134.53	17.4588
2134.77	18.4021
2135.01	17.4574
2135.26	17.4555
2135.5	17.4523
2135.74	16.5034
2135.98	15.556
2136.22	18.3821
2136.47	16.4981
2136.71	21.2123
2136.95	18.3846
2137.19	17.444
2137.43	21.2207
2137.67	19.3315
2137.91	20.2686
2138.16	16.4945
2138.4	20.27
2138.64	18.3904
2138.88	18.3945
2139.12	15.5544
2139.37	18.3771
2139.61	15.5473
2139.85	19.3134
2140.09	16.485
2140.33	17.4252
2140.57	19.3076
2140.81	17.4225
2141.06	17.4232
2141.3	18.3603
2141.54	17.4151
2141.78	18.3552
2142.02	17.4142
2142.26	19.3013
2142.51	19.3041
2142.75	19.3226
2142.99	20.2519
2143.23	17.3763
2143.47	21.1442
2143.71	17.3873
2143.95	16.4541
2144.19	20.2218
2144.44	15.5218
2144.68	14.5712
2144.92	17.3948
2145.16	17.3952
2145.4	17.3941
2145.64	18.3327
2145.88	16.4511
2146.13	20.2097
2146.37	15.5085
2146.61	18.3263
2146.85	18.3237
2147.09	17.3817
2147.33	15.5008
2147.57	19.2565
2147.81	15.4973
2148.06	20.1911
2148.3	15.4934
2148.54	20.1851
2148.78	18.3036
2149.02	19.2372
2149.26	17.3535
2149.5	15.4738
2149.74	19.2199
2149.98	18.2789
2150.22	16.4027
2150.47	17.3399
2150.71	20.1539
2150.95	16.4069
2151.19	19.2218
2151.43	17.349
2151.67	19.2263
2151.91	17.3522
2152.15	15.4741
2152.4	18.2848
2152.64	19.219
2152.88	15.4665
2153.12	18.2771
2153.36	19.2125
2153.6	19.209
2153.84	16.3937
2154.08	18.2606
2154.32	18.253
2154.56	17.3097
2154.8	16.367
2155.05	17.2967
2155.29	17.2916
2155.53	20.0907
2155.77	20.0871
2156.01	17.2826
2156.25	15.4136
2156.49	18.2157
2156.73	17.2818
2156.97	20.086
2157.21	18.2203
2157.45	20.0929
2157.69	19.1611
2157.94	15.4229
2158.18	16.3575
2158.42	17.2914
2158.66	15.4206
2158.9	19.1564
2159.14	15.416
2159.38	15.4128
2159.62	19.1444
2159.86	18.206
2160.1	16.3351
2160.34	18.1986
2160.58	18.1969
2160.82	20.9952
2161.06	15.3949
2161.3	18.1924
2161.54	15.3931
2161.79	17.259
2162.03	15.3932
2162.27	19.1245
2162.51	16.3242
2162.75	18.1874
2162.99	17.2529
2163.23	14.4537
2163.47	19.114
2163.71	15.3826
2163.95	14.4468
2164.19	19.1023
2164.43	14.441
2164.67	19.1011
2164.91	20.9662
2165.15	18.171
2165.39	18.1713
2165.63	19.1034
2165.87	17.2373
2166.12	15.3722
2166.35	15.3698
2166.6	18.1605
2166.84	20.0204
2167.08	20.0154
2167.32	20.0092
2167.56	18.1385
2167.8	17.2008
2168.04	17.1988
2168.28	16.2691
2168.52	19.9891
2168.76	12.5532
2169	20.9265
2169.24	18.1417
2169.48	16.2869
2169.72	18.1553
2169.96	20.0215
2170.2	13.5038
2170.44	20.0212
2170.68	17.2242
2170.92	18.1532
2171.16	19.0754
2171.4	16.2728
2171.64	19.0559
2171.88	16.2643
2172.12	17.1907
2172.36	18.1178
2172.6	16.2591
2172.84	18.1171
2173.08	18.1171
2173.32	17.1894
2173.56	19.9794
2173.8	17.1932
2174.04	15.3351
2174.28	19.053
2174.52	19.0528
2174.76	20.9112
2175	16.2632
2175.24	19.05
2175.48	19.0494
2175.72	16.2608
2175.96	16.2592
2176.2	17.1859
2176.44	19.9717
2176.68	16.2562
2176.92	17.1856
2177.16	18.1148
2177.4	15.3278
2177.64	19.044
2177.88	17.184
2178.12	19.0367
2178.36	18.1049
2178.6	16.2478
2178.84	20.8909
2179.08	17.1772
2179.32	19.0344
2179.56	16.2489
2179.8	18.1058
2180.04	19.0337
2180.28	17.1756
2180.52	19.0314
2180.76	17.1741
2181	19.0295
2181.24	17.1708
2181.48	19.0253
2181.72	17.168
2181.96	17.1659
2182.2	17.1644
2182.44	19.9456
2182.68	18.0866
2182.92	16.2277
2183.16	18.0771
2183.4	16.2198
2183.63	16.2172
2183.87	15.2885
2184.11	15.288
2184.35	17.1419
2184.59	20.8503
2184.83	18.0717
2185.07	19.9269
2185.31	18.0756
2185.55	19.9331
2185.79	17.1548
2186.03	17.1582
2186.27	19.0188
2186.51	19.9526
2186.75	18.1021
2186.99	19.0359
2187.23	15.3247
2187.47	18.1116
2187.71	19.9669
2187.95	18.1063
2188.18	17.1744
2188.43	19.9551
2188.66	19.0223
2188.9	18.0894
2189.14	18.0832
2189.38	17.1516
2189.62	18.0764
2189.86	16.2221
2190.1	18.0764
2190.34	14.3701
2190.58	19.0067
2190.82	18.0798
2191.06	19.0082
2191.3	19.0099
2191.54	18.0843
2191.78	18.086
2192.01	16.2324
2192.25	18.0893
2192.49	19.0205
2192.73	19.0237
2192.97	21.8115
2193.21	16.2465
2193.45	16.2542
2193.69	18.1204
2193.93	17.1965
2194.17	14.4103
2194.41	18.1274
2194.64	15.337
2194.88	19.0531
2195.12	18.1207
2195.36	19.9748
2195.6	17.1826
2195.84	19.0334
2196.08	18.0993
2196.32	17.1671
2196.56	18.0917
2196.8	19.944
2197.04	19.9411
2197.27	17.1593
2197.51	19.9423
2197.75	16.2342
2197.99	19.0222
2198.23	19.0271
2198.47	19.0331
2198.71	18.1111
2198.95	16.2582
2199.19	16.2639
2199.42	17.199
2199.66	18.1381
2199.9	20.9399
2200.14	16.2942
2200.38	15.3694
2200.62	19.1007
2200.86	20.0375
2201.1	19.0956
2201.34	18.1441
2201.58	19.9591
2201.81	17.152
2202.05	15.3122
2202.29	15.3389
2202.53	16.2787
2202.77	19.9941
2203.01	15.3411
2203.25	15.3637
2203.49	18.2024
2203.72	17.2505
2203.96	17.2506
2204.2	17.2514
2204.44	16.3071
2204.68	18.1547
2204.92	20.9314
2205.16	14.4122
2205.39	18.1291
2205.63	17.2004
2205.87	18.1346
2206.11	18.1334
2206.35	17.1984
2206.59	14.4106
2206.83	18.1324
2207.06	16.2758
2207.3	16.2793
2207.54	17.2134
2207.78	19.0784
2208.02	18.1516
2208.26	16.2929
2208.49	17.2264
2208.73	17.2282
2208.97	17.2293
2209.21	19.0919
2209.45	18.1602
2209.69	17.2299
2209.93	17.2323
2210.17	15.3717
2210.4	17.2378
2210.64	20.0364
2210.88	17.2434
2211.12	15.382
2211.36	17.2505
2211.6	19.1194
2211.83	16.324
2212.07	19.1234
2212.31	17.2566
2212.55	18.1875
2212.79	20.0512
2213.02	19.1151
2213.26	17.2477
2213.5	19.114
2213.74	18.1855
2213.98	19.127
2214.22	12.6
2214.45	16.3352
2214.69	18.2037
2214.93	15.4042
2215.17	15.405
2215.41	20.0737
2215.65	15.4055
2215.88	17.2727
2216.12	18.2059
2216.36	18.2051
2216.6	16.3374
2216.84	16.3375
2217.07	19.1392
2217.31	18.2064
2217.55	14.4717
2217.79	16.339
2218.03	18.2073
2218.26	14.4741
2218.5	14.4763
2218.74	16.3472
2218.98	20.0876
2219.22	18.2209
2219.45	15.4199
2219.69	17.2906
2219.93	15.4208
2220.17	14.4857
2220.41	19.1579
2220.64	18.2214
2220.88	18.2168
2221.12	19.146
2221.36	17.2744
2221.6	18.2048
2221.83	18.2028
2222.07	16.3357
2222.31	19.1378
2222.55	16.3397
2222.78	15.4083
2223.02	17.2792
2223.26	18.2178
2223.5	18.2234
2223.74	21.0337
2223.97	16.3643
2224.21	20.1097
2224.45	24.792
2224.69	17.3115
2224.93	17.316
2225.16	16.3849
2225.4	17.325
2225.64	19.2022
2225.88	18.2696
2226.11	19.2094
2226.35	19.2139
2226.59	17.3428
2226.83	20.1585
2227.07	17.3478
2227.3	20.1623
2227.54	16.4106
2227.78	16.4094
2228.02	18.2835
2228.25	18.2824
2228.49	17.344
2228.73	16.4057
2228.96	18.2809
2229.2	15.4715
2229.44	18.2896
2229.68	18.2941
2229.92	17.359
2230.15	16.424
2230.39	17.3662
2230.63	15.4922
2230.87	17.3743
2231.1	17.3787
2231.34	16.4425
2231.58	19.2653
2231.82	19.2692
2232.05	16.4527
2232.29	20.2171
2232.53	16.4591
2232.77	18.3436
2233	19.2879
2233.24	20.2328
2233.48	18.3533
2233.71	17.4141
2233.95	17.4129
2234.19	19.2939
2234.43	15.5274
2234.66	15.5246
2234.9	19.2809
2235.14	16.4555
2235.38	19.2775
2235.61	17.3976
2235.85	17.3987
2236.09	20.2214
2236.33	16.46
2236.56	17.4019
2236.8	19.288
2237.04	17.4102
2237.27	17.4173
2237.51	17.4247
2237.75	18.3736
2237.98	16.4937
2238.22	18.3838
2238.46	17.4466
2238.7	15.566
2238.93	16.5102
2239.17	17.4521
2239.41	14.6201
2239.65	17.4445
2239.88	21.2118
2240.12	14.611
2240.36	18.3914
2240.59	17.4537
2240.83	15.5679
2241.07	19.3433
2241.3	17.4577
2241.54	14.6277
2241.78	17.4606
2242.02	17.4626
2242.25	17.465
2242.49	16.5211
2242.73	17.4646
2242.96	21.2376
2243.2	19.3472
2243.44	19.346
2243.67	19.3456
2243.91	17.459
2244.15	16.5182
2244.38	16.5235
2244.62	15.5859
2244.86	19.3713
2245.09	21.2661
2245.33	16.5437
2245.57	16.5474
2245.81	19.3881
2246.04	16.5537
2246.28	17.5013
2246.52	15.612
2246.75	16.5607
2246.99	16.5625
2247.23	18.4561
2247.46	18.4559
2247.7	18.455
2247.94	17.5076
2248.17	19.3992
2248.41	16.5595
2248.65	16.5587
2248.88	19.3967
2249.12	17.5081
2249.36	17.51
2249.59	16.5632
2249.83	19.4001
2250.07	17.504
2250.3	14.6625
2250.54	17.4963
2250.78	17.4933
2251.01	16.5455
2251.25	17.4903
2251.49	18.4367
2251.72	15.6022
2251.96	15.6048
2252.2	17.5001
2252.43	15.6136
2252.67	15.6225
2252.91	16.5754
2253.14	17.5279
2253.38	15.6367
2253.61	15.6396
2253.85	19.435
2254.09	15.6449
2254.32	17.5415
2254.56	19.4359
2254.8	18.4892
2255.03	17.5411
2255.27	16.5938
2255.51	18.4911
2255.74	16.5978
2255.98	17.5497
2256.22	17.5529
2256.45	14.7089
2256.69	19.4572
2256.92	16.6126
2257.16	13.767
2257.4	17.5668
2257.63	17.5678
2257.87	18.5184
2258.11	17.57
2258.34	19.4716
2258.58	17.5746
2258.81	15.6772
2259.05	18.5294
2259.29	17.5807
2259.52	16.6325
2259.76	20.4365
2260	19.4881
2260.23	15.6871
2260.47	16.6407
2260.7	18.5489
2260.94	16.6498
2261.18	16.6505
2261.41	16.6517
2261.65	16.6532
2261.88	18.5582
2262.12	17.6093
2262.36	18.5653
2262.59	16.6651
2262.83	19.5274
2263.06	19.5336
2263.3	19.5408
2263.54	15.7343
2263.77	15.7404
2264.01	18.6088
2264.24	13.8414
2264.48	18.6189
2264.72	20.5329
2264.95	17.6709
2265.19	18.6268
2265.42	17.6723
2265.66	16.7156
2265.9	13.847
2266.13	17.6628
2266.37	16.7041
2266.6	18.6092
2266.84	18.6062
2267.08	17.6495
2267.31	17.6467
2267.55	15.7356
2267.78	16.6868
2268.02	17.6395
2268.26	16.6868
2268.49	15.7357
2268.73	19.5548
2268.96	16.6978
2269.2	13.8394
2269.43	17.6627
2269.67	16.7139
2269.91	20.5406
2270.14	18.6335
2270.38	14.8134
2270.61	16.7285
2270.85	20.5559
2271.08	17.6901
2271.32	18.6492
2271.55	18.6527
2271.79	21.5246
2272.03	18.6552
2272.26	20.5697
2272.5	17.7006
2272.73	18.6586
2272.97	15.789
2273.2	17.7039
2273.44	17.705
2273.68	17.7061
2273.91	17.707
2274.15	20.5797
2274.38	18.6665
2274.62	18.6679
2274.85	17.7118
2275.09	18.6703
2275.32	16.7553
2275.56	18.6732
2275.79	16.7622
2276.03	16.7665
2276.27	19.6452
2276.5	15.8154
2276.74	17.7367
2276.97	16.7837
2277.21	19.6685
2277.44	15.8373
2277.68	16.804
2277.91	16.8065
2278.15	16.8078
2278.38	18.729
2278.62	17.768
2278.85	18.7272
2279.09	17.7631
2279.33	19.675
2279.56	15.8314
2279.8	15.8273
2280.03	17.7418
2280.27	19.6562
2280.5	17.7361
2280.74	19.6516
2280.97	18.6907
2281.21	18.6895
2281.44	16.7745
2281.68	13.9001
2281.91	17.7374
2282.15	17.7411
2282.38	19.6638
2282.62	18.7092
2282.85	16.7954
2283.09	16.8024
2283.32	16.8103
2283.56	18.7398
2283.79	15.8641
2284.03	14.9065
2284.26	15.8704
2284.5	19.7225
2284.73	18.7645
2284.97	19.7285
2285.2	17.804
2285.44	16.8377
2285.67	18.7556
2285.91	16.8317
2286.14	15.8712
2286.38	17.7987
2286.61	19.7323
2286.85	16.851
2287.08	18.7796
2287.32	16.8559
2287.55	17.8235
2287.79	17.8222
2288.02	17.8196
2288.26	15.8909
2288.49	18.7766
2288.73	21.6585
2288.96	18.7639
2289.2	18.7573
2289.43	15.8655
2289.67	18.7476
2289.9	17.7847
2290.14	17.7848
2290.37	15.8628
2290.61	15.8654
2290.84	16.8318
2291.08	17.7995
2291.31	19.7283
2291.55	17.8069
2291.78	15.8847
2292.02	17.8137
2292.25	18.7813
2292.48	17.8222
2292.72	13.0078
2292.95	19.7555
2293.19	17.8303
2293.42	15.9035
2293.66	15.9023
2293.89	19.7552
2294.13	16.8616
2294.36	17.8219
2294.6	19.7459
2294.83	21.6694
2295.07	16.8516
2295.3	15.8866
2295.54	18.7729
2295.77	18.768
2296.01	18.761
2296.24	15.8741
2296.47	14.9135
2296.71	16.8404
2296.94	14.9187
2297.18	18.7732
2297.41	20.7049
2297.65	15.8953
2297.88	17.8258
2298.11	15.9012
2298.35	21.6881
2298.58	17.8371
2298.82	16.8767
2299.05	17.8444
2299.29	17.8459
2299.52	15.9166
2299.76	17.8459
2299.99	18.8105
2300.23	16.8835
2300.46	15.9215
2300.69	17.8538
2300.93	17.8559
2301.16	15.9267
2301.4	17.8576
2301.63	16.8918
2301.87	17.8555
2302.1	15.9244
2302.33	17.8551
2302.57	18.8198
2302.8	17.8539
2303.04	15.9236
2303.27	17.8543
2303.5	19.7867
2303.74	16.8942
2303.97	15.9314
2304.21	17.8646
2304.44	19.7991
2304.68	17.8709
2304.91	14.9746
2305.14	16.9078
2305.38	15.9431
2305.61	17.8781
2305.85	19.8133
2306.08	17.8812
2306.31	19.8148
2306.55	15.9483
2306.78	19.814
2307.02	21.745
2307.25	19.8099
2307.48	14.9772
2307.72	17.8743
2307.95	17.8731
2308.19	16.907
2308.42	17.8743
2308.65	19.8099
2308.89	17.8804
2309.12	18.8521
2309.36	15.9568
2309.59	19.8294
2309.82	15.9618
2310.06	18.8645
2310.29	16.9292
2310.53	17.8947
2310.76	16.9232
2310.99	18.8458
2311.23	17.8685
2311.46	19.7933
2311.7	15.9275
2311.93	19.7859
2312.16	18.8175
2312.4	19.7801
2312.63	16.8855
2312.86	19.7828
2313.1	16.8934
2313.33	15.9342
2313.56	15.9391
2313.8	15.9439
2314.03	16.9155
2314.27	16.9223
2314.5	16.9278
2314.73	18.8657
2314.97	14.9913
2315.2	15.9548
2315.43	16.9184
2315.67	16.9138
2315.9	14.9722
2316.14	16.8999
2316.37	16.8977
2316.6	19.7943
2316.84	20.7612
2317.07	16.8997
2317.3	17.8707
2317.54	16.9076
2317.77	20.7642
2318	16.8989
2318.24	17.8621
2318.47	15.9286
2318.71	15.926
2318.94	16.8888
2319.17	19.782
2319.41	19.7807
2319.64	18.8161
2319.87	15.9218
2320.11	19.7816
2320.34	20.7489
2320.57	17.8565
2320.81	17.8597
2321.04	18.8287
2321.27	19.7988
2321.51	22.7029
2321.74	23.6766
2321.97	22.7163
2322.21	18.8514
2322.44	19.8172
2322.67	18.8517
2322.91	23.6873
2323.14	19.8213
2323.37	21.7567
2323.61	20.7905
2323.84	22.7234
2324.07	19.8218
2324.31	22.7166
2324.54	25.6087
2324.77	22.7014
2325.01	25.5939
2325.24	25.5889
2325.47	23.6531
2325.71	29.4396
2325.94	29.4333
2326.17	36.1808
2326.41	33.2792
2326.64	42.9161
2326.87	54.4768
2327.1	81.4628
2327.34	100.727
2327.57	125.775
2327.8	128.675
2328.04	108.434
2328.27	72.7739
2328.5	57.3391
2328.74	43.8394
2328.97	36.1215
2329.2	33.2293
2329.44	27.4492
2329.67	26.4901
2329.9	23.5982
2330.13	22.6333
2330.37	22.6312
2330.6	17.8156
2330.83	22.6325
2331.07	17.8199
2331.3	18.7863
2331.53	18.7912
2331.77	19.7485
2332	17.8186
2332.23	16.8531
2332.47	17.8137
2332.7	20.6997
2332.93	18.7719
2333.16	18.7699
2333.4	17.8057
2333.63	20.6902
2333.86	13.9516
2334.09	20.6813
2334.33	19.7166
2334.56	18.753
2334.79	19.7142
2335.02	14.905
2335.26	18.7524
2335.49	19.7156
2335.72	18.7532
2335.96	17.7896
2336.19	17.7886
2336.42	19.7109
2336.66	18.7487
2336.89	18.7478
2337.12	14.9016
2337.35	16.8229
2337.59	17.7831
2337.82	18.7436
2338.05	19.7039
2338.28	19.7034
2338.52	16.8208
2338.75	21.6273
2338.98	16.8212
2339.21	18.7431
2339.45	19.7027
2339.68	18.7392
2339.91	17.7752
2340.14	20.6542
2340.38	20.6496
2340.61	17.7632
2340.84	19.6772
2341.07	16.7912
2341.31	20.6234
2341.54	17.7427
2341.77	19.6576
2342	18.6959
2342.24	19.6525
2342.47	18.6929
2342.7	15.8168
2342.93	17.7343
2343.17	18.6921
2343.4	16.7743
2343.63	18.6918
2343.86	14.8587
2344.1	15.8179
2344.33	16.7761
2344.56	16.775
2344.79	17.7317
2345.02	16.7705
2345.26	16.7661
2345.49	15.8052
2345.72	17.7177
2345.95	19.6319
2346.19	17.7157
2346.42	16.7573
2346.65	19.6283
2346.88	15.7972
2347.12	17.7118
2347.35	19.6271
2347.58	19.6182
2347.81	19.5619
2348.04	15.797
2348.28	16.7234
2348.51	17.6228
2348.74	19.5315
2348.97	18.7125
2349.2	16.0353
2349.44	17.7115
2349.67	19.3933
2349.9	17.6642
2350.13	17.7218
2350.37	16.646
2350.6	18.1736
2350.83	18.72
2351.06	16.6289
2351.29	18.4601
2351.53	18.4305
2351.76	16.4386
2351.99	17.0957
2352.22	16.9719
2352.45	20.023
2352.69	16.3895
2352.92	17.3149
2353.15	16.6463
2353.38	17.9309
2353.61	18.5711
2353.85	19.1146
2354.08	16.8111
2354.31	17.7259
2354.54	16.5829
2354.77	18.6229
2355.01	18.2454
2355.24	16.2658
2355.47	18.1464
2355.7	15.9362
2355.93	17.9545
2356.17	16.8989
2356.4	16.2244
2356.63	16.7802
2356.86	16.4931
2357.09	18.2438
2357.32	18.28
2357.56	19.0386
2357.79	16.4293
2358.02	16.189
2358.25	18.5271
2358.48	17.1105
2358.71	16.6651
2358.95	16.0337
2359.18	16.2028
2359.41	18.4059
2359.64	16.8904
2359.87	16.0732
2360.1	15.2074
2360.34	18.4707
2360.57	17.6483
2360.8	20.0198
2361.03	17.5394
2361.26	17.1508
2361.49	16.845
2361.73	15.752
2361.96	18.8144
2362.19	19.7162
2362.42	17.2234
2362.65	17.7903
2362.88	16.9685
2363.11	17.5058
2363.35	18.5009
2363.58	15.0222
2363.81	17.3585
2364.04	15.6568
2364.27	15.7388
2364.5	17.9197
2364.73	16.1666
2364.97	16.6104
2365.2	16.0431
2365.43	16.8967
2365.66	15.8614
2365.89	15.9802
2366.12	16.4721
2366.36	14.6877
2366.59	16.2574
2366.82	15.9826
2367.05	15.9375
2367.28	15.668
2367.51	18.314
2367.74	18.1023
2367.97	16.8507
2368.2	17.8254
2368.44	15.9527
2368.67	15.8706
2368.9	15.9205
2368.98	15.5721
2369.22	16.5122
2369.45	18.3949
2369.69	15.5609
2369.92	16.4999
2370.15	16.4962
2370.39	13.6658
2370.62	17.4322
2370.86	15.5448
2371.09	16.4847
2371.33	13.6573
2371.56	19.3066
2371.79	19.303
2372.03	15.5341
2372.26	18.3553
2372.5	18.3525
2372.73	18.3507
2372.97	16.4678
2373.2	16.4668
2373.43	16.4642
2373.67	18.3416
2373.9	17.3977
2374.14	15.5143
2374.37	18.3319
2374.6	16.4487
2374.84	17.3849
2375.07	16.4419
2375.31	17.3794
2375.54	15.4994
2375.77	16.4377
2376.01	18.3147
2376.24	14.555
2376.48	19.2468
2376.71	15.4899
2376.94	17.3661
2377.18	17.3643
2377.41	16.4229
2377.65	19.2341
2377.88	17.3551
2378.11	14.5378
2378.35	18.2859
2378.58	20.1571
2378.82	16.4027
2379.05	19.2078
2379.28	18.2646
2379.52	15.4512
2379.75	20.1311
2379.98	17.3207
2380.22	19.1916
2380.45	16.382
2380.69	18.2534
2380.92	15.4449
2381.15	16.3811
2381.39	15.4458
2381.62	17.3178
2381.85	19.1884
2382.09	18.2519
2382.32	14.5072
2382.56	17.3134
2382.79	17.3121
2383.02	16.3758
2383.26	15.4395
2383.49	13.5676
2383.72	19.1816
2383.96	15.439
2384.19	16.3741
2384.42	17.3086
2384.66	17.3074
2384.89	20.111
2385.13	20.1076
2385.36	13.5584
2385.59	18.2287
2385.83	13.551
2386.06	18.2196
2386.29	18.2139
2386.53	17.2742
2386.76	16.3359
2386.99	15.397
2387.23	19.1245
2387.46	15.3918
2387.69	18.1906
2387.93	17.258
2388.16	15.3919
2388.4	17.2565
2388.63	21.9184
2388.86	17.253
2389.1	17.2526
2389.33	16.3194
2389.56	18.1836
2389.8	17.2507
2390.03	16.3183
2390.26	15.3863
2390.5	17.2524
2390.73	15.3884
2390.96	15.3891
2391.2	16.3222
2391.43	17.2545
2391.66	14.4555
2391.9	17.2518
2392.13	17.2502
2392.36	19.1128
2392.59	14.4456
2392.83	19.0987
2393.06	19.0917
2393.3	17.2218
2393.53	15.356
2393.76	17.214
2394	18.1431
2394.23	19.0685
2394.46	16.2736
2394.69	19.0647
2394.93	17.2078
2395.16	16.2836
2395.39	17.2482
2395.63	17.2513
2395.86	16.3181
2396.09	17.2634
2396.33	16.338
2396.56	16.3257
2396.79	17.255
2397.02	17.2537
2397.26	17.2537
2397.49	17.2541
2397.73	17.2543
2397.96	15.3882
2398.19	14.4551
2398.42	17.2527
2398.66	17.2525
2398.89	17.2521
2399.12	17.253
2399.36	14.4555
2399.59	16.3209
2399.82	15.3882
