#Acq. time (s)=	60
#Accumulations=	2
#Range (cm-¹)=	100...4000
#Windows=	1
#Auto scanning=	Off
#Autofocus=	Off
#Macrospot=	Off
#AutoExposure=	Off
#Spike filter=	Multiple accum.
#Delay time (s)=	2
#Binning=	1
#Readout mode=	Signal
#DeNoise=	Off
#ICS correction=	On
#Dark correction=	Off
#Inst. Process=	Off
#Detector Gain=	Best Dynamic
#Detector ADC=	50 kHz HS
#Detector temperature (°C)=	-60.09
#Instrument=	LabRAM HR Evol
#Detector=	SIN-EM FIVIS
#Objective=	x100_VIS
#Grating=	150 (500nm)
#ND Filter=	100%
#Laser=	633nm_Edge
#Hole=	49.98
#Temperature=	0
#Range=	Visible
#StageXY=	75x50mm Scan+
#StageZ=	Z motor
#X (µm)=	0
#Y (µm)=	0
#Z (µm)=	-271.2
#Full time(mm:ss)=	2:04
#Project=	21_11_04
#Sample=	BU19w
#Site=	
#Title=	BU19w-E-FF11b-FI10-V_150 (500nm)_633nm_Edge_100%_x100_VIS_H50um_60sX2
#Remark=	
#Date=	04.11.2021 17:04
#Acquired=	04.11.2021 17:04:15
102.881	265.522
106.139	279.948
109.397	305.858
112.653	426.316
115.908	577.447
119.161	490.686
122.414	325.494
125.664	261.528
128.914	244.397
132.162	239.666
135.409	235.872
138.654	224.392
141.898	213.869
145.14	197.626
148.383	214.872
151.622	192.888
154.861	214.007
158.098	215.021
161.335	214.128
164.569	205.568
167.801	214.239
171.034	234.397
174.264	257.404
177.494	295.698
180.721	347.359
183.949	401.771
187.173	481.914
190.396	538.907
193.62	600.585
196.84	580.103
200.061	518.735
203.279	440.448
206.496	386.01
209.712	314.371
212.926	265.657
216.139	251.305
219.352	215.018
222.562	178.736
225.772	188.188
228.979	173.764
232.185	171.747
235.392	166.903
238.595	151.614
241.797	150.595
244.999	157.228
248.199	172.399
251.397	204.632
254.595	201.711
257.791	159.902
260.985	145.636
264.178	128.534
267.371	127.568
270.561	124.714
273.75	114.278
276.939	122.814
280.125	121.856
283.31	116.146
286.494	119.911
289.678	108.501
292.859	108.454
296.039	106.514
299.217	111.202
302.396	115.882
305.572	115.824
308.746	113.879
311.919	102.493
315.093	110.004
318.263	111.848
321.433	109.936
324.601	115.582
327.768	105.186
330.935	107.065
334.099	112.715
337.262	117.417
340.423	151.352
343.584	182.447
346.743	161.664
349.902	138.067
353.058	107.872
356.213	107.827
359.367	109.659
362.52	113.368
365.671	107.667
368.821	105.732
371.971	108.498
375.119	111.254
378.265	114.012
381.41	121.457
384.553	129.862
387.696	128.941
390.837	148.693
393.976	132.828
397.116	111.328
400.253	112.404
403.389	110.642
406.524	107.931
409.657	108.044
412.789	117.583
415.92	111.985
419.05	117.744
422.178	127.258
425.305	121.573
428.431	135.645
431.555	143.987
434.678	171.171
437.8	183.208
440.921	255.426
444.04	376.306
447.158	671.332
450.275	1177.16
453.391	1579.65
456.505	1302.94
459.618	783.55
462.73	460.247
465.84	322.997
468.949	259.489
472.057	206.324
475.164	185.828
478.27	177.472
481.374	156.989
484.477	146.746
487.579	137.436
490.679	138.379
493.778	130.943
496.876	133.751
499.973	127.243
503.068	131.939
506.162	122.645
509.255	116.149
512.346	119.926
515.436	116.241
518.525	107.902
521.613	111.729
524.7	109.958
527.785	106.326
530.869	113.96
533.952	106.603
537.033	114.275
540.113	102.166
543.192	103.209
546.27	107.062
549.347	102.379
552.423	103.367
555.497	94.9064
558.568	93.9535
561.64	98.617
564.711	100.428
567.78	106.92
570.848	96.4352
573.915	97.2317
576.979	100.822
580.043	95.9759
583.107	92.1041
586.169	97.5908
589.228	101.219
592.287	98.3544
595.345	94.5744
598.402	94.5585
601.458	88.0723
604.511	96.5295
607.565	103.139
610.617	100.435
613.667	89.3203
616.716	88.5119
619.764	96.1445
622.811	87.8429
625.856	90.8226
628.9	90.9327
631.944	97.5998
634.986	91.0255
638.026	98.557
641.066	95.6809
644.104	100.296
647.14	88.9258
650.177	94.4972
653.211	93.4479
656.244	90.5094
659.276	93.1984
662.308	96.8124
665.336	90.1512
668.365	91.9065
671.393	89.0423
674.418	92.7861
677.443	96.5221
680.467	96.5173
683.489	102.146
686.511	111.534
689.53	91.0796
692.549	92.1156
695.567	100.647
698.582	91.3861
701.598	96.1738
704.611	92.511
707.624	94.4662
710.635	86.9939
713.646	98.2425
716.655	90.6921
719.662	85.9626
722.669	88.7623
725.674	87.7756
728.679	81.135
731.681	96.9938
734.683	90.3527
737.683	85.5931
740.683	93.9303
743.681	92.9195
746.678	83.5246
749.673	85.339
752.669	90.9099
755.661	93.6789
758.654	92.7686
761.645	90.0423
764.635	85.4768
767.623	89.3392
770.611	92.277
773.597	95.2271
776.582	94.4142
779.565	101.101
782.549	106.837
785.53	114.445
788.511	117.339
791.489	114.563
794.466	123.08
797.444	127.804
800.419	113.632
803.394	100.39
806.366	108.814
809.339	96.5107
812.309	96.4321
815.278	90.6977
818.247	88.7195
821.214	90.4911
824.18	89.4432
827.145	90.2656
830.108	80.8336
833.072	87.3487
836.033	89.2235
838.992	90.2005
841.952	87.4844
844.909	92.241
847.865	85.766
850.822	83.9843
853.776	86.9026
856.728	88.8953
859.681	93.7258
862.631	99.5145
865.58	98.7074
868.528	101.68
871.476	90.4329
874.422	92.4004
877.366	90.553
880.311	87.7465
883.253	85.8741
886.194	90.6261
889.134	89.6687
892.074	97.2361
895.012	86.771
897.948	86.7112
900.883	78.0984
903.818	79.8949
906.751	85.4629
909.683	90.0643
912.614	86.1784
915.543	88.8918
918.473	86.9403
921.4	85.9545
924.326	90.6384
927.251	79.3759
930.174	86.0067
933.098	83.2375
936.019	79.5658
938.94	76.8694
941.859	82.6784
944.777	84.7243
947.693	80.1521
950.61	80.3135
953.525	87.131
956.438	81.5594
959.35	80.7275
962.261	74.1404
965.171	81.8814
968.08	83.8822
970.988	82.0286
973.894	78.2299
976.801	77.2789
979.705	68.6139
982.608	72.4084
985.51	80.9797
988.411	77.0831
991.311	77.0156
994.209	75.0321
997.107	72.1028
1000	79.6846
1002.9	73.913
1005.79	73.8824
1008.68	73.8704
1011.58	71.0369
1014.47	81.5676
1017.36	76.8313
1020.25	71.1435
1023.13	73.1177
1026.02	75.1157
1028.9	72.3353
1031.79	72.4288
1034.67	77.3363
1037.55	73.6075
1040.43	76.613
1043.31	69.0088
1046.19	73.9531
1049.07	74.0508
1051.94	79.9467
1054.82	88.7551
1057.69	89.7953
1060.56	80.1294
1063.44	86.9521
1066.31	85.9645
1069.17	94.6902
1072.04	85.9373
1074.91	99.5064
1077.77	87.822
1080.64	79.0508
1083.5	74.1657
1086.37	80.914
1089.23	77.9852
1092.09	76.9934
1094.95	81.8121
1097.8	74.0406
1100.66	75.9519
1103.52	75.939
1106.37	74.0333
1109.22	74.0423
1112.08	71.1839
1114.93	72.2625
1117.78	75.304
1120.63	84.1685
1123.48	77.4461
1126.32	84.3557
1129.17	72.7454
1132.01	68.9259
1134.86	72.9295
1137.7	75.9573
1140.54	78.9999
1143.38	84.9804
1146.22	93.8882
1149.06	97.8987
1151.89	93.0303
1154.73	86.1553
1157.56	83.1913
1160.4	77.2534
1163.23	80.1317
1166.06	81.0372
1168.89	73.112
1171.72	77.9443
1174.55	74.9278
1177.38	70.9342
1180.2	74.7819
1183.03	67.8914
1185.85	63.9663
1188.67	83.4987
1191.49	81.5537
1194.31	77.6905
1197.13	73.8302
1199.95	76.8446
1202.77	74.0201
1205.58	80.0352
1208.4	73.2984
1211.21	79.3485
1214.02	83.4633
1216.84	80.68
1219.65	72.9308
1222.46	88.0267
1225.27	76.2751
1228.07	75.4562
1230.88	75.6227
1233.68	73.7666
1236.49	79.9334
1239.29	79.0515
1242.09	68.0552
1244.89	72.153
1247.69	79.2671
1250.49	77.2718
1253.29	88.4071
1256.08	81.3265
1258.88	81.2945
1261.67	76.1928
1264.47	75.1313
1267.26	81.1299
1270.05	90.128
1272.84	141.343
1275.63	114.06
1278.42	82.8133
1281.2	68.6841
1283.99	74.6286
1286.77	73.567
1289.56	73.517
1292.34	77.4778
1295.12	77.4572
1297.9	76.4502
1300.68	70.4536
1303.46	76.4747
1306.23	71.5226
1309.01	63.5816
1311.78	72.6971
1314.56	77.8322
1317.33	70.9164
1320.1	85.1455
1322.87	71.1691
1325.64	68.2755
1328.41	75.5082
1331.18	74.6461
1333.94	76.8174
1336.71	75.9316
1339.47	71.971
1342.24	76.1525
1345	69.0726
1347.76	80.4084
1350.52	79.4581
1353.28	75.42
1356.04	87.7921
1358.79	87.8366
1361.55	83.7554
1364.3	86.8487
1367.06	82.7316
1369.81	83.7463
1372.56	104.276
1375.31	154.59
1378.06	176.128
1380.81	108.323
1383.56	76.4753
1386.3	85.6934
1389.05	75.4127
1391.79	85.6711
1394.53	78.5031
1397.28	82.6715
1400.02	74.51
1402.76	83.8162
1405.5	79.7642
1408.23	76.742
1410.97	78.8755
1413.71	74.8276
1416.44	78.0121
1419.17	82.2377
1421.91	71.9789
1424.64	79.3299
1427.37	74.2386
1430.1	74.3366
1432.83	84.842
1435.55	69.3144
1438.28	74.6196
1441.01	78.8851
1443.73	86.3136
1446.45	67.5616
1449.17	82.3002
1451.89	83.4027
1454.62	78.1963
1457.33	78.2192
1460.05	70.88
1462.77	80.3313
1465.48	72.9738
1468.2	75.0623
1470.91	82.3996
1473.63	80.2933
1476.34	71.8992
1479.05	68.7639
1481.76	79.2793
1484.47	78.2534
1487.17	89.8466
1489.88	75.1774
1492.59	81.5429
1495.29	83.7198
1497.99	80.6331
1500.7	77.5505
1503.4	77.6348
1506.1	84.0711
1508.8	79.9475
1511.5	77.9366
1514.19	72.7438
1516.89	74.9865
1519.59	86.8312
1522.28	75.2375
1524.97	79.6484
1527.67	73.3585
1530.36	74.5624
1533.05	83.3076
1535.74	75.9175
1538.42	78.1828
1541.11	83.6894
1543.8	81.6135
1546.48	81.6578
1549.16	75.1826
1551.85	80.5809
1554.53	84.8625
1557.21	83.7209
1559.89	76.1179
1562.57	80.3993
1565.25	80.3591
1567.93	85.7072
1570.6	79.196
1573.28	75.9246
1575.95	75.8944
1578.62	80.1944
1581.29	75.8901
1583.97	86.6621
1586.64	86.6766
1589.3	84.5438
1591.97	87.8073
1594.64	81.3833
1597.3	79.279
1599.97	80.4134
1602.63	79.4029
1605.3	94.6207
1607.96	89.3219
1610.62	82.9425
1613.28	84.1649
1615.94	96.2848
1618.59	87.7496
1621.25	89.0115
1623.91	89.1812
1626.56	80.5789
1629.21	77.4348
1631.87	88.5779
1634.52	79.9002
1637.17	83.3172
1639.82	78.9499
1642.47	91.1582
1645.12	89.0213
1647.76	81.3378
1650.41	85.8158
1653.05	72.5675
1655.7	84.7873
1658.34	87.0251
1660.98	83.713
1663.62	81.5072
1666.26	84.839
1668.9	88.1687
1671.54	78.1883
1674.18	84.8431
1676.81	87.0502
1679.45	91.4817
1682.08	84.8061
1684.71	83.6601
1687.34	83.6217
1689.98	89.1265
1692.61	84.6795
1695.23	84.6806
1697.86	85.8168
1700.49	77.0271
1703.12	78.3367
1705.74	80.7531
1708.36	85.3944
1710.99	87.5548
1713.61	90.8631
1716.23	83.1261
1718.85	88.8579
1721.47	77.7682
1724.09	84.5358
1726.7	86.8592
1729.32	79.097
1731.94	80.3024
1734.55	83.7562
1737.16	80.4611
1739.77	83.9175
1742.39	83.9975
1745	91.9778
1747.61	83.017
1750.21	83.074
1752.82	85.3861
1755.43	84.2996
1758.03	74.1402
1760.64	92.2667
1763.24	90.0167
1765.84	83.241
1768.44	75.3335
1771.05	84.4219
1773.64	71.9807
1776.24	89.024
1778.84	81.1353
1781.44	83.4668
1784.03	83.5343
1786.63	80.196
1789.22	75.7283
1791.81	78.0927
1794.41	89.5947
1797	91.9869
1799.59	87.5347
1802.18	86.5087
1804.76	75.1556
1807.35	80.9973
1809.94	81.0868
1812.52	86.9304
1815.11	84.7185
1817.69	84.813
1820.27	83.7466
1822.85	83.8398
1825.43	90.8816
1828.01	87.5088
1830.59	85.2939
1833.17	88.8812
1835.74	78.5277
1838.32	82.1071
1840.89	91.5111
1843.47	89.2601
1846.04	83.4978
1848.61	80.0583
1851.18	88.3126
1853.75	89.5301
1856.32	87.2533
1858.89	96.7039
1861.45	96.798
1864.02	85.1467
1866.58	89.9442
1869.15	85.3246
1871.71	85.3932
1874.27	90.165
1876.83	86.6874
1879.39	87.9185
1881.95	84.4298
1884.51	92.7406
1887.07	90.4216
1889.63	75.0701
1892.18	82.1665
1894.74	85.7146
1897.29	84.5429
1899.84	83.3873
1902.39	79.8964
1904.94	82.3423
1907.49	84.7948
1910.04	80.1531
1912.59	90.9798
1915.14	87.5622
1917.68	94.8549
1920.23	93.6998
1922.77	90.1834
1925.32	86.6851
1927.86	84.3763
1930.4	91.646
1932.94	89.3342
1935.48	87.0114
1938.02	97.8904
1940.56	93.1515
1943.09	83.588
1945.63	90.8532
1948.16	93.3059
1950.7	88.5212
1953.23	94.5666
1955.76	100.61
1958.29	83.7533
1960.82	105.457
1963.35	87.3833
1965.88	94.6161
1968.41	89.7817
1970.93	89.7589
1973.46	88.528
1975.98	88.5038
1978.51	83.6647
1981.03	89.6574
1983.55	87.2265
1986.07	94.4222
1988.59	90.7954
1991.11	91.9816
1993.63	88.3624
1996.15	91.9611
1998.66	88.3542
2001.18	83.5505
2003.69	85.9666
2006.2	101.624
2008.72	100.451
2011.23	102.9
2013.74	90.9019
2016.25	92.1439
2018.76	95.783
2021.27	87.3767
2023.77	91.0378
2026.28	94.7134
2028.78	95.9875
2031.29	100.902
2033.79	94.9508
2036.29	98.6733
2038.79	91.4975
2041.3	96.4415
2043.79	90.4694
2046.29	92.999
2048.79	95.5371
2051.29	99.296
2053.78	92.0483
2056.28	101.899
2058.77	98.3472
2061.27	81.3341
2063.76	91.2206
2066.25	93.7775
2068.74	95.1054
2071.23	89.0632
2073.72	92.8477
2076.21	92.942
2078.69	100.426
2081.18	93.1186
2083.66	90.7268
2086.15	104.381
2088.63	89.6126
2091.11	97.1075
2093.59	92.2481
2096.07	103.509
2098.55	93.7002
2101.03	100.024
2103.51	97.662
2105.99	97.7904
2108.46	100.42
2110.94	95.5678
2113.41	106.975
2115.89	89.5979
2118.36	89.7374
2120.83	91.1322
2123.3	96.3044
2125.77	98.9668
2128.24	97.8441
2130.71	92.9189
2133.17	100.632
2135.64	99.4855
2138.11	98.3305
2140.57	97.1685
2143.03	99.8172
2145.49	96.0974
2147.96	96.1819
2150.42	101.352
2152.88	111.625
2155.34	104.031
2157.79	97.6976
2160.25	105.404
2162.71	99.0472
2165.16	97.7895
2167.62	95.244
2170.07	92.7051
2172.52	101.693
2174.97	100.453
2177.43	100.485
2179.88	101.775
2182.32	97.9382
2184.77	103.047
2187.22	95.3648
2189.67	94.0958
2192.11	103.082
2194.56	109.515
2197	96.749
2199.44	99.3702
2201.89	99.4394
2204.33	89.2461
2206.77	95.7516
2209.21	104.852
2211.64	102.389
2214.08	107.659
2216.52	111.662
2218.95	101.463
2221.39	100.298
2223.82	101.722
2226.26	103.149
2228.69	103.28
2231.12	104.712
2233.55	98.333
2235.98	106.282
2238.41	98.5817
2240.84	100.012
2243.26	94.903
2245.69	98.9579
2248.12	108.272
2250.54	95.2677
2252.96	105.909
2255.39	107.357
2257.81	112.773
2260.23	99.712
2262.65	105.12
2265.07	106.555
2267.49	104.007
2269.9	98.7913
2272.32	100.192
2274.74	92.2903
2277.15	109.618
2279.57	108.342
2281.98	103.06
2284.39	105.742
2286.8	111.075
2289.21	104.44
2291.62	99.1301
2294.03	112.448
2296.44	115.131
2298.84	112.51
2301.25	113.889
2303.66	108.622
2306.06	110.037
2308.46	104.794
2310.87	102.227
2313.27	110.362
2315.67	111.832
2318.07	109.293
2320.47	113.46
2322.87	114.944
2325.26	111.059
2327.66	108.515
2330.06	107.315
2332.45	120.995
2334.85	107.641
2337.24	115.946
2339.63	107.979
2342.02	110.881
2344.41	108.346
2346.8	114.015
2349.19	110.111
2351.58	107.562
2353.97	103.619
2356.35	109.263
2358.74	105.281
2361.12	115.02
2363.51	104.109
2365.89	111.126
2368.27	116.775
2370.65	116.897
2373.03	111.476
2375.41	124.062
2377.79	114.474
2380.17	107.62
2382.55	103.525
2384.92	100.796
2387.3	102.232
2389.67	117.572
2392.05	118.987
2394.42	119.006
2396.79	120.399
2399.16	110.654
2401.53	110.656
2403.9	105.076
2406.27	117.59
2408.64	112.044
2411.01	119.084
2413.37	106.663
2415.74	118.041
2418.1	121.183
2420.47	117.228
2422.83	110.33
2425.19	110.39
2427.55	99.247
2429.91	103.601
2432.27	115.031
2434.63	113.784
2436.99	115.375
2439.34	125.474
2441.7	117.141
2444.05	120.159
2446.41	126.035
2448.76	114.815
2451.11	124.988
2453.47	113.725
2455.82	109.591
2458.17	101.145
2460.51	111.348
2462.86	107.194
2465.21	103.023
2467.56	114.706
2469.9	107.633
2472.25	117.894
2474.59	120.941
2476.94	126.903
2479.28	125.618
2481.62	119.959
2483.96	114.278
2486.3	121.684
2488.64	110.14
2490.98	104.411
2493.32	114.748
2495.65	130.969
2497.99	120.848
2500.32	122.43
2502.66	118.141
2504.99	122.651
2507.32	121.281
2509.66	125.786
2511.99	119.984
2514.32	124.48
2516.65	133.4
2518.98	109.896
2521.3	124.749
2523.63	117.462
2525.96	120.506
2528.28	119.119
2530.61	111.805
2532.93	120.795
2535.25	126.841
2537.57	110.631
2539.89	127.093
2542.22	131.688
2544.53	127.356
2546.85	118.553
2549.17	121.669
2551.49	132.266
2553.8	124.928
2556.12	131.037
2558.43	125.157
2560.75	110.285
2563.06	128.431
2565.37	121.069
2567.68	125.738
2569.99	122.888
2572.3	123.05
2574.61	118.672
2576.92	129.409
2579.23	114.397
2581.53	123.608
2583.84	126.734
2586.14	125.299
2588.45	120.809
2590.75	111.721
2593.05	125.464
2595.35	114.895
2597.66	128.7
2599.96	124.223
2602.26	109.053
2604.55	124.382
2606.85	133.616
2609.15	122.996
2611.44	127.627
2613.74	123.089
2616.03	121.607
2618.33	121.665
2620.62	126.31
2622.91	140.154
2625.2	131.034
2627.49	112.709
2629.78	118.939
2632.07	119.061
2634.36	120.738
2636.64	116.284
2638.93	127.269
2641.22	112.015
2643.5	124.575
2645.78	124.784
2648.07	131.188
2650.35	123.615
2652.63	117.58
2654.91	127.068
2657.19	120.942
2659.47	124.169
2661.75	133.644
2664.03	125.913
2666.3	119.725
2668.58	124.523
2670.85	129.337
2673.13	121.644
2675.4	118.686
2677.67	122.089
2679.95	112.932
2682.22	119.529
2684.49	129.321
2686.76	131.206
2689.03	121.935
2691.29	131.754
2693.56	124.001
2695.83	132.097
2698.09	135.431
2700.36	135.584
2702.62	135.726
2704.89	127.818
2707.15	126.33
2709.41	129.663
2711.67	126.549
2713.93	128.28
2716.19	128.436
2718.45	141.498
2720.7	125.449
2722.96	135.282
2725.22	133.756
2727.47	119.243
2729.73	127.426
2731.98	130.72
2734.23	137.278
2736.49	138.953
2738.74	129.24
2740.99	139.069
2743.24	121.25
2745.49	131.106
2747.73	124.69
2749.98	136.232
2752.23	134.82
2754.47	128.457
2756.72	138.419
2758.96	128.701
2761.21	128.787
2763.45	127.254
2765.69	135.597
2767.93	143.965
2770.17	127.621
2772.41	140.937
2774.65	134.499
2776.89	137.982
2779.13	133.207
2781.36	133.432
2783.6	133.655
2785.84	135.546
2788.07	137.439
2790.3	135.993
2792.54	136.207
2794.77	136.414
2797	131.569
2799.23	138.456
2801.46	138.624
2803.69	137.097
2805.92	138.923
2808.14	137.374
2810.37	122.318
2812.59	137.626
2814.82	129.278
2817.04	149.667
2819.27	136.242
2821.49	134.656
2823.71	138.16
2825.93	119.615
2828.15	133.296
2830.37	130
2832.59	128.395
2834.81	135.291
2837.03	135.386
2839.24	140.596
2841.46	144.109
2843.67	125.444
2845.89	123.847
2848.1	127.379
2850.31	132.638
2852.53	136.213
2854.74	143.244
2856.95	141.707
2859.16	128.123
2861.37	135.184
2863.57	138.83
2865.78	142.502
2867.99	137.537
2870.19	136.018
2872.4	131.019
2874.6	146.865
2876.81	131.431
2879.01	149.083
2881.21	140.605
2883.41	139.105
2885.61	139.359
2887.81	136.092
2890.01	127.528
2892.21	143.598
2894.41	147.365
2896.6	121.115
2898.8	131.973
2901	139.312
2903.19	130.649
2905.38	139.75
2907.58	118.564
2909.77	141.948
2911.96	143.904
2914.15	136.906
2916.34	151.387
2918.53	128.25
2920.72	137.389
2922.91	135.762
2925.09	139.549
2927.28	125.325
2929.47	145.373
2931.65	138.357
2933.83	156.649
2936.02	136.889
2938.2	138.844
2940.38	135.338
2942.56	142.74
2944.74	150.145
2946.92	148.426
2949.1	143.062
2951.28	135.873
2953.46	139.621
2955.63	132.415
2957.81	158.093
2959.98	141.745
2962.16	147.344
2964.33	151.123
2966.5	140.253
2968.68	153.223
2970.85	142.344
2973.02	135.124
2975.19	140.772
2977.36	146.43
2979.52	153.941
2981.69	139.336
2983.86	135.804
2986.03	150.771
2988.19	136.149
2990.36	145.609
2992.52	153.247
2994.68	147.88
2996.85	144.373
2999.01	139
3001.17	148.567
3003.33	145.072
3005.49	165.947
3007.65	151.2
3009.8	145.805
3011.96	153.556
3014.12	138.712
3016.27	159.752
3018.43	154.361
3020.58	137.565
3022.74	143.503
3024.89	155.148
3027.04	147.737
3029.19	146.02
3031.34	142.378
3033.49	142.534
3035.64	152.248
3037.79	148.539
3039.94	152.546
3042.09	154.625
3044.23	149
3046.38	135.661
3048.52	143.482
3050.67	149.386
3052.81	145.653
3054.95	138.062
3057.09	143.989
3059.24	159.592
3061.38	163.604
3063.51	154.058
3065.65	165.832
3067.79	156.271
3069.93	166.122
3072.07	152.655
3074.2	148.901
3076.34	145.143
3078.47	162.83
3080.61	153.221
3082.74	153.363
3084.87	161.355
3087	153.71
3089.14	149.99
3091.27	150.203
3093.39	160.263
3095.52	144.768
3097.65	168.68
3099.78	157.096
3101.91	151.423
3104.03	155.659
3106.16	149.989
3108.28	180.128
3110.41	156.549
3112.53	164.856
3114.65	145.153
3116.77	153.463
3118.89	161.805
3121.01	160.129
3123.13	160.471
3125.25	156.777
3127.37	159.161
3129.49	163.6
3131.61	155.855
3133.72	168.49
3135.84	177.087
3137.95	159.037
3140.06	140.885
3142.18	167.987
3144.29	162.139
3146.4	168.671
3148.51	177.296
3150.62	154.763
3152.73	167.488
3154.84	165.659
3156.95	174.25
3159.06	176.596
3161.16	174.765
3163.27	170.835
3165.37	173.171
3167.48	167.094
3169.58	165.196
3171.69	178.09
3173.79	169.88
3175.89	165.832
3177.99	172.324
3180.09	183.043
3182.19	174.704
3184.29	157.867
3186.39	189.77
3188.49	185.603
3190.58	179.362
3192.68	183.758
3194.77	171.161
3196.87	173.478
3198.96	177.985
3201.06	180.445
3203.15	197.874
3205.24	189.662
3207.33	172.863
3209.42	190.422
3211.51	186.497
3213.6	197.69
3215.69	187.3
3217.78	189.868
3219.86	196.769
3221.95	210.235
3224.04	184.458
3226.12	182.646
3228.2	191.777
3230.29	189.948
3232.37	192.524
3234.45	190.66
3236.53	195.408
3238.61	193.56
3240.7	189.518
3242.77	189.904
3244.85	199.244
3246.93	192.936
3249.01	184.364
3251.08	193.59
3253.16	178.177
3255.23	189.605
3257.31	176.342
3259.38	203.622
3261.46	199.45
3263.53	188.517
3265.6	186.639
3267.67	209.904
3269.74	182.967
3271.81	187.976
3273.88	192.849
3275.95	181.611
3278.02	186.375
3280.08	193.432
3282.15	205.086
3284.21	200.708
3286.28	205.502
3288.34	224.091
3290.41	210.501
3292.47	233.719
3294.53	206.267
3296.59	201.831
3298.65	202.015
3300.71	188.375
3302.77	195.496
3304.83	193.374
3306.89	207.473
3308.95	196.068
3311	203.21
3313.06	194.081
3315.11	203.573
3317.17	196.767
3319.22	180.651
3321.27	194.845
3323.33	218.449
3325.38	209.359
3327.43	197.929
3329.48	193.5
3331.53	212.623
3333.58	224.783
3335.63	208.673
3337.67	213.767
3339.72	206.966
3341.77	202.476
3343.81	205.057
3345.86	217.131
3347.9	210.171
3349.95	219.876
3351.99	227.208
3354.03	217.875
3356.07	215.732
3358.11	227.908
3360.15	211.437
3362.19	211.685
3364.23	209.518
3366.27	233.706
3368.31	221.956
3370.34	219.795
3372.38	229.625
3374.42	220.199
3376.45	239.635
3378.48	225.346
3380.52	225.504
3382.55	225.654
3384.58	208.894
3386.61	223.521
3388.64	213.98
3390.68	209.254
3392.7	216.626
3394.73	240.983
3396.76	226.617
3398.79	226.788
3400.82	222.085
3402.84	217.339
3404.87	229.586
3406.89	222.408
3408.92	224.947
3410.94	229.893
3412.96	227.549
3414.98	222.768
3417	232.603
3419.03	237.567
3421.05	247.401
3423.06	245.044
3425.08	250.012
3427.1	255.011
3429.12	218.526
3431.14	230.876
3433.15	199.248
3435.17	226.31
3437.18	219.15
3439.2	214.443
3441.21	217.089
3443.22	212.39
3445.23	220.005
3447.25	217.826
3449.26	223.027
3451.27	228.24
3453.28	218.671
3455.28	223.949
3457.29	231.757
3459.3	252.02
3461.31	230.076
3463.31	227.99
3465.32	215.913
3467.32	241.3
3469.33	214.157
3471.33	229.564
3473.33	219.787
3475.34	194.954
3477.34	217.926
3479.34	238.442
3481.34	231.218
3483.34	229.024
3485.34	226.818
3487.33	206.833
3489.33	219.823
3491.33	222.667
3493.32	217.863
3495.32	218.123
3497.32	210.707
3499.31	205.818
3501.3	216.258
3503.3	208.756
3505.29	224.313
3507.28	227.031
3509.27	178.375
3511.26	222.084
3513.25	204.179
3515.24	209.381
3517.23	201.732
3519.22	191.508
3521.2	212.132
3523.19	214.767
3525.18	219.992
3527.16	209.785
3529.15	212.404
3531.13	209.934
3533.11	197.21
3535.1	212.877
3537.08	200.196
3539.06	195.271
3541.04	195.478
3543.02	206.03
3545	201.02
3546.98	208.969
3548.96	196.13
3550.93	193.639
3552.91	201.449
3554.89	193.712
3556.86	186.002
3558.84	180.902
3560.81	194.041
3562.78	188.969
3564.76	183.904
3566.73	181.466
3568.7	184.298
3570.67	208.036
3572.64	182.054
3574.61	169.145
3576.58	179.853
3578.55	190.608
3580.52	177.714
3582.48	185.887
3584.45	186.166
3586.41	189.088
3588.38	173.474
3590.35	181.684
3592.31	176.635
3594.27	176.891
3596.23	179.813
3598.2	177.396
3600.16	180.292
3602.12	167.15
3604.08	167.359
3606.04	170.234
3608	165.053
3609.95	167.908
3611.91	151.942
3613.87	176.338
3615.83	173.809
3617.78	165.887
3619.74	182.225
3621.69	168.829
3623.64	179.704
3625.6	163.543
3627.55	163.597
3629.5	155.528
3631.45	171.781
3633.4	158.287
3635.35	166.456
3637.3	166.532
3639.25	158.508
3641.2	166.778
3643.15	177.796
3645.09	167.104
3647.04	164.587
3648.98	153.743
3650.93	153.817
3652.87	167.527
3654.82	156.703
3656.76	154.049
3658.7	170.483
3660.64	145.995
3662.58	159.694
3664.53	167.953
3666.47	159.841
3668.4	168.129
3670.34	146.329
3672.28	149.136
3674.22	160.192
3676.16	160.319
3678.09	165.952
3680.03	155.137
3681.96	158.062
3683.9	147.25
3685.83	144.698
3687.76	155.939
3689.69	172.742
3691.63	150.848
3693.56	145.504
3695.49	159.552
3697.42	159.769
3699.35	143.289
3701.28	143.487
3703.2	140.869
3705.13	149.443
3707.06	149.654
3708.98	149.862
3710.91	158.482
3712.83	155.889
3714.76	156.08
3716.68	150.626
3718.6	145.15
3720.53	145.298
3722.45	139.791
3724.37	139.919
3726.29	159.841
3728.21	154.317
3730.13	137.448
3732.05	137.581
3733.97	154.75
3735.88	143.529
3737.8	160.73
3739.72	146.635
3741.63	163.852
3743.55	132.614
3745.46	146.986
3747.38	144.235
3749.29	138.612
3751.2	147.268
3753.11	147.34
3755.02	138.815
3756.93	147.452
3758.84	150.359
3760.75	147.531
3762.66	141.836
3764.57	136.133
3766.48	147.63
3768.39	156.281
3770.29	147.737
3772.2	153.543
3774.1	139.253
3776.01	150.803
3777.91	150.88
3779.81	133.716
3781.72	165.461
3783.62	148.311
3785.52	142.664
3787.42	142.769
3789.32	125.548
3791.22	142.962
3793.12	151.747
3795.02	146.099
3796.92	160.723
3798.81	149.289
3800.71	149.444
3802.61	137.983
3804.5	143.953
3806.4	141.208
3808.29	144.288
3810.18	153.202
3812.08	150.439
3813.97	147.668
3815.86	130.252
3817.75	156.751
3819.64	148.104
3821.53	142.369
3823.42	142.492
3825.31	145.539
3827.2	133.885
3829.09	145.78
3830.97	148.866
3832.86	143.107
3834.75	137.332
3836.63	158.141
3838.52	146.436
3840.4	146.55
3842.28	140.802
3844.17	132.002
3846.05	152.847
3847.93	135.08
3849.81	144.037
3851.69	147.059
3853.57	158.974
3855.45	156.044
3857.33	138.223
3859.21	147.137
3861.08	150.126
3862.96	132.32
3864.84	117.531
3866.71	141.481
3868.59	144.65
3870.46	117.93
3872.34	135.881
3874.21	141.891
3876.08	141.936
3877.95	144.968
3879.82	150.994
3881.69	139.082
3883.56	142.128
3885.44	136.204
3887.3	145.254
3889.17	136.34
3891.04	151.409
3892.91	133.514
3894.77	148.662
3896.64	124.741
3898.51	160.932
3900.37	139.986
3902.23	149.134
3904.1	131.147
3905.96	128.228
3907.82	146.426
3909.69	128.404
3911.55	134.563
3913.41	128.623
3915.27	137.828
3917.13	134.934
3918.99	129.011
3920.84	138.286
3922.7	147.586
3924.56	141.665
3926.42	135.722
3928.27	138.919
3930.13	132.948
3931.98	139.187
3933.84	148.476
3935.69	139.394
3937.54	145.622
3939.4	133.469
3941.25	139.735
3943.1	139.885
3944.95	133.868
3946.8	143.236
3948.65	143.366
3950.5	143.479
3952.35	162.109
3954.19	131.319
3956.04	143.772
3957.89	150.039
3959.73	147.007
3961.58	137.776
3963.42	128.537
3965.27	140.97
3967.11	156.494
3968.96	144.113
3970.8	137.932
3972.64	147.256
3974.48	137.981
3976.32	134.902
3978.16	134.917
3980	122.512
3981.84	119.403
3983.68	131.802
3985.52	119.396
3987.36	134.895
3989.19	141.098
3991.03	128.709
3992.86	147.35
3994.7	131.878
3996.53	131.932
3998.37	147.525
