#Acq. time (s)=	30
#Accumulations=	2
#Range (cm-¹)=	99...1000
#Windows=	2
#Auto scanning=	Off
#Autofocus=	Off
#Macrospot=	Off
#AutoExposure=	Off
#Spike filter=	Multiple accum.
#Delay time (s)=	2
#Binning=	1
#Readout mode=	Signal
#DeNoise=	Off
#ICS correction=	On
#Dark correction=	Off
#Inst. Process=	Off
#Detector Gain=	Best Dynamic
#Detector ADC=	50 kHz HS
#Detector temperature (°C)=	-60.09
#Instrument=	LabRAM HR Evol
#Detector=	SIN-EM FIVIS
#Objective=	x100_VIS_LWD
#Grating=	1800 (450-850nm)
#ND Filter=	10%
#Laser=	532nm_Edge
#Hole=	49.98
#Temperature=	0
#Range=	Visible
#StageXY=	75x50mm Scan+
#StageZ=	Z motor
#X (µm)=	0
#Y (µm)=	0
#Z (µm)=	-45.7
#Full time(mm:ss)=	2:09
#Project=	21_11_26
#Sample=	BU19(2)w
#Site=	
#Title=	BU19(2)w-A-FF1-FI01-S_1800 (450-850nm)_532nm_Edge_10%_x100_VIS_LWD_H50um_30sX2
#Remark=	
#Date=	26.11.2021 11:52
#Acquired=	26.11.2021 11:52:27
102.198	132.882
102.52	151.428
102.842	140.106
103.164	142.995
103.486	151.584
103.808	151.618
104.128	148.725
104.45	140.184
104.772	148.738
105.093	138.795
105.415	145.935
105.735	143.082
106.057	153.046
106.379	133.122
106.701	150.26
107.023	136.017
107.344	130.326
107.664	141.708
107.986	151.652
108.308	145.886
108.629	144.354
108.951	144.282
109.271	152.765
109.593	147.036
109.914	152.682
110.236	141.299
110.558	139.851
110.877	149.785
111.199	139.863
111.521	146.957
111.843	139.835
112.162	141.22
112.484	152.529
112.805	138.294
113.127	135.409
113.449	156.615
113.768	131.045
114.09	139.457
114.411	160.593
114.733	160.48
115.052	143.422
115.374	140.521
115.695	140.452
116.017	133.308
116.336	148.736
116.658	141.606
116.979	134.465
117.301	144.21
117.62	149.731
117.942	139.793
118.263	131.288
118.585	143.861
118.904	143.79
119.225	146.533
119.547	142.274
119.868	140.83
120.187	154.796
120.509	140.769
120.83	147.769
121.149	139.356
121.471	135.142
121.792	142.126
122.113	135.106
122.433	142.09
122.754	150.464
123.075	146.227
123.397	144.783
123.716	141.94
124.037	140.501
124.358	150.254
124.677	139.076
124.999	151.643
125.32	158.586
125.639	133.395
125.96	145.905
126.281	144.431
126.602	130.403
126.921	144.288
127.243	147.007
127.564	148.33
127.883	146.885
128.204	145.457
128.525	138.484
128.844	139.886
129.165	153.853
129.486	142.74
129.805	142.746
130.126	139.969
130.447	134.404
130.766	145.543
131.087	138.559
131.408	130.169
131.727	142.683
132.048	146.845
132.369	137.085
132.688	149.597
133.009	141.237
133.33	137.076
133.648	146.818
133.969	139.848
134.29	144.01
134.609	142.582
134.93	135.598
135.249	142.536
135.57	136.975
135.89	145.33
136.209	135.598
136.53	148.127
136.851	146.736
137.169	146.753
137.49	149.54
137.811	137.012
138.13	135.604
138.45	159.221
138.769	149.457
139.09	161.988
139.411	148.114
139.729	157.911
140.05	146.869
140.368	170.68
140.689	147.087
141.01	147.156
141.328	147.229
141.649	147.319
141.968	145.959
142.288	148.752
142.609	151.487
142.927	150.062
143.248	141.595
143.566	134.529
143.887	155.374
144.207	133.041
144.526	135.808
144.846	134.424
145.165	127.523
145.485	133.114
145.804	134.539
146.124	133.208
146.445	138.871
146.763	127.71
147.084	117.939
147.402	136.079
147.722	133.281
148.041	126.293
148.361	126.275
148.682	131.829
149	137.372
149.32	108.053
149.638	124.737
149.959	130.276
150.277	126.058
150.597	126.027
150.916	132.962
151.236	137.117
151.554	132.924
151.874	127.352
152.195	119.024
152.513	128.79
152.833	125.995
153.151	123.184
153.472	125.925
153.79	124.481
154.11	118.864
154.428	120.201
154.748	124.313
155.066	117.327
155.387	117.298
155.705	120.057
156.025	124.254
156.343	121.535
156.663	125.713
156.981	132.661
157.301	136.825
157.619	115.992
157.939	117.368
158.257	124.293
158.577	114.571
158.895	115.952
159.215	128.427
159.533	114.517
159.853	125.576
160.171	110.29
160.491	122.753
160.809	122.746
161.129	122.737
161.447	133.8
161.767	133.759
162.085	132.345
162.404	122.634
162.722	123.995
163.042	128.115
163.36	130.847
163.678	122.505
163.998	137.673
164.315	132.097
164.635	134.827
164.953	123.751
165.273	129.269
165.591	122.357
165.91	140.32
166.228	125.116
166.548	127.874
166.866	126.478
167.183	131.986
167.503	116.769
167.821	130.556
168.14	129.157
168.458	122.233
168.778	123.59
169.095	134.596
169.413	122.161
169.733	117.949
170.05	119.241
170.37	127.459
170.687	124.679
171.007	119.172
171.325	123.329
171.642	110.95
171.962	123.374
172.279	124.792
172.599	119.332
172.916	122.102
173.234	116.583
173.553	123.469
173.871	115.189
174.19	123.452
174.508	116.555
174.825	112.415
175.145	122.056
175.462	117.915
175.781	123.402
176.099	122.016
176.416	123.404
176.736	133.067
177.053	115.157
177.37	122.065
177.69	122.094
178.007	122.108
178.326	130.373
178.644	117.929
178.961	124.769
179.28	124.724
179.597	119.175
179.915	126.017
180.234	121.85
180.551	130.067
180.868	128.658
181.188	125.878
181.505	120.341
181.824	124.47
182.141	128.621
182.458	120.436
182.778	128.773
183.095	130.294
183.412	133.199
183.731	124.97
184.048	127.69
184.365	127.663
184.684	126.219
185.001	126.118
185.318	123.284
185.638	121.965
185.955	137.152
186.272	145.444
186.591	138.562
186.908	128.923
187.225	131.676
187.542	137.182
187.861	133.057
188.178	128.933
188.495	119.298
188.814	137.215
189.131	127.566
189.448	134.422
189.767	130.19
190.083	145.259
190.4	141.158
190.717	132.971
191.036	141.333
191.353	144.259
191.67	132.04
191.989	127.904
192.305	144.464
192.622	136.257
192.939	127.98
193.258	143.176
193.575	139.019
193.891	144.518
194.21	127.908
194.527	133.411
194.844	133.398
195.16	134.765
195.479	137.504
195.796	140.24
196.113	137.465
196.429	136.076
196.748	129.176
197.065	138.851
197.381	133.348
197.698	131.981
198.017	143.04
198.333	136.16
198.65	136.168
198.966	136.157
199.285	140.292
199.602	138.907
199.918	133.387
200.235	140.262
200.553	141.615
200.87	140.204
201.186	141.55
201.503	138.754
201.819	145.618
202.138	149.718
202.454	155.185
202.771	148.244
203.087	149.565
203.406	149.504
203.722	145.318
204.039	145.296
204.355	141.145
204.671	138.375
204.99	131.488
205.306	146.629
205.623	154.914
205.939	150.824
206.255	145.345
206.574	143.997
206.89	144.042
207.206	145.465
207.523	156.507
207.839	141.363
208.157	153.748
208.474	157.849
208.79	144.035
209.106	160.497
209.422	141.188
209.738	126.018
210.057	145.236
210.373	142.439
210.689	136.908
211.005	149.248
211.321	153.35
211.638	161.58
211.956	145.091
212.272	145.089
212.588	151.945
212.904	147.771
213.22	144.998
213.536	144.961
213.852	147.683
214.171	158.636
214.487	144.887
214.803	151.706
215.119	154.402
215.435	154.352
215.751	152.929
216.067	162.459
216.385	156.921
216.701	148.666
217.017	140.447
217.333	144.524
217.649	137.633
217.965	162.192
218.281	166.253
218.596	142.988
218.914	142.958
219.23	152.754
219.546	152.992
219.862	161.055
220.178	151.486
220.494	152.864
220.81	146
221.125	156.926
221.441	156.896
221.757	151.384
222.075	165.021
222.391	155.414
222.706	159.488
223.022	155.361
223.338	158.075
223.654	156.714
223.969	155.374
224.285	160.876
224.601	158.183
224.917	165.071
225.232	174.708
225.548	163.813
225.866	167.958
226.181	167.991
226.497	162.542
226.813	169.392
227.128	152.93
227.444	158.367
227.759	154.22
228.075	161.014
228.391	152.781
228.706	171.918
229.022	155.476
229.337	169.123
229.653	169.097
229.968	160.885
230.284	160.88
230.599	170.45
230.915	162.254
231.23	163.646
231.546	163.653
231.861	177.333
232.179	162.225
232.494	167.586
232.81	171.603
233.125	171.545
233.44	170.125
233.756	159.168
234.071	165.993
234.387	155.107
234.702	172.923
235.017	152.557
235.333	162.198
235.648	156.768
235.963	158.175
236.279	159.587
236.594	161.005
236.909	174.744
237.224	162.482
237.54	158.423
237.855	169.41
238.17	170.781
238.485	165.328
238.801	172.213
239.116	158.553
239.431	169.57
239.746	154.513
240.061	168.258
240.377	165.568
240.692	168.333
241.005	162.874
241.32	165.63
241.635	168.364
241.95	169.681
242.265	154.548
242.58	175.07
242.896	169.546
243.211	158.556
243.526	176.348
243.841	169.455
244.156	150.247
244.471	169.402
244.786	155.705
245.101	172.135
245.416	159.812
245.731	169.424
246.046	151.647
246.361	157.146
246.676	168.122
246.991	162.702
247.306	172.331
247.618	151.773
247.933	173.694
248.248	164.071
248.563	162.663
248.878	155.738
249.193	173.505
249.508	180.31
249.823	162.482
250.137	170.669
250.452	165.188
250.767	169.272
251.082	152.798
251.395	169.178
251.709	173.286
252.024	166.46
252.339	176.144
252.654	167.965
252.968	162.515
253.283	163.893
253.598	158.422
253.913	165.271
254.225	165.263
254.54	161.111
254.854	165.191
255.169	173.362
255.484	163.731
255.798	166.438
256.113	156.863
256.428	166.449
256.742	159.623
257.055	158.305
257.369	158.416
257.684	158.463
257.999	158.479
258.313	155.747
258.628	151.641
258.942	157.103
259.255	166.638
259.569	150.12
259.884	161.017
260.198	156.87
260.513	152.733
260.827	154.079
261.14	151.325
261.454	155.392
261.768	159.454
262.083	156.706
262.397	158.061
262.712	153.921
263.026	149.79
263.338	152.534
263.653	166.205
263.967	157.993
264.281	157.97
264.596	151.162
264.908	156.649
265.222	143.062
265.537	156.822
265.851	144.685
266.165	159.864
266.478	144.756
266.792	162.308
267.106	145.526
267.42	148.035
267.735	153.418
268.047	147.958
268.361	141.128
268.675	145.322
268.989	150.828
269.303	154.903
269.616	149.365
269.93	149.332
270.244	153.422
270.558	147.977
270.872	128.92
271.184	147.958
271.498	150.663
271.812	145.2
272.126	157.41
272.438	138.332
272.753	145.076
273.067	134.145
273.381	142.239
273.693	155.768
274.007	138.075
274.321	152.944
274.635	147.461
274.949	141.98
275.261	145.983
275.575	143.211
275.888	141.811
276.2	147.188
276.514	140.391
276.828	145.785
277.142	136.309
277.454	144.422
277.768	149.825
278.082	149.815
278.396	144.378
278.707	145.697
279.021	134.871
279.335	136.235
279.649	145.734
279.961	153.877
280.274	140.359
280.588	149.824
280.9	159.276
281.214	140.325
281.528	141.657
281.841	140.283
282.153	152.414
282.467	141.573
282.78	130.735
283.092	137.463
283.406	150.954
283.719	144.189
284.031	144.167
284.345	146.848
284.658	142.778
284.97	149.521
285.284	137.375
285.597	138.729
285.911	141.436
286.222	149.547
286.536	123.897
286.85	133.344
287.161	137.391
287.475	134.713
287.788	138.767
288.1	136.066
288.413	130.672
288.727	137.437
289.038	129.352
289.352	141.549
289.665	140.242
289.977	144.312
290.29	134.848
290.601	137.549
290.915	141.603
291.228	148.389
291.54	147.059
291.853	138.958
292.167	140.331
292.478	143.06
292.791	148.487
293.105	134.986
293.416	137.69
293.729	137.703
294.04	152.631
294.354	135.106
294.667	143.271
294.978	124.338
295.292	139.264
295.605	146.027
295.916	139.228
296.229	131.067
296.541	133.744
296.854	139.159
297.167	141.875
297.478	150.009
297.792	137.833
298.103	141.898
298.416	139.186
298.729	141.889
299.04	135.154
299.353	124.335
299.664	147.376
299.978	144.687
300.291	131.162
300.602	143.379
300.915	142.045
301.226	133.924
301.539	148.84
301.85	135.273
302.163	135.248
302.476	144.723
302.787	146.084
303.1	144.747
303.411	131.203
303.724	139.361
304.035	147.49
304.348	148.845
304.661	136.653
304.972	143.452
305.285	132.633
305.596	136.718
305.909	136.744
306.219	129.998
306.532	147.682
306.843	134.156
307.156	130.127
307.467	146.473
307.78	134.29
308.093	142.486
308.403	137.076
308.716	146.573
309.027	141.128
309.34	139.804
309.651	149.363
309.963	152.126
310.274	135.828
310.587	130.409
310.898	137.235
311.21	134.512
311.521	144.029
311.834	138.583
312.144	138.587
312.457	142.68
312.768	134.531
313.081	139.991
313.391	138.623
313.704	145.404
314.014	131.774
314.327	138.547
314.638	135.773
314.95	141.174
315.261	130.295
315.573	150.692
315.884	130.293
316.197	130.289
316.507	137.092
316.82	126.231
317.13	143.934
317.443	143.973
317.753	130.412
318.064	135.905
318.376	127.799
318.687	142.858
318.999	140.202
319.309	142.983
319.622	130.729
319.932	140.289
320.245	123.93
320.555	129.383
320.868	137.557
321.178	125.249
321.488	137.481
321.801	130.626
322.111	126.498
322.423	138.715
322.734	138.671
323.046	112.766
323.356	127.696
323.669	124.934
323.979	118.091
324.289	126.206
324.602	138.393
324.912	139.707
325.224	126.083
325.534	128.758
325.844	126.003
326.157	130.028
326.467	134.045
326.779	128.579
327.089	140.742
327.401	140.705
327.712	133.908
328.022	133.897
328.334	133.876
328.644	132.482
328.956	133.794
329.266	128.351
329.576	129.662
329.888	132.314
330.198	126.859
330.509	129.515
330.821	120.005
331.131	133.449
331.443	137.447
331.753	142.773
332.063	130.562
332.375	137.255
332.685	143.957
332.995	143.954
333.307	127.804
333.617	145.335
333.929	121.102
334.238	138.648
334.548	131.948
334.86	133.329
335.17	136.091
335.48	123.966
335.792	144.172
336.102	137.347
336.412	134.522
336.724	130.307
337.033	142.143
337.343	136.589
337.655	123.062
337.965	134.995
338.275	138.915
338.587	147.113
338.896	133.787
339.206	144.504
339.518	149.86
339.828	139.142
340.137	145.836
340.449	133.782
340.759	143.158
341.068	136.432
341.38	144.381
341.69	134.97
341.999	133.587
342.309	145.596
342.621	141.552
342.93	126.825
343.24	146.851
343.552	138.818
343.861	138.81
344.171	138.808
344.483	136.117
344.792	137.409
345.102	133.346
345.411	134.613
345.723	137.208
346.032	130.474
346.342	134.409
346.653	143.649
346.963	134.238
347.272	142.14
347.582	138.087
347.893	143.332
348.203	151.223
348.512	129.918
348.822	132.525
349.133	137.797
349.442	136.447
349.752	136.433
350.061	149.682
350.373	132.441
350.682	144.353
350.991	140.35
351.301	128.391
351.612	141.588
351.921	136.247
352.231	150.767
352.54	136.174
352.851	144.075
353.161	144.038
353.47	133.428
353.779	129.433
354.088	132.059
354.4	142.654
354.709	140.046
355.018	133.476
355.327	128.202
355.639	133.5
355.948	140.125
356.257	140.133
356.566	134.828
356.875	130.852
357.186	145.401
357.496	144.089
357.805	145.427
358.114	152.055
358.423	144.126
358.734	150.741
359.043	148.082
359.352	142.758
359.661	136.128
359.97	140.074
360.281	141.397
360.59	150.666
360.899	144.071
361.208	142.77
361.517	138.835
361.826	138.854
362.137	145.473
362.446	154.752
362.755	142.858
363.064	146.84
363.373	142.898
363.682	146.876
363.993	140.254
364.302	150.804
364.611	140.134
364.92	141.337
365.229	153.14
365.538	142.572
365.846	137.344
366.157	145.317
366.466	145.377
366.775	148.087
367.084	134.884
367.393	141.51
367.701	134.914
368.01	150.908
368.321	148.288
368.63	153.584
368.938	158.883
369.247	142.94
369.556	141.619
369.865	150.873
370.173	142.94
370.482	141.617
370.793	138.98
371.101	153.579
371.41	129.78
371.719	145.734
372.027	156.405
372.336	140.59
372.645	156.538
372.953	147.267
373.262	153.903
373.57	143.269
373.881	156.502
374.19	143.133
374.498	149.709
374.807	149.734
375.115	149.853
375.424	153.129
375.732	147.986
376.041	149.682
376.349	147.873
376.658	144.874
376.966	143.699
377.275	143.596
377.583	160.748
377.892	147.717
378.202	155.742
378.511	155.727
378.819	146.388
379.127	151.651
379.436	163.594
379.744	150.285
380.053	148.977
380.361	154.333
380.669	141.044
380.978	151.712
381.286	154.406
381.594	151.767
381.903	154.408
382.211	162.418
382.519	149.145
382.827	153.184
383.136	157.219
383.444	161.246
383.752	154.598
384.061	154.611
384.369	159.964
384.677	158.652
384.985	138.669
385.293	162.687
385.602	157.359
385.91	160.051
386.218	161.394
386.526	152.038
386.834	152.015
387.142	174.693
387.45	157.381
387.759	170.748
388.067	160.105
388.375	168.144
388.683	176.187
388.991	173.552
389.299	165.582
389.607	166.959
389.915	165.647
390.223	169.673
390.531	171.015
390.839	156.293
391.147	172.293
391.455	169.603
391.763	158.911
392.071	169.573
392.379	174.906
392.687	166.915
392.995	170.961
393.303	166.988
393.611	167.007
393.919	188.422
394.227	167.069
394.534	176.44
394.842	165.746
395.15	177.762
395.458	177.721
395.764	192.38
396.072	166.969
396.38	181.643
396.687	177.627
396.995	173.617
397.303	184.289
397.611	164.237
397.918	178.882
398.226	181.524
398.534	185.491
398.842	181.441
399.149	174.711
399.457	174.644
399.765	167.94
400.071	170.566
400.378	193.167
400.686	185.123
400.994	197.048
401.301	181.012
401.609	192.912
401.917	190.195
402.224	200.793
402.532	182.124
402.839	195.36
403.145	186.037
403.453	187.337
403.76	187.283
404.068	183.276
404.375	197.886
404.683	207.189
404.99	207.198
405.298	195.262
405.603	205.923
405.911	207.28
406.218	207.278
406.526	207.284
406.833	201.965
407.141	212.571
407.448	216.509
407.754	213.794
408.061	207.079
408.368	204.314
408.676	204.198
408.983	210.74
409.291	226.546
409.598	211.87
409.903	223.675
410.211	211.677
410.518	203.66
410.825	227.375
411.133	208.81
411.44	228.583
411.745	225.929
412.053	229.905
412.36	231.198
412.667	220.605
412.974	228.5
413.282	227.151
413.587	239.003
413.894	224.441
414.201	205.903
414.509	226.968
414.816	217.711
415.121	228.206
415.428	241.306
415.735	230.662
416.042	222.657
416.35	243.625
416.655	246.159
416.962	231.608
417.269	249.982
417.576	236.797
417.883	243.316
418.188	232.688
418.495	236.501
418.802	250.814
419.109	249.374
419.414	249.265
419.721	250.438
420.029	242.402
420.336	242.213
420.643	266.904
420.948	249.776
421.254	232.672
421.561	256.121
421.868	239.118
422.173	240.444
422.48	247.054
422.787	231.518
423.094	257.712
423.399	264.299
423.706	247.336
424.013	263.049
424.32	248.611
424.625	264.217
424.931	266.751
425.238	254.879
425.545	259.984
425.85	267.658
426.157	272.709
426.464	266.012
426.768	261.928
427.075	270.912
427.382	251.308
427.689	264.267
427.993	272.006
428.3	275.824
428.607	261.448
428.912	265.295
429.218	282.152
429.525	266.532
429.832	267.803
430.136	275.56
430.443	271.621
430.75	267.69
431.054	271.541
431.361	266.261
431.668	268.746
431.972	264.756
432.279	275.06
432.585	251.66
432.89	265.892
433.197	267.163
433.503	276.208
433.81	277.44
434.114	260.524
434.421	277.315
434.727	263.049
435.032	265.646
435.338	266.946
435.645	265.644
435.949	261.728
436.256	268.177
436.56	278.503
436.867	274.576
437.173	274.509
437.478	274.446
437.784	269.238
438.09	258.869
438.395	278.268
438.701	275.693
439.008	283.43
439.312	287.265
439.618	289.775
439.925	292.268
440.229	267.628
440.535	284.371
440.84	276.579
441.146	263.617
441.452	264.866
441.757	271.282
442.063	272.544
442.369	251.873
442.673	249.287
442.98	254.461
443.284	281.593
443.59	280.341
443.896	261.048
444.201	272.753
444.507	279.258
444.811	274.095
445.117	265.043
445.423	266.345
445.727	256.021
446.034	257.314
446.338	254.724
446.644	261.169
446.95	262.433
447.254	246.889
447.56	263.624
447.864	257.106
448.17	245.437
448.474	251.849
448.78	264.794
449.086	238.912
449.39	255.608
449.696	245.258
450	236.175
450.306	221.983
450.61	242.56
450.916	247.812
451.22	241.487
451.526	240.429
451.832	243.337
452.136	235.894
452.442	247.562
452.746	237.127
453.052	221.444
453.356	234.151
453.662	231.234
453.966	230.82
454.272	244.137
454.575	236.42
454.881	233.81
455.185	214.446
455.491	232.509
455.795	235.089
456.101	211.858
456.406	219.616
456.71	228.707
457.016	221.007
457.32	218.494
457.625	209.507
457.929	219.931
458.235	214.838
458.539	212.35
458.844	211.155
459.148	211.248
459.454	208.716
459.757	211.365
460.063	203.613
460.367	212.704
460.672	197.105
460.976	199.574
461.28	196.884
461.585	203.278
461.889	196.762
462.194	201.904
462.498	195.438
462.804	207.143
463.107	189.041
463.413	189.052
463.716	199.44
464.022	207.29
464.325	200.867
464.631	189.253
464.934	182.809
465.24	202.229
465.543	191.817
465.847	178.902
466.152	180.262
466.456	204.927
466.761	182.993
467.065	174.027
467.37	190.986
467.674	194.915
467.979	185.863
468.282	185.855
468.586	177.974
468.891	182.998
469.194	188.119
469.5	188.082
469.803	169.951
470.108	194.541
470.412	177.681
470.715	172.48
471.02	181.527
471.324	186.691
471.629	178.915
471.932	178.917
472.236	171.141
472.541	182.816
472.844	176.387
473.149	167.385
473.452	179.126
473.756	176.602
474.061	168.873
474.364	175.405
474.669	172.829
474.972	176.739
475.276	155.965
475.581	185.771
475.884	170.159
476.187	166.228
476.492	179.138
476.795	170.003
477.1	166.061
477.403	162.125
477.707	168.535
478.012	161.989
478.315	163.227
478.618	165.779
478.923	178.699
479.226	165.772
479.529	169.658
479.834	164.483
480.137	158.004
480.44	172.217
480.745	156.691
481.048	163.162
481.351	165.761
481.656	156.762
481.959	151.64
482.261	164.548
482.566	167.041
482.869	164.411
483.172	161.826
483.477	152.777
483.78	159.233
484.083	168.287
484.388	152.78
484.691	156.649
484.993	166.966
485.298	159.178
485.601	156.565
485.904	151.346
486.209	137.08
486.511	162.766
486.814	158.838
487.119	144.601
487.422	149.7
487.724	163.804
488.027	161.156
488.332	135.344
488.635	162.266
488.937	155.762
489.242	154.396
489.545	156.87
489.847	145.26
490.15	143.952
490.455	143.916
490.757	160.558
491.06	154.125
491.363	164.366
491.667	151.565
491.97	155.448
492.272	137.524
492.575	151.673
492.88	146.595
493.182	145.366
493.485	164.659
493.787	154.4
494.092	145.398
494.394	149.177
494.697	158.078
494.999	158.011
495.304	151.524
495.606	146.322
495.909	148.832
496.211	143.629
496.516	147.387
496.818	149.85
497.12	157.435
497.423	140.729
497.727	140.629
498.03	157.116
498.332	141.731
498.634	144.254
498.937	149.344
499.241	143.065
499.544	144.485
499.846	144.586
500.148	153.277
500.451	136.451
500.755	146.677
501.057	144.209
501.359	153.071
501.662	145.307
501.964	142.653
502.268	136.211
502.571	144.919
502.873	136.096
503.175	153.902
503.477	155.231
503.779	136.305
504.084	149.222
504.386	145.395
504.688	137.711
504.99	145.351
505.292	137.697
505.596	145.339
505.899	136.411
506.201	138.891
506.503	141.394
506.805	143.915
507.107	137.535
507.409	137.497
507.713	131.105
508.015	155.179
508.317	147.523
508.619	142.415
508.921	152.531
509.223	148.699
509.525	139.807
509.829	142.337
510.131	134.727
510.433	139.792
510.735	144.855
511.037	144.847
511.339	147.362
511.641	140.996
511.943	148.559
512.247	145.983
512.549	139.624
512.851	137.066
513.153	134.495
513.455	148.367
513.757	133.148
514.058	143.228
514.36	143.216
514.662	141.955
514.966	135.649
515.268	140.724
515.57	142.02
515.871	145.864
516.173	139.599
516.475	152.266
516.777	154.815
517.079	148.495
517.38	152.282
517.682	140.881
517.984	154.783
518.285	150.924
518.589	144.473
518.891	139.4
519.193	144.454
519.494	148.269
519.796	130.601
520.098	147.069
520.399	139.543
520.701	144.674
521.003	142.182
521.304	146.031
521.606	139.753
521.907	138.5
522.209	141.024
522.511	135.909
522.812	139.634
523.114	147.177
523.415	143.336
523.717	138.235
524.018	147.042
524.32	136.871
524.621	140.58
524.923	146.865
525.224	150.661
525.528	139.34
525.829	144.455
526.131	149.565
526.432	152.182
526.734	140.883
527.035	143.456
527.337	138.422
527.638	153.635
527.939	146.038
528.241	137.155
528.542	156.088
528.844	152.211
529.145	147.135
529.446	136.997
529.748	136.977
530.049	139.477
530.35	141.993
530.652	153.382
530.951	128.141
531.252	145.925
531.553	130.786
531.855	135.867
532.156	128.287
532.457	143.518
532.758	144.827
533.06	139.789
533.361	141.07
533.662	137.267
533.963	127.118
534.264	138.488
534.566	133.406
534.867	153.651
535.168	148.577
535.469	121.982
535.77	138.442
536.071	142.236
536.373	140.98
536.674	137.202
536.975	139.76
537.276	147.392
537.575	147.428
537.876	151.27
538.177	139.901
538.478	139.957
538.779	126.077
539.08	140.117
539.381	138.891
539.682	143.987
539.983	138.9
540.284	140.167
540.585	141.414
540.886	145.196
541.185	140.107
541.486	135.011
541.787	150.21
542.088	140.029
542.389	143.823
542.69	136.207
542.991	146.362
543.292	143.833
543.593	137.505
543.893	142.586
544.192	145.134
544.493	142.613
544.794	145.181
545.095	149.023
545.396	147.772
545.696	145.253
545.997	145.262
546.298	145.212
546.597	137.568
546.898	142.609
547.198	145.146
547.499	143.887
547.8	147.71
548.101	151.543
548.401	141.482
548.7	138.987
549.001	139.019
549.301	147.95
549.602	147.979
549.903	142.904
550.203	151.807
550.502	156.896
550.803	150.528
551.103	145.407
551.404	149.166
551.705	138.97
552.005	147.837
552.304	146.529
552.604	154.126
552.905	142.71
553.205	147.781
553.506	142.69
553.807	147.751
554.105	150.273
554.406	145.159
554.706	143.83
555.007	148.95
555.307	152.838
555.606	146.46
555.906	146.414
556.207	155.265
556.507	153.996
556.807	164.146
557.106	140.038
557.406	150.183
557.707	150.179
558.007	155.251
558.305	165.393
558.606	165.365
558.906	161.521
559.207	158.944
559.507	156.398
559.805	162.731
560.106	157.651
560.406	165.243
560.706	153.825
561.005	148.752
561.305	167.743
561.605	142.388
561.906	158.847
562.204	162.644
562.504	155.045
562.804	168.992
563.104	172.842
563.403	169.077
563.703	167.825
564.003	160.215
564.303	172.861
564.602	167.739
564.902	167.706
565.202	165.149
565.5	165.137
565.8	177.789
566.1	170.161
566.4	171.424
566.699	172.676
566.999	173.909
567.299	166.27
567.597	182.705
567.897	171.313
568.197	171.281
568.497	175.019
568.795	186.048
569.095	175.921
569.395	168.148
569.693	162.282
569.993	171.203
570.293	180.57
570.591	175.466
570.891	164.766
571.191	182.997
571.491	174.42
571.789	197.592
572.089	185.893
572.389	180.321
572.687	177.626
572.987	182.168
573.287	178.206
573.584	193.896
573.884	185.85
574.184	183.463
574.482	192.671
574.782	179.08
575.082	196.763
575.38	183.321
575.679	199.023
575.977	192.682
576.277	193.715
576.577	189.816
576.875	195.549
577.174	185.219
577.474	190.125
577.772	195.37
578.072	199.624
578.371	197.038
578.669	207.081
578.969	202.068
579.266	203.785
579.566	210.849
579.866	194.259
580.164	202.674
580.463	211.055
580.763	203.018
581.06	205.225
581.36	201.983
581.658	204.331
581.957	207.414
582.257	206.982
582.555	209.8
582.854	211.264
583.152	211.568
583.451	205.944
583.751	209.469
584.048	205.235
584.348	211.215
584.645	205.838
584.945	224.597
585.242	220.371
585.542	219.636
585.841	221.07
586.139	219.08
586.438	219.607
586.736	224.884
587.035	222.611
587.333	225.3
587.632	226.933
587.932	228.883
588.229	229.189
588.528	229.936
588.826	230.115
589.125	230.995
589.422	233.118
589.722	233.404
590.019	234.961
590.319	230.474
590.616	221.335
590.915	225.682
591.214	237.297
591.512	247.151
591.811	246.188
592.108	240.41
592.408	233.904
592.705	253.403
593.004	250.99
593.301	248.879
593.601	245.35
593.898	246.994
594.197	253.96
594.494	245.322
594.793	253.644
595.091	250.405
595.39	264.467
595.687	251.868
595.986	259.348
596.283	245.292
596.582	261.519
596.879	253.524
597.179	262.814
597.476	262.239
597.492	262.179
597.793	274.571
598.094	283.194
598.397	258.358
598.698	269.348
598.999	281.451
599.3	273.696
599.602	267.601
599.903	278.837
600.206	275.286
600.507	291.518
600.808	266.805
601.109	279.181
601.41	282.888
601.711	296.445
602.012	285.248
602.315	285.129
602.616	302.272
602.917	297.259
603.218	304.597
603.518	286.001
603.819	272.363
604.12	297
604.423	284.626
604.724	290.775
605.025	317.952
605.326	288.386
605.627	294.57
605.928	299.527
606.228	290.916
606.529	288.471
606.832	313.172
607.133	303.281
607.434	309.442
607.734	292.205
608.035	316.943
608.336	324.343
608.637	311.951
608.938	315.585
609.238	309.33
609.541	301.841
609.842	300.518
610.143	310.302
610.443	311.458
610.744	311.381
611.045	318.699
611.345	324.794
611.646	335.829
611.947	323.485
612.247	314.861
612.548	322.266
612.851	313.711
613.151	318.665
613.452	322.355
613.752	330.964
614.053	326.015
614.353	318.605
614.654	312.428
614.955	325.955
615.255	333.327
615.556	312.418
615.856	312.448
616.157	322.321
616.457	318.65
616.758	335.958
617.058	312.517
617.359	313.794
617.659	322.539
617.962	319.003
618.262	321.582
618.563	322.917
618.863	325.504
619.163	328.126
619.464	312.211
619.764	308.607
620.065	308.696
620.365	313.67
620.665	298.793
620.966	333.377
621.266	314.814
621.566	297.499
621.867	312.278
622.167	334.409
622.467	323.254
622.768	303.471
623.068	315.806
623.368	305.936
623.668	322.008
623.969	307.195
624.269	324.523
624.569	314.697
624.869	304.907
625.17	300.096
625.47	307.635
625.77	313.934
626.07	278.083
626.37	281.809
626.67	299.119
626.971	297.846
627.271	305.23
627.571	278.093
627.871	283.203
628.171	300.649
628.471	273.294
628.771	296.816
629.071	281.988
629.372	291.955
629.672	288.309
629.972	282.182
630.272	285.966
630.57	279.823
630.87	289.808
631.17	291.072
631.47	276.187
631.77	278.616
632.07	284.784
632.37	255.01
632.67	271.154
632.97	260.036
633.27	268.775
633.57	265.073
633.87	273.759
634.169	270.055
634.469	272.516
634.769	262.57
635.069	263.801
635.369	260.071
635.667	262.545
635.967	272.468
636.267	269.969
636.566	263.75
636.866	255.043
637.166	259.989
637.466	252.568
637.766	233.992
638.065	248.93
638.365	237.812
638.665	249.025
638.963	245.275
639.263	232.804
639.562	240.248
639.862	243.968
640.162	240.204
640.461	232.728
640.761	232.746
641.061	225.332
641.361	237.786
641.66	244.049
641.958	235.42
642.258	234.243
642.557	236.797
642.857	219.479
643.156	220.828
643.456	222.169
643.756	217.249
644.053	217.293
644.353	224.801
644.652	217.32
644.952	221.01
645.251	215.974
645.551	224.621
645.851	214.628
646.148	218.322
646.448	212.088
646.747	203.382
647.047	203.372
647.346	207.091
647.646	203.351
647.945	208.318
648.242	221.993
648.542	213.289
648.841	202.097
649.141	207.057
649.44	190.869
649.74	204.506
650.037	199.506
650.336	192.027
650.636	195.723
650.935	205.616
651.234	208.072
651.532	206.808
651.831	195.608
652.13	195.588
652.43	191.851
652.729	193.089
653.028	203.022
653.326	193.101
653.625	198.085
653.924	176.997
654.223	195.648
654.523	196.91
654.82	184.498
655.119	205.606
655.418	181.989
655.718	186.948
656.015	184.457
656.314	179.472
656.613	190.625
656.912	188.127
657.211	179.411
657.509	190.512
657.808	190.409
658.107	194.087
658.406	175.459
658.703	187.821
659.002	182.846
659.301	179.132
659.6	174.163
659.897	161.725
660.196	182.77
660.496	176.529
660.795	180.231
661.092	171.557
661.391	181.503
661.69	174.093
661.989	171.618
662.286	167.877
662.585	170.295
662.884	176.378
663.183	170.11
663.479	172.49
663.778	163.757
664.077	152.596
664.376	161.379
664.673	173.688
664.972	171.191
665.271	153.864
665.568	168.657
665.867	161.204
666.166	166.105
666.464	163.597
666.761	164.792
667.06	147.472
667.359	170.875
667.656	160.96
667.955	170.78
668.253	144.847
668.552	159.596
668.849	162.001
669.148	154.542
669.446	155.723
669.743	149.52
670.042	155.622
670.341	148.194
670.637	166.615
670.936	154.281
671.235	150.557
671.531	139.478
671.83	151.777
672.129	152.993
672.425	159.11
672.724	151.7
673.023	157.808
673.319	144.258
673.618	154.03
673.917	145.374
674.213	155.123
674.512	136.669
674.81	150.101
675.107	146.384
675.405	151.251
675.704	142.647
676.001	147.516
676.299	137.696
676.598	147.473
676.894	140.108
677.193	144.968
677.491	133.92
677.788	146.127
678.086	137.545
678.383	138.728
678.681	148.433
678.979	154.444
679.276	143.38
679.574	137.233
679.873	139.659
680.169	139.623
680.467	142.004
680.764	141.992
681.062	126.176
681.361	137.131
681.657	138.281
681.955	140.511
682.252	136.788
682.55	134.302
682.848	136.697
683.145	137.887
683.443	141.513
683.739	130.569
684.037	132.998
684.336	126.93
684.632	140.309
684.93	133.037
685.226	134.27
685.525	140.365
685.823	139.163
686.119	129.431
686.417	128.193
686.713	140.335
687.012	139.107
687.308	125.72
687.606	134.202
687.904	119.591
688.2	135.351
688.498	123.185
688.794	114.666
689.093	129.208
689.389	136.458
689.687	123.079
689.983	121.846
690.281	130.323
690.577	126.672
690.875	114.527
691.173	115.72
691.469	113.251
691.767	130.143
692.063	126.463
692.361	119.181
692.657	122.811
692.955	125.221
693.251	114.28
693.549	122.755
693.845	117.968
694.143	126.575
694.439	124.267
694.737	137.58
695.033	120.573
695.331	121.749
695.626	121.711
695.924	125.309
696.22	121.638
696.518	115.544
696.814	116.711
697.112	122.719
697.408	113.015
697.705	125.062
698.001	123.776
698.299	124.915
698.595	116.404
698.893	128.422
699.188	118.73
699.486	124.737
699.782	125.937
700.08	118.724
700.375	116.347
700.673	115.165
700.969	115.185
701.267	111.601
701.562	118.888
701.86	115.296
702.156	109.274
702.453	115.323
702.749	122.562
703.047	118.933
703.342	117.725
703.638	108.043
703.936	121.334
704.231	109.239
704.529	110.427
704.824	112.806
705.122	113.967
705.417	112.722
705.715	106.654
706.011	106.645
706.306	117.518
706.604	113.946
706.899	109.155
707.197	109.189
707.492	110.442
707.79	109.289
708.085	108.147
708.381	115.435
708.678	104.534
708.974	102.115
709.271	104.545
709.566	108.181
709.864	108.18
710.159	110.604
710.455	108.19
710.752	113.035
711.048	105.772
711.345	110.609
711.64	108.179
711.936	108.164
712.233	100.894
712.528	110.556
712.824	103.29
713.121	105.709
713.416	99.6716
713.714	99.677
714.009	111.776
714.304	109.346
714.601	94.8095
714.897	111.724
715.194	103.248
715.489	103.229
715.784	95.935
716.082	103.172
716.377	99.5429
716.672	101.964
716.969	111.65
717.264	99.5926
717.56	104.501
717.857	99.6926
718.152	99.7217
718.447	98.5556
718.744	104.673
719.039	104.73
719.336	105.996
719.632	97.5483
719.927	104.872
720.224	95.1818
720.519	95.1981
720.814	95.208
721.111	103.74
721.406	101.326
721.701	97.6924
721.998	89.1921
722.293	95.2839
722.588	100.155
722.883	91.653
723.18	97.7415
723.475	90.4296
723.77	102.573
724.067	89.1755
724.362	103.742
724.657	97.6446
724.954	101.262
725.249	95.1718
725.544	85.4473
725.841	92.7307
726.135	87.8865
726.43	95.2139
726.725	97.7107
727.022	88.0262
727.317	83.1927
727.612	85.665
727.909	102.782
728.203	90.6363
728.498	80.902
728.793	88.2324
729.09	95.5558
729.385	93.1146
729.679	90.6692
729.976	93.1022
730.271	94.3015
730.566	90.6167
730.86	89.3715
731.157	91.7899
731.452	95.4198
731.747	88.0889
732.041	91.7212
732.338	94.1447
732.633	85.6293
732.927	91.7355
733.222	86.8752
733.519	94.2071
733.813	84.4757
734.108	90.589
734.403	85.7369
734.699	89.4189
734.994	84.5536
735.288	80.8992
735.583	89.4543
735.878	85.8169
736.174	79.7272
736.469	83.4048
736.763	88.3132
737.058	82.2314
737.354	90.7999
737.649	83.475
737.943	93.2599
738.238	90.8187
738.532	85.9298
738.829	84.7036
739.123	77.3632
739.418	85.9093
739.712	89.5623
740.007	91.9906
740.303	79.7595
740.598	87.0748
740.892	82.1617
741.186	76.0294
741.481	78.4568
741.777	89.4263
742.071	82.0941
742.366	89.4145
742.66	79.6621
742.955	80.886
743.249	80.8895
743.545	78.4633
743.84	78.4773
744.134	84.5933
744.428	85.8253
744.722	82.1729
745.017	91.9595
745.313	87.0857
745.607	84.6395
745.901	82.1906
746.196	84.6303
746.49	76.0721
746.784	80.943
747.08	76.0465
747.375	89.472
747.669	76.0366
747.963	76.0386
748.257	74.8197
748.551	84.5831
748.845	87.0075
749.14	74.78
749.436	86.9664
749.73	86.9475
750.024	75.9499
750.318	74.7142
750.612	77.1384
750.906	84.4404
751.2	75.8899
751.494	81.9525
751.79	78.2673
752.085	73.3925
752.379	74.6155
752.673	84.3754
752.967	77.097
753.261	82.0098
753.555	80.8229
753.849	90.615
754.143	79.66
754.437	76.0136
754.733	82.111
755.026	88.1988
755.32	77.1867
755.614	79.5615
755.908	75.8109
756.202	83.0419
756.496	78.1137
756.79	78.0639
757.084	82.9064
757.378	79.2981
757.672	80.5508
757.966	74.4681
758.261	72.0118
758.555	82.9258
758.849	78.0625
759.143	78.0282
759.437	73.1129
759.73	74.2948
760.024	77.911
760.318	83.959
760.612	79.1126
760.906	80.3322
761.199	73.0604
761.493	76.6967
761.787	73.0426
762.081	73.0722
762.374	77.9565
762.668	84.0201
762.962	71.8582
763.255	81.4997
763.549	79.0455
763.843	74.1936
764.136	79.0305
764.43	81.4457
764.724	77.7987
765.017	71.7316
765.311	75.3503
765.604	71.7
765.9	72.894
766.194	75.299
766.487	77.7052
766.781	82.5329
767.074	77.6726
767.368	83.6978
767.661	77.6357
767.955	77.6241
768.249	76.4057
768.542	75.1824
768.836	78.7947
769.127	77.5934
769.421	81.2204
769.714	73.9609
770.008	77.5666
770.301	78.7469
770.594	71.4583
770.888	78.6629
771.181	72.5897
771.475	71.3528
771.768	79.7509
772.061	73.6983
772.355	68.8618
772.648	79.6667
772.942	76.0323
773.235	83.2452
773.528	76.0203
773.822	74.8367
774.115	78.4436
774.408	77.245
774.702	78.446
774.995	73.6415
775.288	74.8451
775.582	76.0365
775.875	72.4226
776.168	82.0677
776.461	71.2297
776.753	77.1997
777.046	74.7168
777.339	74.5668
777.632	79.0926
777.925	74.2794
778.219	76.7521
778.512	79.122
778.805	83.9302
779.098	75.6014
779.391	80.3946
779.685	73.2024
779.978	80.3602
780.269	73.1659
780.562	73.1811
780.855	73.1911
781.148	76.771
781.441	76.7574
781.734	80.3237
782.027	79.1014
782.32	69.5135
782.614	76.656
782.907	74.2442
783.198	75.4163
783.491	76.5925
783.784	70.6348
784.077	80.1845
784.37	84.9475
784.663	80.1599
784.956	70.5957
785.249	74.1589
785.54	81.3
785.833	76.5123
786.126	75.3007
786.418	77.6691
786.711	76.4567
787.004	70.4778
787.297	82.3694
787.588	74.0106
787.881	76.3725
788.174	75.1464
788.467	78.6825
788.76	73.8658
789.052	70.2114
789.345	74.9472
789.636	82.1291
789.929	78.7055
790.222	73.9708
790.515	69.1801
790.807	72.7723
791.1	72.7746
791.391	80.9287
791.684	72.5263
791.976	79.6062
792.269	77.2478
792.562	72.5351
792.855	78.4441
793.145	76.0491
793.438	76.0253
793.731	78.3876
794.023	77.1869
794.316	73.6498
794.607	74.8748
794.899	76.0896
795.192	77.3033
795.485	72.5858
795.777	77.3641
796.068	71.2533
796.361	79.419
796.653	72.4776
796.946	75.0812
797.236	78.6261
797.529	79.7184
797.822	68.6869
798.114	81.5222
798.407	81.4597
798.697	80.3445
798.99	73.346
799.282	80.3955
799.575	79.2987
799.865	76.9448
800.158	80.508
800.45	78.1379
800.743	74.5658
801.033	81.6477
801.326	80.4493
801.618	80.4426
801.911	81.596
802.201	78.056
802.493	76.8699
802.786	70.9738
803.078	78.07
803.369	79.2531
803.661	80.4361
803.953	72.1726
804.246	76.8986
804.536	76.9115
804.828	85.208
805.121	74.5803
805.413	73.396
805.703	80.4757
805.996	73.373
806.288	86.3469
806.578	76.8794
806.87	75.6816
807.163	75.6637
807.455	72.1148
807.745	73.301
808.037	83.9564
808.33	73.342
808.62	75.7118
808.912	86.3485
809.204	83.9664
809.495	75.6928
809.787	72.1428
810.079	79.2188
810.371	75.6611
810.661	76.8323
810.953	78.0036
811.245	81.5387
811.536	81.5308
811.828	79.1594
812.12	85.0622
812.41	76.8164
812.702	80.3717
812.994	78.0198
813.284	74.4886
813.576	80.4101
813.868	80.4416
814.158	78.0908
814.45	68.6317
814.742	66.2558
815.032	78.0482
815.324	79.2024
815.616	74.4522
815.906	80.3262
816.198	80.3025
816.49	75.5659
816.78	81.4363
817.072	83.7702
817.362	73.1525
817.654	76.6816
817.946	79.0383
818.236	79.0605
818.528	73.2089
818.82	69.6858
819.11	81.4807
819.401	69.6808
819.691	79.1153
819.983	68.494
820.275	68.4842
820.565	82.6207
820.857	74.3493
821.148	71.9784
821.438	77.866
821.73	70.8131
822.02	75.5484
822.312	85.0167
822.603	77.9681
822.893	79.1682
823.185	75.6388
823.475	72.0999
823.766	70.9132
824.056	75.6324
824.348	74.4504
824.639	75.6291
824.929	79.1758
825.221	79.1714
825.511	76.7948
825.802	83.8551
826.094	72.0525
826.383	77.9597
826.675	86.2192
826.965	70.873
827.256	79.1348
827.546	75.5955
827.838	68.5169
828.127	76.7877
828.419	77.9826
828.71	76.8227
829	76.8481
829.291	74.5114
829.581	82.805
829.872	78.0881
830.162	72.181
830.454	75.7266
830.743	81.6371
831.035	82.8167
831.324	73.3579
831.616	73.3658
831.907	80.4706
832.196	75.7416
832.488	81.6534
832.777	76.927
833.069	76.9334
833.358	78.1243
833.65	76.9491
833.939	75.7804
834.23	75.8027
834.52	79.3811
834.811	74.659
835.101	79.4021
835.392	77.035
835.681	77.0339
835.973	78.203
836.262	77.0063
836.553	80.5571
836.843	74.6306
837.134	82.9032
837.423	76.9674
837.714	74.5861
838.004	81.6828
838.295	74.5791
838.584	72.2124
838.875	68.6639
839.165	68.6683
839.456	78.1469
839.745	74.6054
840.034	72.2471
840.326	78.1761
840.615	74.6244
840.906	79.3516
841.195	80.5175
841.486	69.8452
841.775	75.7479
842.067	72.1816
842.356	85.1828
842.647	74.5231
842.936	76.879
843.225	67.4169
843.516	73.3351
843.805	69.798
844.096	67.4476
844.385	73.3774
844.676	72.2037
844.965	69.8428
845.256	68.6534
845.546	69.8286
845.835	69.8187
846.126	75.7297
846.415	70.9911
846.706	75.73
846.995	75.7554
847.284	68.6791
847.574	71.0735
847.863	72.281
848.154	73.4902
848.443	74.6921
848.732	72.3178
849.023	75.8409
849.312	79.3662
849.603	69.8858
849.892	69.8852
850.181	75.8093
850.472	69.8838
850.76	68.6984
851.051	65.1435
851.34	66.3294
851.629	67.511
851.92	71.0608
852.209	72.2509
852.5	68.7046
852.788	75.8192
853.077	66.3321
853.368	68.6885
853.657	61.5608
853.945	72.2051
854.236	65.0783
854.525	67.432
854.814	67.4381
855.104	68.631
855.393	67.4561
855.684	69.8259
855.972	61.5311
856.261	62.7108
856.552	63.8986
856.841	60.3393
857.129	65.0567
857.42	73.3142
857.708	70.9199
857.997	70.8964
858.288	64.9657
858.576	60.2494
858.865	62.6191
859.156	56.7013
859.444	68.52
859.733	57.8688
860.023	62.5854
860.312	67.2805
860.6	56.633
860.889	62.5303
861.179	61.3465
861.468	67.2824
861.757	64.9342
862.047	59.0235
862.336	61.3783
862.624	62.549
862.914	60.1742
863.203	61.3368
863.491	61.2893
863.78	61.2642
864.07	53.0013
864.359	62.4378
864.647	52.9972
864.938	61.2484
865.226	62.4277
865.514	62.4314
865.803	57.7176
866.093	53.0091
866.381	51.8472
866.67	51.8497
866.96	54.2032
867.248	51.8302
867.537	51.806
867.825	49.4383
868.115	55.3221
868.404	58.8448
868.692	56.4764
868.98	56.4679
869.271	50.5708
869.559	55.2819
869.847	54.1023
870.135	63.5257
870.426	47.0262
870.714	44.6646
871.002	51.7271
871.29	50.5447
871.58	49.3632
871.869	57.6025
872.157	52.8869
872.445	48.172
872.733	56.4058
873.023	48.1518
873.311	50.4982
873.6	49.3146
873.888	49.3081
874.176	49.3041
874.466	43.4207
874.754	50.4809
875.042	45.7693
875.33	52.8206
875.62	46.9297
875.908	48.0945
876.196	55.1355
876.484	49.247
876.772	45.7141
877.06	41.0079
877.35	48.049
877.638	51.5584
877.926	50.3702
878.214	44.4881
878.502	50.3493
878.792	50.3419
879.08	45.6415
879.368	49.158
879.656	46.8089
879.944	49.1537
880.232	49.1497
880.522	47.9707
880.81	46.8004
881.098	45.6401
881.386	40.9526
881.674	49.1794
881.961	50.3611
882.251	46.8435
882.539	45.6702
882.827	43.3133
883.115	42.1265
883.403	50.3315
883.69	45.6178
883.978	45.5939
884.268	45.5686
884.556	43.203
884.844	43.1788
885.131	48.9978
885.419	44.2844
885.707	39.5807
885.995	43.0616
886.282	41.8657
886.572	43.012
886.86	43.0107
887.147	46.5266
887.435	48.8925
887.723	41.9043
888.011	44.2521
888.298	43.0885
888.586	45.4263
888.874	41.9125
889.163	45.4188
889.451	41.92
889.738	46.5984
890.026	39.5799
890.314	44.2525
890.601	41.9106
890.889	48.9163
891.176	37.2188
891.464	50.0584
891.752	41.867
892.039	41.8544
892.327	38.3402
892.616	38.3276
892.904	41.8139
893.191	40.6282
893.479	42.9347
893.766	41.7449
894.054	40.5589
894.341	42.8679
894.629	44.0164
894.916	44.0074
895.203	39.3477
895.491	41.6637
895.778	39.333
896.066	41.6603
896.353	43.9914
896.641	41.6757
896.928	42.8548
897.215	42.8763
897.503	33.5796
897.79	46.4061
898.077	42.9148
898.367	40.5842
898.654	35.9191
898.941	41.7334
899.229	46.373
899.516	40.5328
899.803	37.0228
900.091	39.3306
900.378	38.1506
900.665	40.4614
900.952	39.2907
901.24	39.2856
901.527	35.7987
901.814	40.4505
902.101	35.8087
902.389	38.1364
902.676	40.4726
902.963	41.6524
903.25	38.1705
903.537	35.8408
903.825	35.8368
904.112	37.0084
904.399	39.3298
904.686	45.1197
904.973	36.9517
905.26	43.8899
905.545	46.1843
905.833	36.8827
906.12	40.3428
906.407	38.0133
906.694	36.8502
906.981	36.8488
907.268	38.0166
907.555	39.2039
907.842	42.7062
908.129	40.4033
908.416	41.576
908.703	38.0998
908.99	41.5872
909.277	38.0965
909.564	38.0874
909.851	36.9132
910.138	39.2227
910.425	41.5288
910.712	35.706
910.999	39.1643
911.284	42.6187
911.571	34.4857
911.858	34.4725
912.145	35.6229
912.432	37.936
912.718	40.2386
913.005	42.5391
913.292	35.5962
913.579	36.7463
913.866	36.7369
914.153	40.1972
914.44	37.88
914.724	34.4106
915.011	36.7164
915.298	39.0212
915.585	37.8676
915.872	37.8745
916.158	37.8777
916.445	40.1914
916.732	41.3493
917.019	33.2583
917.303	41.3499
917.59	36.7249
917.877	35.567
918.164	36.7151
918.45	35.5498
918.737	36.6965
919.024	40.1579
919.31	35.5325
919.595	36.6799
919.882	37.8211
920.168	40.1182
920.455	34.3418
920.742	38.9521
921.028	35.4908
921.315	37.8035
921.6	30.8795
921.886	34.3364
922.173	36.6382
922.459	34.3247
922.746	33.167
923.032	35.4656
923.319	34.3059
923.604	35.4529
923.89	33.1411
924.177	38.8996
924.463	41.2021
924.75	36.5911
925.034	36.5898
925.321	34.2778
925.607	37.7282
925.894	33.1194
926.18	33.1159
926.466	35.4112
926.751	38.8531
927.037	36.5366
927.324	37.6726
927.61	41.1099
927.897	36.4977
928.181	31.89
928.467	35.33
928.754	35.3227
929.04	35.3207
929.326	34.1735
929.611	35.3309
929.897	35.3394
930.184	38.787
930.47	35.3364
930.754	37.6338
931.041	34.1771
931.327	30.7199
931.613	38.7603
931.899	36.4521
932.184	31.8462
932.47	30.6901
932.756	38.7238
933.042	31.8276
933.327	35.263
933.613	32.9594
933.899	37.5457
934.185	38.6876
934.47	38.6811
934.756	36.3789
935.042	36.3668
935.328	35.2086
935.612	34.0505
935.898	37.4731
936.185	34.0282
936.471	37.4573
936.755	32.8729
937.041	36.307
937.327	34.0184
937.613	29.4412
937.897	39.7578
938.183	38.6242
938.469	35.1991
938.753	38.6397
939.04	38.6371
939.326	36.3252
939.612	36.2976
939.896	29.4233
940.182	31.7153
940.468	36.2986
940.752	34.0051
941.038	38.5782
941.324	39.6774
941.608	31.6112
941.894	38.4461
942.18	32.7654
942.466	33.9158
942.75	33.8824
943.035	31.5781
943.321	32.7355
943.605	37.3237
943.891	39.6274
944.177	35.0659
944.461	35.0659
944.747	31.6309
945.033	35.0489
945.317	35.0354
945.602	37.3034
945.888	33.8677
946.172	36.1388
946.458	34.9891
946.744	30.4214
947.028	36.119
947.313	34.9767
947.599	31.5605
947.883	33.8484
948.169	31.5661
948.452	31.565
948.738	29.2826
949.024	39.5478
949.308	36.1237
949.593	32.6978
949.879	31.5498
950.163	34.9592
950.448	37.226
950.732	32.6575
951.018	36.0644
951.303	36.0533
951.587	32.6265
951.873	29.2017
952.158	31.4713
952.442	31.4676
952.728	34.877
953.011	33.7365
953.297	30.3222
953.583	32.5965
953.866	30.3204
954.152	34.8689
954.435	32.5934
954.721	33.7337
955.006	34.8758
955.29	37.154
955.576	36.0135
955.859	32.5959
956.145	38.2791
956.428	32.5847
956.714	34.8521
956.999	30.2968
957.283	32.5608
957.568	30.2802
957.852	32.547
958.137	37.081
958.42	32.5278
958.706	29.1136
958.991	32.5162
959.275	32.5164
959.56	35.9191
959.844	33.649
960.129	31.3757
960.412	29.1006
960.698	33.6325
960.981	32.4822
961.266	32.4612
961.552	32.4505
961.835	33.5809
962.12	31.3126
962.404	34.7124
962.689	33.5801
962.972	33.5823
963.258	32.4562
963.541	32.4628
963.826	31.328
964.109	31.3198
964.395	26.77
964.678	30.1203
964.963	32.3609
965.246	34.6057
965.532	28.9395
965.815	32.3442
966.1	29.083
966.383	32.5243
966.668	30.1674
966.952	31.3066
967.237	31.3416
967.52	34.7323
967.805	33.5595
968.088	31.2539
968.373	31.2163
968.657	36.854
968.942	33.4434
969.225	34.5778
969.51	27.7956
969.793	33.4404
970.078	28.9189
970.361	35.6943
970.646	31.1794
970.929	35.6953
971.212	28.9138
971.497	32.2981
971.78	34.5551
972.065	34.5504
972.348	30.0269
972.633	31.1499
972.916	31.1458
973.201	30.0106
973.484	34.5158
973.769	31.1255
974.052	31.1223
974.335	33.3809
974.62	34.52
974.903	35.6573
975.188	35.659
975.471	31.1386
975.756	31.136
976.039	34.519
976.322	31.1282
976.606	32.2517
976.889	27.7335
977.174	25.4732
977.457	29.9804
977.742	32.2283
978.025	31.092
978.307	28.8317
978.592	29.9561
978.875	35.5923
979.16	31.0809
979.443	31.0786
979.725	27.6971
980.01	31.0768
980.293	33.3322
980.576	31.0792
980.86	33.3466
981.143	33.351
981.428	26.5825
981.711	29.9687
981.993	29.9685
982.278	32.2213
982.561	28.8308
982.845	31.073
983.128	28.8016
983.411	31.038
983.695	33.2813
983.978	27.6451
984.261	29.8866
984.545	32.1273
984.828	32.1112
985.111	34.3433
985.395	29.8375
985.678	29.827
985.96	35.4372
986.245	30.9393
986.527	28.6939
986.81	35.4329
987.095	32.057
987.377	35.4155
987.66	26.4248
987.944	28.666
988.227	33.1502
988.509	29.7769
988.794	25.2821
989.076	28.6424
989.359	30.883
989.643	32.0016
989.926	28.6345
990.208	34.2404
990.492	29.7569
990.775	34.2483
991.057	32.0123
991.342	26.4128
991.624	29.797
991.907	30.9265
992.189	24.1862
992.473	30.9237
992.756	30.9187
993.038	32.0353
993.322	30.9072
993.605	33.1506
993.887	33.1418
994.169	32.0033
994.454	33.1015
994.736	33.1032
995.018	33.1156
995.303	26.3979
995.585	32.0311
995.867	27.5509
996.149	27.5786
996.434	29.8433
996.716	33.2392
996.998	33.2462
997.28	32.1302
997.565	33.2478
997.847	29.8321
998.129	33.1767
998.411	26.4107
998.695	28.6222
998.978	29.7269
999.26	29.7596
999.542	28.709
999.826	28.7288
