#Acq. time (s)=	30
#Accumulations=	2
#Range (cm-¹)=	1200...2365
#Windows=	3
#Auto scanning=	Off
#Autofocus=	Off
#Macrospot=	Off
#AutoExposure=	Off
#Spike filter=	Multiple accum.
#Delay time (s)=	2
#Binning=	1
#Readout mode=	Signal
#DeNoise=	Off
#ICS correction=	On
#Dark correction=	Off
#Inst. Process=	Off
#Detector Gain=	Best Dynamic
#Detector ADC=	50 kHz HS
#Detector temperature (°C)=	-60.09
#Instrument=	LabRAM HR Evol
#Detector=	SIN-EM FIVIS
#Objective=	x100_VIS_LWD
#Grating=	1800 (450-850nm)
#ND Filter=	100%
#Laser=	532nm_Edge
#Hole=	100.021
#Temperature=	0
#Range=	Visible
#StageXY=	75x50mm Scan+
#StageZ=	Z motor
#X (µm)=	0
#Y (µm)=	0
#Z (µm)=	-48.5
#Full time(mm:ss)=	3:23
#Project=	21_11_26
#Sample=	BU19(2)w
#Site=	
#Title=	BU19(2)w-A-FF2b-FI02-V_1800 (450-850nm)_532nm_Edge_100%_x100_VIS_LWD_H100um_30sX2
#Remark=	
#Date=	26.11.2021 16:13
#Acquired=	26.11.2021 16:13:37
1202.72	91.9483
1203	103.927
1203.28	92.1099
1203.56	88.8239
1203.84	91.9826
1204.11	94.0881
1204.39	90.8255
1204.67	91.9038
1204.95	87.6132
1205.23	100.494
1205.5	90.7843
1205.78	87.5237
1206.06	83.1877
1206.34	94.9502
1206.61	88.4695
1206.89	85.2108
1207.17	87.3125
1207.45	82.9932
1207.73	90.4669
1208	87.2323
1208.28	85.0763
1208.56	80.7771
1208.84	85.0314
1209.11	78.5896
1209.39	94.6078
1209.67	84.9727
1209.95	79.6226
1210.23	73.2002
1210.5	79.5972
1210.78	77.4263
1211.06	87.0059
1211.34	73.0979
1211.61	84.8084
1211.89	77.3139
1212.17	84.747
1212.45	83.6474
1212.72	78.2948
1213	76.1401
1213.28	84.6373
1213.56	76.1
1213.83	80.3484
1214.11	87.7823
1214.39	83.5269
1214.67	80.3349
1214.94	79.2703
1215.22	84.5919
1215.5	78.1998
1215.78	84.5822
1216.05	80.3163
1216.33	81.3589
1216.61	83.4565
1216.89	69.5957
1217.16	73.8186
1217.44	74.8576
1217.72	75.8973
1218	83.3083
1218.27	75.8556
1218.55	80.0837
1218.83	80.0658
1219.1	73.6883
1219.38	71.5599
1219.66	77.9181
1219.94	75.7855
1220.21	83.1958
1220.49	78.9495
1220.77	74.7061
1221.04	80.0039
1221.32	79.9947
1221.6	77.8588
1221.88	77.8437
1222.15	70.4015
1222.43	78.848
1222.71	79.8698
1222.98	74.5369
1223.26	77.674
1223.54	72.3507
1223.81	78.6612
1224.09	82.8589
1224.37	75.4352
1224.65	78.5834
1224.92	71.177
1225.2	81.7224
1225.48	77.4966
1225.76	80.6722
1226.03	76.4565
1226.31	77.5213
1226.59	73.2922
1226.86	82.7882
1227.14	78.549
1227.42	70.091
1227.69	79.5477
1227.97	81.5779
1228.25	74.1548
1228.52	76.2167
1228.8	76.1432
1229.08	77.1348
1229.35	72.9245
1229.63	83.6374
1229.91	81.7032
1230.18	71.0791
1230.46	76.2787
1230.74	73.0909
1231.01	80.4712
1231.29	77.2645
1231.57	76.0609
1231.84	72.9212
1232.12	72.9187
1232.4	76.0675
1232.67	67.652
1232.95	78.1556
1233.23	67.6443
1233.5	72.889
1233.78	77.0879
1234.06	77.091
1234.33	78.1475
1234.61	68.6979
1234.89	80.2664
1235.16	78.1765
1235.44	83.4373
1235.71	76.0855
1235.99	81.3504
1236.27	70.8418
1236.54	81.3536
1236.82	81.3424
1237.1	81.3285
1237.37	83.4114
1237.65	77.0789
1237.93	79.1505
1238.2	78.0714
1238.48	74.8939
1238.76	79.0619
1239.03	77.9902
1239.31	77.9755
1239.58	80.0606
1239.86	82.1478
1240.14	73.7555
1240.41	77.9447
1240.69	84.2324
1240.97	76.8961
1241.24	77.9474
1241.52	81.0941
1241.79	78.9893
1242.07	77.9258
1242.35	75.82
1242.62	78.9641
1242.9	73.728
1243.18	78.978
1243.45	75.8427
1243.73	76.8888
1244	70.5988
1244.28	80.0374
1244.56	71.6488
1244.83	80.0291
1245.11	81.0683
1245.39	81.0497
1245.66	89.4095
1245.94	67.384
1246.21	85.1587
1246.49	83.052
1246.76	79.9041
1247.04	85.1371
1247.32	73.6205
1247.59	78.8463
1247.87	78.8437
1248.14	83.02
1248.42	88.2186
1248.7	86.1086
1248.97	80.874
1249.25	81.9238
1249.52	84.0208
1249.8	76.6927
1250.08	91.3314
1250.35	88.1937
1250.63	79.8087
1250.9	89.1956
1251.18	83.9488
1251.45	81.8412
1251.73	87.0497
1252.01	82.8551
1252.28	77.6168
1252.56	82.8225
1252.83	88.0261
1253.11	93.2254
1253.39	80.6833
1253.66	83.8048
1253.94	76.4995
1254.21	82.7727
1254.49	90.0944
1254.76	84.8924
1255.04	78.6335
1255.31	89.0743
1255.59	78.6376
1255.87	83.8578
1256.14	92.2064
1256.42	86.9882
1256.69	88.0384
1256.97	91.1837
1257.24	94.3207
1257.52	99.5372
1257.79	93.2558
1258.07	109.955
1258.35	113.078
1258.62	105.758
1258.9	103.657
1259.17	98.4133
1259.45	98.4099
1259.72	101.552
1260	99.4776
1260.27	95.34
1260.55	108.888
1260.82	118.256
1261.1	124.473
1261.37	116.095
1261.65	139.023
1261.92	141.128
1262.2	146.474
1262.48	164.438
1262.75	191.742
1263.02	197.694
1263.3	218.319
1263.58	216.132
1263.85	217.387
1264.13	212.329
1264.4	192.663
1264.68	174.975
1264.95	161.274
1265.23	135.105
1265.5	125.697
1265.78	124.64
1266.05	105.809
1266.33	122.525
1266.6	102.679
1266.88	108.962
1267.15	102.71
1267.43	96.4597
1267.7	102.759
1267.98	100.696
1268.25	91.3101
1268.53	102.866
1268.8	98.713
1269.08	98.7314
1269.35	100.842
1269.63	96.6622
1269.9	92.4644
1270.18	98.728
1270.45	97.6496
1270.73	102.863
1271	105.977
1271.28	98.6318
1271.55	100.717
1271.83	106.98
1272.1	94.4307
1272.38	96.5449
1272.65	98.6651
1272.93	97.6546
1273.2	103.965
1273.47	101.895
1273.75	106.114
1274.03	99.8506
1274.3	100.925
1274.57	105.136
1274.85	104.091
1275.12	104.086
1275.4	107.232
1275.67	111.439
1275.95	104.112
1276.22	100.981
1276.5	101.004
1276.77	111.52
1277.05	103.14
1277.32	107.355
1277.6	115.784
1277.87	108.456
1278.14	121.092
1278.42	122.167
1278.69	126.394
1278.97	120.119
1279.24	132.76
1279.52	146.457
1279.79	149.604
1280.07	154.85
1280.34	184.279
1280.61	205.305
1280.89	246.34
1281.16	288.438
1281.44	360.056
1281.71	451.733
1281.99	592.846
1282.26	819.142
1282.53	1065.55
1282.81	1394.15
1283.08	1811.82
1283.36	2262.3
1283.63	2609.32
1283.91	2589.45
1284.18	2201.65
1284.45	1637.18
1284.73	1099.05
1285	748.355
1285.28	509.149
1285.55	375.145
1285.83	292.894
1286.1	230.78
1286.37	203.449
1286.65	167.641
1286.92	166.556
1287.2	154.972
1287.47	143.38
1287.75	126.516
1288.02	125.44
1288.29	126.478
1288.57	115.952
1288.84	104.378
1289.12	118.067
1289.39	106.505
1289.66	107.576
1289.94	111.807
1290.21	103.403
1290.49	108.688
1290.76	101.312
1291.03	100.247
1291.31	98.1341
1291.58	100.238
1291.86	106.555
1292.13	103.391
1292.4	90.7528
1292.68	93.9175
1292.95	98.124
1293.22	88.6373
1293.5	93.9068
1293.77	89.7225
1294.05	83.4349
1294.32	84.524
1294.59	91.9147
1294.87	88.7505
1295.14	96.1246
1295.42	95.0864
1295.69	93.0155
1295.96	89.8985
1296.24	87.8492
1296.51	83.6573
1296.79	86.8362
1297.06	92.1227
1297.33	80.4859
1297.61	91.0383
1297.88	82.5668
1298.15	78.322
1298.43	88.8604
1298.7	85.7016
1298.97	80.4137
1299.25	87.7906
1299.52	86.722
1299.79	85.6516
1300.07	82.4831
1300.34	85.664
1300.62	80.3926
1300.89	86.7293
1301.16	74.0543
1301.44	84.6087
1301.71	82.5003
1301.98	82.5134
1302.25	83.5817
1302.53	74.0813
1302.8	86.7585
1303.08	83.5876
1303.35	73.0187
1303.62	73.0098
1303.9	78.2755
1304.17	76.16
1304.44	77.2167
1304.72	81.4398
1304.99	78.2701
1305.26	75.0922
1305.54	82.4674
1305.81	74.0046
1306.08	76.0975
1306.35	77.1329
1306.63	77.1167
1306.9	79.2182
1307.18	68.671
1307.45	75.0044
1307.72	81.3342
1308	78.1679
1308.27	72.8929
1308.54	77.115
1308.81	81.3284
1309.09	72.8937
1309.36	80.289
1309.63	71.8587
1309.91	80.3103
1310.18	79.2616
1310.45	68.7053
1310.73	68.7
1311	72.9202
1311.27	73.9778
1311.55	71.8701
1311.82	78.2051
1312.09	76.0996
1312.37	65.5549
1312.64	68.7312
1312.91	67.6791
1313.18	72.9546
1313.46	69.775
1313.73	68.716
1314	70.82
1314.28	78.2026
1314.55	80.3126
1314.82	73.983
1315.09	72.9338
1315.37	75.0537
1315.64	74.0058
1315.91	78.2391
1316.18	74.0235
1316.46	75.0756
1316.73	75.07
1317	68.7293
1317.28	75.0629
1317.55	71.8937
1317.82	70.8469
1318.09	70.8529
1318.37	67.6874
1318.64	62.4071
1318.91	82.4804
1319.18	74.0281
1319.46	64.517
1319.73	76.1339
1320	78.243
1320.28	69.7959
1320.55	60.2877
1320.82	72.9603
1321.09	71.8925
1321.37	69.7635
1321.64	76.0771
1321.91	73.9413
1322.18	69.7062
1322.46	72.8503
1322.73	63.3465
1323	70.7191
1323.27	71.7621
1323.55	74.9101
1323.82	75.9723
1324.09	68.5937
1324.36	72.8117
1324.64	70.6997
1324.91	63.3187
1325.18	65.4248
1325.45	68.5915
1325.73	68.573
1326	75.9174
1326.27	69.5538
1326.54	62.1364
1326.81	66.3256
1327.09	76.8399
1327.36	64.2361
1327.63	64.2776
1327.9	67.4599
1328.18	74.8594
1328.45	69.6165
1328.72	71.7521
1328.99	67.5541
1329.27	74.9451
1329.54	69.6601
1329.81	73.8868
1330.08	63.3325
1330.35	72.8208
1330.63	68.5912
1330.9	71.7414
1331.17	69.6147
1331.44	70.647
1331.71	71.6722
1331.99	65.3207
1332.26	75.8254
1332.53	68.4355
1332.8	74.7271
1333.07	68.3892
1333.35	68.3638
1333.62	67.2893
1333.89	73.5728
1334.16	71.4497
1334.43	72.4791
1334.71	73.5089
1334.98	66.142
1335.25	64.0281
1335.52	67.1626
1335.79	68.1981
1336.07	70.2829
1336.34	75.5139
1336.61	73.4045
1336.88	67.1029
1337.15	67.0941
1337.43	67.0867
1337.7	72.3208
1337.97	69.1678
1338.24	64.9585
1338.51	62.8474
1338.78	70.169
1339.06	69.1091
1339.33	73.289
1339.6	63.8621
1339.87	64.9107
1340.14	69.1021
1340.42	68.0554
1340.69	72.246
1340.96	67.011
1341.23	76.4341
1341.5	67.0047
1341.77	74.329
1342.04	66.9905
1342.32	65.9319
1342.59	75.3364
1342.86	67.9908
1343.13	69.0181
1343.4	63.7778
1343.67	64.8178
1343.95	58.5396
1344.22	74.2256
1344.49	72.1343
1344.76	74.2251
1345.03	72.1258
1345.3	66.885
1345.58	68.9596
1345.85	74.1619
1346.12	68.9183
1346.39	67.8495
1346.66	66.7707
1346.93	67.7918
1347.2	71.9435
1347.47	68.7912
1347.75	72.9417
1348.02	70.8424
1348.29	70.8323
1348.56	63.5294
1348.83	65.608
1349.1	69.7648
1349.37	74.9598
1349.65	68.6945
1349.92	65.5565
1350.19	66.5849
1350.46	65.531
1350.73	78.0084
1351	69.6634
1351.27	69.6447
1351.54	67.5519
1351.81	78.9727
1352.09	65.4476
1352.36	65.4455
1352.63	66.4921
1352.9	72.7466
1353.17	71.7274
1353.44	72.7785
1353.71	74.9225
1353.98	77.0765
1354.25	75.9614
1354.53	70.6464
1354.8	69.5338
1355.07	70.5797
1355.34	72.6628
1355.61	70.5588
1355.88	70.5449
1356.15	72.6458
1356.42	74.7286
1356.69	70.5563
1356.96	77.8192
1357.24	77.8115
1357.51	74.6873
1357.78	72.5998
1358.05	74.6639
1358.32	70.4979
1358.59	70.4841
1358.86	74.6218
1359.13	77.7179
1359.4	70.4411
1359.67	82.8753
1359.94	79.7528
1360.22	76.621
1360.49	75.5608
1360.76	80.7193
1361.03	69.3078
1361.3	85.8749
1361.57	73.4425
1361.84	79.6535
1362.11	73.4335
1362.38	77.5662
1362.65	81.699
1362.92	83.7609
1363.19	77.5447
1363.46	84.7967
1363.73	80.6679
1364	79.6413
1364.28	90.0091
1364.55	95.1865
1364.82	91.036
1365.09	92.061
1365.36	87.9015
1365.63	92.0221
1365.9	77.5086
1366.17	83.6988
1366.44	82.6445
1366.71	88.8301
1366.98	81.565
1367.25	90.839
1367.52	83.5891
1367.79	88.7471
1368.06	86.6907
1368.33	93.932
1368.6	102.206
1368.87	143.563
1369.15	195.263
1369.41	188.04
1369.68	145.659
1369.95	111.522
1370.23	100.137
1370.5	90.822
1370.77	85.6305
1371.04	83.5519
1371.31	86.6347
1371.58	93.8389
1371.85	91.7419
1372.12	90.6725
1372.39	88.5736
1372.66	97.8231
1372.93	89.5482
1373.2	97.7786
1373.47	97.7646
1373.74	93.6292
1374.01	94.649
1374.28	100.822
1374.55	95.6626
1374.82	90.5041
1375.09	95.6469
1375.36	100.784
1375.63	99.7571
1375.9	99.7687
1376.17	97.7049
1376.44	106.982
1376.71	106.953
1376.98	107.956
1377.25	107.919
1377.52	110.96
1377.79	110.974
1378.06	102.766
1378.33	112.074
1378.6	112.129
1378.87	119.405
1379.14	118.394
1379.41	130.76
1379.68	132.804
1379.95	121.446
1380.22	140.999
1380.49	124.457
1380.76	139.794
1381.03	139.729
1381.3	140.704
1381.57	149.984
1381.84	157.142
1382.11	163.235
1382.38	156.989
1382.65	170.272
1382.92	176.368
1383.19	182.456
1383.46	195.74
1383.73	230.55
1384	229.484
1384.27	263.282
1384.54	297.124
1384.81	356.619
1385.08	407.959
1385.34	501.419
1385.61	649.389
1385.88	932.87
1386.15	1372.51
1386.42	2025.76
1386.69	3235.02
1386.96	4763.74
1387.23	5872.99
1387.5	5308.99
1387.77	3611.67
1388.04	2179
1388.31	1267.11
1388.58	805.069
1388.85	531.663
1389.12	401.999
1389.39	320.114
1389.66	269.826
1389.93	215.431
1390.2	194.827
1390.46	183.391
1390.73	165.892
1391	149.479
1391.27	150.442
1391.54	136.081
1391.81	137.092
1392.08	138.084
1392.35	123.708
1392.62	113.439
1392.89	111.371
1393.16	117.497
1393.43	111.341
1393.7	111.329
1393.97	117.459
1394.23	106.191
1394.5	108.229
1394.77	99.0128
1395.04	102.078
1395.31	104.134
1395.58	95.9632
1395.85	91.8794
1396.12	94.9539
1396.39	94.9501
1396.66	98.0118
1396.93	93.9057
1397.2	91.8462
1397.46	91.828
1397.73	95.9017
1398	94.8689
1398.27	88.7302
1398.54	89.7582
1398.81	92.837
1399.08	84.6581
1399.35	92.8468
1399.62	93.8851
1399.89	90.8243
1400.16	89.8087
1400.42	89.807
1400.69	78.5585
1400.96	84.721
1401.23	88.8265
1401.5	88.8223
1401.77	90.8805
1402.04	92.9272
1402.31	96.0314
1402.58	84.8095
1402.84	91.0149
1403.11	83.8715
1403.38	86.9769
1403.65	94.1759
1403.92	93.1494
1404.19	98.2617
1404.46	94.102
1404.73	98.2193
1404.99	105.391
1405.26	106.404
1405.53	107.41
1405.8	119.695
1406.07	113.521
1406.34	127.854
1406.61	140.14
1406.87	149.353
1407.14	168.834
1407.41	184.221
1407.68	208.84
1407.95	246.785
1408.22	279.609
1408.49	319.613
1408.76	347.318
1409.02	327.859
1409.29	279.687
1409.56	239.709
1409.83	196.646
1410.1	174.088
1410.37	133.056
1410.63	129.952
1410.9	110.434
1411.17	97.0736
1411.44	95.0008
1411.71	91.9098
1411.98	84.7254
1412.25	82.6728
1412.51	80.6345
1412.78	78.6072
1413.05	79.6814
1413.32	78.7496
1413.59	76.7424
1413.86	71.5493
1414.12	66.3274
1414.39	73.5201
1414.66	68.4378
1414.93	72.5758
1415.2	67.4372
1415.47	66.4122
1415.73	68.4651
1416	67.4397
1416.27	62.3106
1416.54	68.477
1416.81	64.375
1417.07	58.2183
1417.34	66.4425
1417.61	72.6139
1417.88	64.4012
1418.15	64.4042
1418.42	64.4047
1418.68	70.5724
1418.95	70.5751
1419.22	61.3261
1419.49	68.5206
1419.76	65.4297
1420.02	62.3344
1420.29	68.4845
1420.56	63.3357
1420.83	58.1878
1421.1	61.2542
1421.36	66.3743
1421.63	67.394
1421.9	61.2387
1422.17	63.3078
1422.44	63.3285
1422.7	63.3493
1422.97	65.4388
1423.24	55.2062
1423.51	67.6116
1423.77	57.1769
1424.04	68.3329
1424.31	66.2998
1424.58	64.1858
1424.85	64.1856
1425.11	65.2282
1425.38	69.3752
1425.65	61.1781
1425.92	67.3219
1426.19	64.267
1426.45	62.2099
1426.72	63.2237
1426.99	55.0034
1427.26	65.2386
1427.52	62.1442
1427.79	54.947
1428.06	60.0486
1428.33	60.038
1428.59	57.9857
1428.86	54.9141
1429.13	50.8208
1429.4	49.8003
1429.67	55.9504
1429.93	53.9097
1430.2	56.9943
1430.47	49.8351
1430.74	57.0204
1431	59.0879
1431.27	57.0618
1431.54	54.0023
1431.81	55.0373
1432.07	45.7994
1432.34	57.0782
1432.61	50.9081
1432.87	55.0028
1433.14	56.0107
1433.41	57.014
1433.68	54.9394
1433.95	57.9897
1434.21	52.8543
1434.48	49.7763
1434.75	57.9945
1435.01	53.9074
1435.28	56.9831
1435.55	53.9085
1435.82	56.9807
1436.08	53.9032
1436.35	49.8006
1436.62	52.87
1436.89	49.7909
1437.15	54.9071
1437.42	52.853
1437.69	51.8265
1437.95	55.9165
1438.22	46.6959
1438.49	47.7217
1438.76	47.7283
1439.02	52.8542
1439.29	60.0264
1439.56	50.8081
1439.82	59.0129
1440.09	51.8512
1440.36	54.9408
1440.63	47.7695
1440.89	52.8989
1441.16	48.7972
1441.43	48.7992
1441.69	49.8201
1441.96	50.8362
1442.23	46.7302
1442.49	47.7645
1442.76	50.8413
1443.03	48.7995
1443.3	46.7414
1443.56	50.834
1443.83	47.7502
1444.1	48.7697
1444.36	51.8423
1444.63	50.8197
1444.9	56.9864
1445.16	54.9483
1445.43	49.8351
1445.7	49.8301
1445.97	53.9281
1446.23	43.6647
1446.5	51.8659
1446.77	48.7842
1447.03	54.933
1447.3	52.8769
1447.57	51.8453
1447.83	54.9138
1448.1	44.6556
1448.37	50.8056
1448.63	47.7377
1448.9	49.7989
1449.17	54.9296
1449.43	50.8254
1449.7	52.8714
1449.97	50.8128
1450.23	49.7783
1450.5	47.719
1450.77	48.7391
1451.03	46.6845
1451.3	50.7795
1451.57	46.675
1451.83	43.5953
1452.1	48.7132
1452.37	52.8068
1452.63	52.8038
1452.9	42.5584
1453.17	49.7318
1453.43	45.6379
1453.7	46.6663
1453.97	45.641
1454.23	41.5379
1454.5	47.683
1454.77	43.5833
1455.03	43.5825
1455.3	52.8027
1455.56	48.6998
1455.83	45.626
1456.1	47.6829
1456.36	50.7614
1456.63	42.561
1456.9	42.5565
1457.16	49.7212
1457.43	45.6141
1457.7	43.5608
1457.96	47.6547
1458.23	41.5057
1458.49	43.5538
1458.76	48.6761
1459.03	49.7026
1459.29	45.606
1459.56	44.5822
1459.82	41.5085
1460.09	43.5552
1460.36	45.6004
1460.62	47.6451
1460.89	54.8107
1461.16	42.513
1461.42	44.5547
1461.69	39.428
1461.95	40.4452
1462.22	47.6032
1462.49	44.523
1462.75	40.4198
1463.02	44.5024
1463.28	43.4682
1463.55	49.5925
1463.82	38.3345
1464.08	43.4441
1464.35	35.2754
1464.61	43.4765
1464.88	42.4678
1465.15	43.5112
1465.41	43.4764
1465.68	36.2456
1465.94	44.3791
1466.21	45.3943
1466.48	43.366
1466.74	42.3402
1467.01	41.3001
1467.27	49.4547
1467.54	44.3574
1467.8	42.3133
1468.07	40.2691
1468.34	44.3466
1468.6	43.3248
1468.87	43.3229
1469.13	43.3195
1469.4	44.3341
1469.67	40.2486
1469.93	47.3768
1470.2	42.2679
1470.46	36.1439
1470.73	40.214
1470.99	41.2271
1471.26	39.1855
1471.53	44.2725
1471.79	42.2258
1472.06	47.3107
1472.32	45.2698
1472.59	41.1941
1472.85	42.2102
1473.12	47.299
1473.39	40.1675
1473.65	34.0527
1473.92	40.1536
1474.18	43.2008
1474.45	41.1614
1474.71	44.2133
1474.98	41.1632
1475.24	41.165
1475.51	40.1468
1475.78	44.2157
1476.04	39.1221
1476.31	40.1334
1476.57	44.1984
1476.84	40.1239
1477.1	43.1682
1477.37	39.0917
1477.63	40.1044
1477.9	35.0172
1478.16	39.083
1478.43	47.2121
1478.69	39.0688
1478.96	41.0949
1479.22	39.0551
1479.49	42.0959
1479.76	40.0549
1480.02	40.0451
1480.29	39.02
1480.55	42.0504
1480.82	37.9774
1481.08	41.013
1481.35	37.9643
1481.61	42.0145
1481.88	39.9884
1482.14	43.0381
1482.41	43.0451
1482.67	36.9624
1482.94	37.9826
1483.2	37.9815
1483.47	35.9545
1483.73	33.925
1484	42.0479
1484.26	41.03
1484.53	39.9972
1484.79	38.959
1485.06	40.9425
1485.32	42.9094
1485.59	40.8641
1485.85	43.8635
1486.12	41.9394
1486.38	44.9907
1486.65	42.9794
1486.91	39.8941
1487.18	47.0065
1487.44	37.8922
1487.71	42.9453
1487.97	41.9214
1488.24	34.8253
1488.5	40.894
1488.77	43.9209
1489.03	34.8001
1489.3	42.8879
1489.56	39.8466
1489.83	35.7952
1490.09	34.78
1490.36	41.8604
1490.62	40.8471
1490.89	45.8987
1491.15	41.8431
1491.42	45.8783
1491.68	39.8066
1491.95	38.7928
1492.21	45.8687
1492.48	35.7593
1492.74	38.7901
1493	36.7651
1493.27	35.7519
1493.53	37.7727
1493.8	42.8232
1494.06	37.7665
1494.33	42.8201
1494.59	37.7675
1494.86	40.8027
1495.12	41.811
1495.39	38.7708
1495.65	44.8213
1495.92	38.743
1496.18	39.7404
1496.45	41.7514
1496.71	43.7637
1496.97	40.7289
1497.24	39.7129
1497.5	41.7301
1497.77	38.7009
1498.03	40.7161
1498.3	44.7509
1498.56	42.7318
1498.82	34.658
1499.09	41.723
1499.35	37.6866
1499.62	40.7162
1499.88	40.7189
1500.15	40.7214
1500.41	42.7411
1500.68	41.7302
1500.94	38.6991
1501.2	43.7444
1501.47	40.7104
1501.73	39.6922
1502	38.6795
1502.26	42.7138
1502.52	37.6656
1502.79	40.6879
1503.05	43.7045
1503.32	37.6431
1503.58	44.6969
1503.85	39.6463
1504.11	39.6451
1504.37	41.6647
1504.64	38.6403
1504.9	33.5973
1505.17	38.6368
1505.43	39.64
1505.7	38.6246
1505.96	41.6362
1506.22	37.59
1506.49	40.6087
1506.75	36.5767
1507.02	40.6072
1507.28	41.6198
1507.54	44.6434
1507.81	39.6059
1508.07	39.6045
1508.34	38.5932
1508.6	37.5824
1508.86	41.6125
1509.13	39.5978
1509.39	39.5974
1509.66	42.6187
1509.92	41.6099
1510.18	41.6136
1510.45	37.5841
1510.71	43.6215
1510.98	37.5672
1511.24	42.5934
1511.5	38.5525
1511.77	41.5552
1512.03	34.49
1512.29	39.4979
1512.56	36.462
1512.82	37.4499
1513.08	39.4475
1513.35	41.4455
1513.61	38.4246
1513.88	38.4204
1514.14	39.4326
1514.4	39.4472
1514.67	42.4637
1514.93	30.4046
1515.2	41.4427
1515.46	40.4265
1515.72	34.3928
1515.99	44.415
1516.25	43.3974
1516.51	40.3784
1516.78	42.3789
1517.04	35.3555
1517.3	44.3759
1517.57	40.3631
1517.83	42.3681
1518.09	40.3648
1518.36	42.3771
1518.62	36.3607
1518.88	41.3775
1519.15	40.3759
1519.41	37.369
1519.67	36.3678
1519.94	39.3785
1520.2	35.3634
1520.47	36.3623
1520.73	39.3681
1520.99	40.3726
1521.26	39.3724
1521.52	36.3649
1521.78	35.3618
1522.05	36.3627
1522.31	35.355
1522.57	42.3722
1522.84	44.3721
1523.1	37.3457
1523.36	42.3523
1523.62	38.3284
1523.89	39.3139
1524.15	37.2985
1524.41	40.2944
1524.68	40.2862
1524.94	38.2761
1525.2	41.2838
1525.47	39.2818
1525.73	41.2853
1525.99	39.2872
1526.26	41.2974
1526.52	39.3034
1526.78	41.3153
1527.05	37.3081
1527.31	37.3062
1527.57	46.3198
1527.84	43.3093
1528.1	35.2878
1528.36	43.2999
1528.63	36.2804
1528.89	40.2825
1529.15	43.2829
1529.41	37.2697
1529.68	40.2729
1529.94	36.2629
1530.2	42.2644
1530.47	38.256
1530.73	39.2601
1530.99	37.2639
1531.25	39.2745
1531.52	40.2817
1531.78	40.2816
1532.04	42.2818
1532.31	40.2779
1532.57	35.262
1532.83	41.2773
1533.09	37.2785
1533.36	36.2886
1533.62	38.305
1533.88	39.3127
1534.15	37.3086
1534.41	40.3167
1534.67	42.3196
1534.94	35.294
1535.2	39.3009
1535.46	33.2793
1535.72	40.2903
1535.99	42.273
1536.25	39.2533
1536.51	39.2433
1536.77	36.2245
1537.04	45.218
1537.3	39.1982
1537.56	41.1926
1537.82	39.1813
1538.09	41.1812
1538.35	42.1717
1538.61	40.1577
1538.87	36.154
1539.14	39.148
1539.4	41.1576
1539.66	38.1794
1539.92	34.2026
1540.19	40.229
1540.45	39.2434
1540.71	38.2575
1540.97	37.2645
1541.24	39.2734
1541.5	37.2509
1541.76	35.2432
1542.02	36.2344
1542.29	41.2335
1542.55	36.2138
1542.81	34.2007
1543.07	40.1984
1543.34	41.1891
1543.6	40.177
1543.86	39.1622
1544.12	42.1477
1544.39	41.1485
1544.65	40.1499
1544.91	38.1568
1545.17	38.1676
1545.43	38.1752
1545.7	35.186
1545.96	38.1973
1546.22	38.2014
1546.48	41.2099
1546.74	39.203
1547.01	38.2022
1547.27	40.2093
1547.53	44.2211
1547.79	40.2166
1548.06	40.2066
1548.32	38.1815
1548.58	40.1831
1548.84	43.1884
1549.1	38.192
1549.37	40.1564
1549.63	40.1128
1549.89	38.1037
1550.15	34.1242
1550.42	41.1676
1550.68	39.2252
1550.94	41.2758
1551.2	43.3253
1551.46	34.2584
1551.73	39.2813
1551.99	35.2566
1552.25	38.255
1552.51	38.2715
1552.77	36.2777
1553.03	36.2718
1553.3	42.2843
1553.56	40.2451
1553.82	39.2344
1554.08	42.2392
1554.34	43.2323
1554.61	39.2083
1554.87	41.1983
1555.13	43.1861
1555.39	42.1777
1555.65	39.1687
1555.91	38.1657
1556.18	40.1707
1556.44	42.1737
1556.7	42.1661
1556.96	42.1656
1557.22	43.1691
1557.48	38.1617
1557.75	39.1632
1558.01	37.1564
1558.27	34.1437
1558.53	41.1403
1558.79	42.1297
1559.06	40.1127
1559.32	36.0977
1559.58	39.087
1559.84	39.0772
1560.1	38.0694
1560.36	37.0632
1560.63	39.0571
1560.89	40.0522
1561.15	39.0494
1561.41	41.0466
1561.67	35.0522
1561.93	40.0556
1562.19	39.066
1562.46	39.0769
1562.72	44.077
1562.98	39.0733
1563.24	40.069
1563.5	39.0699
1563.76	40.0649
1564.02	36.0617
1564.29	40.0748
1564.55	37.0878
1564.81	37.0915
1565.07	33.085
1565.33	39.0656
1565.59	35.9988
1565.85	39.892
1566.11	36.8549
1566.38	36.0114
1566.64	39.0552
1566.9	37.0345
1567.16	37.0083
1567.42	39.0377
1567.68	35.07
1567.94	37.0612
1568.2	38.0331
1568.47	32.0383
1568.73	33.0418
1568.99	39.0429
1569.25	41.0378
1569.51	42.0207
1569.77	40.0118
1570.03	43.009
1570.29	41.0127
1570.55	40.0132
1570.82	40.0127
1571.08	40.0108
1571.34	37.0099
1571.6	38.0047
1571.86	41.9939
1572.12	40.9862
1572.38	38.986
1572.64	38.9799
1572.9	40.9682
1573.17	37.9657
1573.43	37.9591
1573.69	40.946
1573.95	38.943
1574.21	41.9369
1574.47	36.9526
1574.73	34.9634
1574.99	39.9643
1575.25	36.9769
1575.51	34.9867
1575.78	33.993
1576.04	38.9905
1576.3	41.9845
1576.56	38.9847
1576.82	40.9775
1577.08	35.9688
1577.34	37.9505
1577.6	40.9297
1577.86	32.9317
1578.12	43.892
1578.38	36.8973
1578.64	33.8982
1578.9	41.8705
1579.17	39.8752
1579.43	41.8676
1579.69	37.8792
1579.95	37.8804
1580.21	37.885
1580.47	36.8895
1580.73	35.892
1580.99	38.8809
1581.25	36.8811
1581.51	39.8647
1581.77	40.855
1582.03	42.8386
1582.29	42.8282
1582.55	40.8313
1582.81	39.831
1583.07	38.8306
1583.33	40.8194
1583.59	38.8249
1583.85	37.8268
1584.11	37.8218
1584.38	39.8125
1584.64	41.807
1584.9	40.8127
1585.16	39.8172
1585.42	36.8274
1585.68	41.8045
1585.94	35.8261
1586.2	41.7971
1586.46	42.7817
1586.72	42.7698
1586.98	37.7844
1587.24	39.7684
1587.5	39.763
1587.76	41.7483
1588.02	38.7604
1588.28	45.724
1588.54	42.7417
1588.8	37.7701
1589.06	37.7747
1589.32	43.7507
1589.58	35.7913
1589.84	43.7585
1590.1	42.7633
1590.36	39.7752
1590.62	41.7688
1590.88	36.7937
1591.14	37.792
1591.4	44.761
1591.66	36.7926
1591.92	42.7638
1592.18	39.771
1592.44	36.7743
1592.7	37.7564
1592.96	39.7361
1593.22	37.7391
1593.48	39.7127
1593.74	37.7072
1594	38.6837
1594.26	39.6657
1594.52	37.6726
1594.78	45.6174
1595.04	46.6153
1595.3	44.6367
1595.56	39.6733
1595.82	45.6344
1596.08	43.6255
1596.34	35.6777
1596.6	37.663
1596.86	35.6758
1597.12	38.6559
1597.38	44.6175
1597.64	41.6402
1597.9	36.6753
1598.16	30.7124
1598.42	40.6421
1598.68	39.6403
1598.94	39.6282
1599.2	41.6025
1599.46	37.6234
1599.72	41.5851
1599.98	40.5845
1600.24	43.5523
1600.5	38.5847
1600.76	42.5425
1601.02	38.565
1601.28	41.5249
1601.54	45.4727
1601.8	46.447
1602.06	41.482
1602.32	45.432
1602.58	48.3912
1602.84	37.4939
1603.1	36.4941
1603.36	38.4629
1603.62	38.4544
1603.88	44.3812
1604.14	45.3651
1604.4	42.3967
1604.66	40.4189
1604.92	43.3853
1605.17	42.3959
1605.43	39.4294
1605.69	36.4633
1605.95	43.3876
1606.21	45.3698
1606.47	38.4507
1606.73	41.4226
1606.99	43.4048
1607.25	37.4921
1607.51	39.4723
1607.77	42.4373
1608.03	37.6322
1608.29	43.2647
1608.55	46.0105
1608.81	40.4255
1609.07	40.4654
1609.32	39.2766
1609.58	42.3825
1609.84	39.097
1610.1	39.617
1610.36	42.1154
1610.62	43.7272
1610.88	45.4135
1611.14	43.6815
1611.4	47.1813
1611.66	39.084
1611.92	39.0357
1612.18	41.6088
1612.44	38.7166
1612.69	45.1982
1612.95	39.775
1613.21	36.1645
1613.47	38.641
1613.73	41.7947
1613.99	42.7712
1614.25	43.5723
1614.51	42.3007
1614.77	42.3011
1615.03	39.673
1615.29	38.0023
1615.54	40.4136
1615.8	44.2674
1616.06	37.9212
1616.32	41.5473
1616.58	41.4357
1616.84	38.3392
1617.1	45.0374
1617.36	44.4337
1617.62	40.5023
1617.88	41.0572
1618.13	41.3296
1618.39	41.9103
1618.65	42.9171
1618.91	45.5384
1619.17	43.7986
1619.43	43.6572
1619.69	40.9228
1619.95	42.9903
1620.2	43.1759
1620.46	40.9259
1620.72	44.6262
1620.98	43.0161
1621.24	43.7375
1621.5	43.2161
1621.76	42.6464
1622.02	44.182
1622.27	42.9519
1622.53	43.5814
1622.79	42.1868
1623.05	43.5709
1623.31	42.7627
1623.57	40.5304
1623.83	39.4209
1624.09	41.5446
1624.34	42.5557
1624.6	40.8205
1624.86	43.0496
1625.12	42.575
1625.38	43.4796
1625.64	43.0078
1625.9	41.1947
1626.15	38.7923
1626.41	43.2312
1626.67	45.6905
1626.93	45.0342
1627.19	43.8459
1627.45	43.2266
1627.7	42.6186
1627.96	43.3104
1628.22	41.1264
1628.48	41.311
1628.74	41.3895
1629	45.4421
1629.26	41.3259
1629.51	41.2815
1629.77	42.5711
1630.03	42.4541
1630.29	41.4294
1630.55	43.894
1630.81	42.9586
1631.06	42.4232
1631.32	42.3351
1631.53	39.2709
1631.79	48.142
1632.05	48.1496
1632.31	47.1711
1632.57	49.1385
1632.84	42.2504
1633.1	42.2703
1633.36	41.2682
1633.62	45.1877
1633.88	44.1961
1634.14	47.1573
1634.4	50.1204
1634.66	39.2795
1634.93	43.222
1635.19	44.2058
1635.45	43.2173
1635.71	42.2279
1635.97	45.1798
1636.23	45.174
1636.49	42.2114
1636.75	47.1308
1637.02	46.1382
1637.28	44.1599
1637.54	45.1354
1637.8	44.1455
1638.06	41.1889
1638.32	45.122
1638.58	39.2098
1638.84	44.1272
1639.1	41.1735
1639.37	41.1723
1639.63	43.1394
1639.89	37.2318
1640.15	42.1516
1640.41	42.1488
1640.67	45.1019
1640.93	40.1864
1641.19	41.1752
1641.46	44.1297
1641.72	42.1561
1641.98	41.1658
1642.24	40.1772
1642.5	44.1116
1642.76	50.9992
1643.02	44.1053
1643.28	44.1026
1643.54	45.0846
1643.8	40.1608
1644.06	45.0773
1644.33	43.103
1644.59	41.1272
1644.85	43.0882
1645.11	40.1342
1645.37	42.1037
1645.63	42.108
1645.89	40.1418
1646.15	48.0138
1646.41	46.0398
1646.67	42.0976
1646.93	40.1244
1647.19	43.0717
1647.46	41.0989
1647.72	40.1096
1647.98	46.9888
1648.24	41.0861
1648.5	44.0367
1648.76	45.0267
1649.02	45.0341
1649.28	48.0082
1649.54	43.0937
1649.8	41.1189
1650.06	39.1445
1650.32	44.0646
1650.58	42.107
1650.85	43.1006
1651.11	41.1372
1651.37	45.0847
1651.63	45.0893
1651.89	45.0905
1652.15	46.075
1652.41	38.1902
1652.67	42.1324
1652.93	40.1562
1653.19	45.0766
1653.45	40.1468
1653.71	46.0571
1653.97	38.1756
1654.23	41.1343
1654.49	46.0631
1654.75	45.0782
1655.01	42.1233
1655.27	41.1416
1655.53	45.0922
1655.8	41.159
1656.06	41.1723
1656.32	40.194
1656.57	41.186
1656.84	45.1367
1657.1	45.1375
1657.36	41.1866
1657.62	38.2208
1657.88	46.1107
1658.14	43.1459
1658.4	45.115
1658.66	40.1756
1658.92	41.1553
1659.18	38.1889
1659.44	37.1957
1659.7	41.1335
1659.96	40.1402
1660.22	43.0876
1660.48	42.1041
1660.74	43.0941
1661	42.1134
1661.26	47.0511
1661.52	39.1666
1661.78	42.1334
1662.04	42.1357
1662.3	40.1639
1662.56	40.1265
1662.82	44.1515
1663.08	39.2511
1663.34	43.1821
1663.6	43.176
1663.86	45.1399
1664.12	43.0749
1664.38	42.1316
1664.64	46.0896
1664.9	42.143
1665.16	40.1868
1665.42	42.1696
1665.68	38.1755
1665.94	41.0974
1666.2	44.1663
1666.46	38.2414
1666.72	42.1912
1666.98	41.1443
1667.24	42.0014
1667.5	43.1095
1667.76	45.073
1668.02	40.1302
1668.28	41.1116
1668.54	47.0229
1668.8	40.1167
1669.06	41.1203
1669.32	40.1544
1669.58	42.1329
1669.84	45.0958
1670.1	44.1085
1670.36	38.1766
1670.62	44.1015
1670.88	43.1346
1671.14	41.1705
1671.4	40.1766
1671.66	44.1257
1671.92	37.2042
1672.18	45.1116
1672.44	37.2064
1672.69	38.1949
1672.95	38.1934
1673.21	40.169
1673.47	40.1689
1673.73	36.2149
1673.99	44.1254
1674.25	40.1736
1674.51	42.1556
1674.77	48.0937
1675.03	39.1961
1675.29	42.1702
1675.55	41.1859
1675.81	37.2297
1676.07	41.1875
1676.33	41.1856
1676.59	43.165
1676.85	42.1763
1677.11	37.2274
1677.37	39.2051
1677.63	39.2016
1677.89	41.176
1678.14	41.1689
1678.4	40.1705
1678.66	41.1497
1678.92	43.1188
1679.18	38.1679
1679.44	36.1848
1679.7	43.1002
1679.96	38.1524
1680.22	36.1706
1680.48	44.0727
1680.74	39.1261
1681	41.097
1681.26	39.1162
1681.52	37.1371
1681.78	38.1231
1682.03	38.1214
1682.29	39.108
1682.55	37.1312
1682.81	44.0463
1683.07	41.0794
1683.33	41.077
1683.59	42.063
1683.85	40.0859
1684.11	39.0957
1684.37	42.0553
1684.63	41.06
1684.89	39.0801
1685.14	38.0893
1685.4	43.0241
1685.66	35.1223
1685.92	41.0456
1686.18	39.0696
1686.44	40.0567
1686.7	43.0214
1686.96	43.0287
1687.22	40.0681
1687.48	38.0919
1687.73	39.0755
1687.99	38.082
1688.25	42.0268
1688.51	39.0591
1688.77	39.0535
1689.03	46.9447
1689.29	35.0888
1689.55	40.0161
1689.81	39.0211
1690.06	36.0527
1690.32	41.9612
1690.58	38.0123
1690.84	39.9926
1691.1	46.9026
1691.36	39.0119
1691.62	36.0523
1691.88	40.9891
1692.13	40.0044
1692.39	35.0684
1692.65	36.052
1692.91	38.019
1693.17	34.0642
1693.43	38.987
1693.69	37.9893
1693.95	41.9198
1694.2	36.9823
1694.46	40.9153
1694.72	35.9797
1694.98	35.9732
1695.24	38.9264
1695.5	39.9124
1695.76	38.9281
1696.01	38.929
1696.27	40.9009
1696.53	39.9197
1696.79	37.9511
1697.05	34.9929
1697.31	42.8717
1697.57	35.9658
1697.82	39.8954
1698.08	42.8378
1698.34	37.905
1698.6	34.9441
1698.86	38.8738
1699.12	36.8992
1699.38	38.8631
1699.63	36.8929
1699.89	36.8936
1700.15	37.8766
1700.41	39.8439
1700.67	32.9484
1700.92	42.7837
1701.18	42.7805
1701.44	36.8745
1701.7	41.788
1701.96	40.7965
1702.22	42.7537
1702.47	36.8462
1702.73	36.8377
1702.99	42.726
1703.25	40.7569
1703.51	38.7891
1703.77	33.8725
1704.02	39.7628
1704.28	34.847
1704.54	38.7788
1704.8	38.7826
1705.06	34.8517
1705.32	37.7966
1705.57	34.8452
1705.83	36.809
1706.09	38.7728
1706.35	44.66
1706.61	35.8093
1706.86	36.7816
1707.12	31.8626
1707.38	41.6683
1707.64	37.733
1707.9	38.7027
1708.16	38.6892
1708.41	37.6954
1708.67	35.7221
1708.93	36.6877
1709.19	38.6334
1709.44	30.79
1709.7	40.5743
1709.96	40.5701
1710.22	40.5681
1710.48	32.7359
1710.73	33.7145
1710.99	41.5485
1711.25	34.6987
1711.51	38.6178
1711.77	34.7022
1712.02	37.6419
1712.28	40.5796
1712.54	40.5738
1712.8	37.6239
1713.06	38.586
1713.31	37.59
1713.57	40.5075
1713.83	32.6714
1714.09	40.4753
1714.34	39.4895
1714.6	38.5064
1714.86	36.548
1715.12	39.4747
1715.38	34.5891
1715.63	42.4086
1715.89	34.5997
1716.15	42.4148
1716.41	37.5249
1716.66	40.4488
1716.92	38.4856
1717.18	42.379
1717.44	36.5068
1717.69	39.4171
1717.95	37.4461
1718.21	41.3274
1718.47	41.3104
1718.72	30.5816
1718.98	36.4163
1719.24	39.3314
1719.5	39.3293
1719.75	38.3539
1720.01	41.271
1720.27	35.4308
1720.53	36.4045
1720.78	40.294
1721.04	39.312
1721.3	42.2196
1721.56	39.2905
1721.81	37.3359
1722.07	35.3811
1722.33	36.3433
1722.59	40.2208
1722.84	42.1529
1723.1	37.2839
1723.36	38.246
1723.62	35.3246
1723.87	37.2613
1724.13	39.2017
1724.39	41.139
1724.64	36.2809
1724.9	36.2737
1725.16	39.1744
1725.42	40.128
1725.67	36.2334
1725.93	37.1879
1726.19	35.2392
1726.45	41.048
1726.7	38.1422
1726.96	38.138
1727.22	39.1
1727.47	42.9591
1727.73	41.0196
1727.99	38.1216
1728.24	37.1492
1728.5	43.9215
1728.76	36.1582
1729.02	37.0744
1729.27	39.9126
1729.53	40.8537
1729.79	37.0142
1730.05	40.8953
1730.3	38.9773
1730.56	38.9524
1730.82	39.9059
1731.07	43.7619
1731.33	38.9776
1731.59	37.046
1731.84	38.0118
1732.1	41.8754
1732.36	35.1069
1732.61	38.001
1732.87	37.0294
1733.13	37.9885
1733.39	41.8425
1733.64	32.1731
1733.9	42.776
1734.16	36.0036
1734.41	40.8137
1734.67	39.8356
1734.93	37.8939
1735.18	37.8803
1735.44	41.7199
1735.7	40.7439
1735.95	41.6969
1736.21	39.764
1736.47	36.8715
1736.72	36.8664
1736.98	38.7848
1737.24	37.8161
1737.49	39.7333
1737.75	35.8791
1738.01	40.682
1738.26	38.7505
1738.52	36.8182
1738.78	41.6151
1739.03	39.6831
1739.29	36.7901
1739.55	34.8573
1739.8	34.843
1740.06	39.6245
1740.32	41.525
1740.57	38.6314
1740.83	38.618
1741.09	39.5656
1741.34	33.8067
1741.6	41.4613
1741.86	37.6207
1742.11	40.4859
1742.37	34.7355
1742.63	39.5192
1742.88	35.6854
1743.14	38.5521
1743.4	37.5911
1743.65	41.4174
1743.91	38.5408
1744.16	37.5748
1744.42	38.5237
1744.68	37.5601
1744.93	35.6431
1745.19	41.3807
1745.45	35.6409
1745.7	35.6396
1745.96	39.4623
1746.22	39.456
1746.47	35.6222
1746.73	43.259
1746.98	38.4667
1747.24	38.4565
1747.5	41.3096
1747.75	37.4793
1748.01	37.4692
1748.27	46.0548
1748.52	39.3705
1748.78	38.4151
1749.03	37.4607
1749.29	35.5526
1749.55	37.4649
1749.8	44.1542
1750.06	38.4307
1750.32	35.572
1750.57	31.7566
1750.83	34.6294
1751.08	41.322
1751.34	42.2814
1751.6	40.3692
1751.85	40.3628
1752.11	39.3943
1752.36	42.2471
1752.62	41.281
1752.88	42.2258
1753.13	43.1697
1753.39	43.1588
1753.64	38.3779
1753.9	44.0948
1754.15	36.4546
1754.41	39.3066
1754.67	41.2037
1754.92	37.3825
1755.18	41.189
1755.43	42.1362
1755.69	37.3643
1755.95	36.4039
1756.2	46.8745
1756.46	39.242
1756.71	39.2303
1756.97	39.2163
1757.23	35.3962
1757.48	39.1899
1757.74	39.1838
1757.99	39.1778
1758.25	40.13
1758.5	38.2377
1758.76	42.0461
1759.02	38.2396
1759.27	38.2387
1759.53	40.1411
1759.78	41.0935
1760.04	42.9948
1760.3	38.2325
1760.55	43.9368
1760.81	42.0285
1761.06	40.1198
1761.32	42.0144
1761.57	35.3482
1761.83	39.1437
1762.08	39.1375
1762.34	38.1827
1762.6	41.982
1762.85	41.9879
1763.11	39.1388
1763.36	35.335
1763.62	39.1354
1763.87	41.037
1764.13	41.0387
1764.38	41.9927
1764.64	38.1953
1764.89	43.9176
1765.15	42.0198
1765.4	39.1685
1765.66	40.1229
1765.92	41.0764
1766.17	37.2683
1766.43	39.1713
1766.68	39.1687
1766.94	40.1163
1767.19	38.2084
1767.45	43.9179
1767.7	40.1058
1767.96	41.0507
1768.21	40.0916
1768.47	41.0372
1768.73	43.8864
1768.98	40.0768
1769.24	37.2064
1769.49	40.9861
1769.75	40.9637
1770	39.9988
1770.26	38.0996
1770.51	40.0069
1770.77	41.9157
1771.02	44.7654
1771.28	38.1164
1771.53	41.9269
1771.79	40.0392
1772.04	42.8958
1772.3	36.2403
1772.55	41.0005
1772.81	41.0076
1773.06	42.9156
1773.32	43.8712
1773.57	43.8751
1773.83	36.264
1774.08	41.9775
1774.34	39.1237
1774.59	37.2207
1774.85	43.8857
1775.1	41.034
1775.36	41.036
1775.61	40.0896
1775.87	41.0595
1776.12	42.9752
1776.38	38.213
1776.63	38.2132
1776.89	42.9767
1777.14	42.0168
1777.4	43.9144
1777.65	40.0967
1777.91	41.041
1778.16	41.985
1778.42	34.3568
1778.67	42.9195
1778.93	40.053
1779.18	44.8001
1779.44	41.9318
1779.69	43.8264
1779.95	40.019
1780.2	37.1743
1780.46	40.9826
1780.71	40.0325
1780.97	35.2754
1781.22	37.1817
1781.47	41.9412
1781.73	42.8938
1781.98	40.04
1782.24	43.8534
1782.49	44.8117
1782.75	36.2471
1783	39.1098
1783.26	38.1603
1783.51	41.9754
1783.77	45.7923
1784.02	39.124
1784.28	40.0819
1784.53	40.0879
1784.79	37.2353
1785.04	40.102
1785.29	44.8746
1785.55	42.9652
1785.8	39.1454
1786.06	40.0941
1786.31	39.1347
1786.57	41.0419
1786.82	35.3202
1787.08	39.1413
1787.33	37.2397
1787.58	36.2941
1787.84	41.0815
1788.09	38.2383
1788.35	36.3492
1788.6	40.1984
1788.86	41.1715
1789.11	34.4755
1789.37	42.1436
1789.62	39.2842
1789.87	38.3346
1790.13	41.2136
1790.38	44.0933
1790.64	41.222
1790.89	41.2212
1791.15	39.3008
1791.4	38.3322
1791.65	40.2232
1791.91	32.5564
1792.16	39.2557
1792.42	39.2549
1792.67	37.3399
1792.93	35.4251
1793.18	38.3022
1793.43	36.3882
1793.69	33.5138
1793.94	40.2192
1794.2	39.2651
1794.45	41.1819
1794.7	36.3889
1794.96	38.2982
1795.21	37.3495
1795.47	38.3364
1795.72	34.5166
1795.97	42.2033
1796.23	38.3687
1796.48	42.2154
1796.74	43.1826
1796.99	36.4658
1797.25	38.3936
1797.5	34.5556
1797.75	32.6377
1798.01	29.7569
1798.26	38.4116
1798.51	33.6065
1798.77	39.3766
1799.02	36.491
1799.28	39.3723
1799.53	36.4825
1799.78	36.4755
1800.04	33.5839
1800.29	35.4983
1800.55	39.3351
1800.8	36.4472
1801.05	31.6397
1801.31	37.3997
1801.56	30.6737
1801.81	36.4355
1802.07	34.5144
1802.32	37.3974
1802.58	37.3997
1802.83	38.3643
1803.08	36.4475
1803.34	35.4923
1803.59	31.653
1803.84	34.5421
1804.1	36.4674
1804.35	34.5446
1804.61	36.4716
1804.86	29.7428
1805.11	34.5583
1805.37	33.6023
1805.62	37.4603
1805.87	36.5053
1806.13	35.5488
1806.38	35.5538
1806.64	34.5947
1806.89	33.6345
1807.14	39.4187
1807.4	35.5637
1807.65	38.4542
1807.9	32.6703
1808.16	36.5247
1808.41	37.4879
1808.66	35.5598
1808.92	38.4514
1809.17	33.6319
1809.42	40.3798
1809.68	35.5599
1809.93	39.4165
1810.18	35.5604
1810.44	35.5604
1810.69	35.5595
1810.94	36.5206
1811.2	38.4457
1811.45	34.5876
1811.7	37.4777
1811.96	37.4759
1812.21	36.511
1812.46	39.4039
1812.72	38.4427
1812.97	35.5538
1813.22	37.488
1813.48	35.5628
1813.73	39.4227
1813.98	34.6026
1814.24	37.5044
1814.49	41.3748
1814.74	36.5569
1815	39.4657
1815.25	29.8103
1815.5	34.6454
1815.76	39.4792
1816.01	36.5806
1816.26	36.5811
1816.52	36.5818
1816.77	34.6497
1817.02	39.4846
1817.27	37.5477
1817.53	32.7083
1817.78	36.556
1818.03	32.6794
1818.29	35.5772
1818.54	34.6163
1818.79	33.6582
1819.05	34.6287
1819.3	37.5247
1819.55	34.6269
1819.8	37.5295
1820.06	32.6992
1820.31	36.5681
1820.56	37.538
1820.82	31.7397
1821.07	35.6105
1821.32	36.5798
1821.58	40.4531
1821.83	33.6855
1822.08	37.5599
1822.33	35.6274
1822.59	36.5974
1822.84	35.6306
1823.09	35.6314
1823.34	31.7595
1823.6	36.598
1823.85	34.6576
1824.1	41.4281
1824.36	33.6828
1824.61	35.6201
1824.86	35.622
1825.11	34.6557
1825.37	37.5626
1825.62	32.7237
1825.87	39.5037
1826.12	30.7873
1826.38	33.6912
1826.63	37.5644
1826.88	34.6587
1827.14	36.5953
1827.39	42.4079
1827.64	32.7239
1827.89	40.4766
1828.15	38.5416
1828.4	36.6027
1828.65	39.5066
1828.9	32.72
1829.16	36.5886
1829.41	40.4581
1829.66	37.5497
1829.91	37.547
1830.17	37.5435
1830.42	35.6012
1830.67	41.4052
1830.92	41.3995
1831.18	39.4622
1831.43	37.5288
1831.68	38.501
1831.93	36.5681
1832.19	36.5714
1832.44	32.6998
1832.69	35.6098
1832.94	40.4613
1833.2	35.6196
1833.45	35.619
1833.7	39.4958
1833.95	36.59
1834.2	38.5294
1834.46	35.6222
1834.71	36.5809
1834.96	33.6541
1835.21	40.4141
1835.47	37.4906
1835.72	38.4458
1835.97	39.4013
1836.22	34.5631
1836.48	35.5208
1836.73	37.6058
1836.98	32.7454
1837.23	37.5478
1837.48	40.436
1837.74	37.5007
1837.99	43.2829
1838.24	38.4034
1838.49	36.4461
1838.74	38.3725
1839	32.6292
1839.25	36.5255
1839.5	31.6936
1839.75	33.6348
1840	37.5145
1840.26	36.5533
1840.51	33.613
1840.76	30.6848
1841.01	41.3045
1841.27	35.482
1841.52	38.3627
1841.77	31.5835
1842.02	31.5694
1842.27	39.2772
1842.53	38.2978
1842.78	36.3549
1843.03	40.2185
1843.28	40.2132
1843.53	39.2518
1843.78	34.4268
1844.04	37.3194
1844.29	34.4206
1844.54	31.5255
1844.79	36.3513
1845.04	43.1035
1845.3	32.4854
1845.55	34.4144
1845.8	35.378
1846.05	35.3913
1846.3	36.371
1846.55	34.4525
1846.81	35.442
1847.06	39.2847
1847.31	32.4751
1847.56	38.1964
1847.81	35.2946
1848.07	32.4062
1848.32	34.3475
1848.57	35.3258
1848.82	33.3802
1849.07	34.3327
1849.32	37.221
1849.57	36.2497
1849.83	36.238
1850.08	34.3011
1850.33	37.1751
1850.58	30.4297
1850.83	34.264
1851.09	31.371
1851.34	35.2057
1851.59	33.2767
1851.84	42.8742
1852.09	34.226
1852.34	35.1833
1852.59	35.1817
1852.84	31.3395
1853.1	35.179
1853.35	34.2165
1853.6	39.0137
1853.85	36.128
1854.1	32.2801
1854.35	36.1081
1854.6	34.1765
1854.86	34.1654
1855.11	33.1999
1855.36	32.2348
1855.61	33.1825
1855.86	34.1283
1856.11	33.1627
1856.36	32.2005
1856.61	34.1131
1856.87	33.154
1857.12	35.068
1857.37	31.2341
1857.62	33.1454
1857.87	32.1825
1858.12	34.0922
1858.37	36.0001
1858.63	33.1201
1858.88	27.3698
1859.13	38.8423
1859.38	35.9621
1859.63	33.0829
1859.88	32.1197
1860.13	33.0736
1860.38	30.2044
1860.63	34.0293
1860.89	29.2531
1861.14	31.1698
1861.39	32.1297
1861.64	35.9615
1861.89	34.0521
1862.14	33.0956
1862.39	35.0065
1862.64	33.0863
1862.9	33.0778
1863.15	32.1123
1863.4	31.1471
1863.65	36.8741
1863.9	36.8648
1864.15	33.9897
1864.4	32.0714
1864.65	31.1092
1864.9	37.7874
1865.15	34.9138
1865.4	33.9489
1865.66	34.8917
1865.91	35.8326
1866.16	38.6784
1866.41	38.6608
1866.66	33.8788
1866.91	31.9584
1867.16	34.7997
1867.41	39.5421
1867.66	31.9157
1867.91	33.8069
1868.16	35.7013
1868.41	33.7945
1868.67	32.8402
1868.92	31.8887
1869.17	36.6427
1869.42	31.8875
1869.67	33.7858
1869.92	33.7823
1870.17	33.7791
1870.42	33.776
1870.67	34.7234
1870.92	32.8199
1871.17	29.9665
1871.42	34.7166
1871.67	34.7128
1871.92	34.7075
1872.17	32.8001
1872.42	34.6947
1872.68	29.9407
1872.93	31.8331
1873.18	36.5727
1873.43	31.8196
1873.68	29.9182
1873.93	36.5591
1874.18	33.7053
1874.43	33.6975
1874.68	34.6374
1874.93	29.885
1875.18	28.9277
1875.43	31.7623
1875.68	32.6997
1875.93	35.5287
1876.18	30.7734
1876.43	35.4931
1876.68	34.5347
1876.93	31.687
1877.18	32.627
1877.43	35.4453
1877.68	34.4776
1877.93	31.6055
1878.18	35.4081
1878.44	32.6925
1878.69	31.6986
1878.93	27.8982
1879.19	31.6776
1879.44	35.4944
1879.69	27.9302
1879.94	32.656
1880.19	38.3258
1880.44	35.4821
1880.69	32.6382
1880.94	30.7503
1881.19	37.3693
1881.44	35.4727
1881.69	30.725
1881.94	34.4917
1882.19	38.2544
1882.44	31.6184
1882.69	25.9328
1882.94	34.4061
1883.19	31.5648
1883.44	33.4256
1883.69	38.3925
1883.94	39.1687
1884.19	33.4102
1884.44	38.1237
1884.69	32.4871
1884.94	35.2959
1885.19	35.308
1885.44	32.4949
1885.69	33.4418
1885.94	38.163
1886.19	29.6836
1886.44	36.2996
1886.69	31.5817
1886.94	32.5215
1887.19	35.3384
1887.44	37.2167
1887.69	39.0937
1887.94	34.3661
1888.19	37.1852
1888.44	36.2304
1888.69	32.4449
1888.94	29.6058
1889.19	34.3041
1889.44	36.1751
1889.69	32.4022
1889.94	35.2237
1890.19	32.3968
1890.44	33.3399
1890.69	37.1127
1890.94	33.3528
1891.19	33.3538
1891.43	33.3512
1891.68	36.1722
1891.94	31.4613
1892.18	35.2248
1892.43	28.6299
1892.68	33.3357
1892.93	34.271
1893.18	32.3799
1893.43	34.2488
1893.68	35.1687
1893.93	34.2101
1894.18	34.2045
1894.43	33.2688
1894.68	40.7727
1894.93	38.885
1895.18	33.244
1895.43	36.0621
1895.68	35.1239
1895.93	36.066
1896.18	35.1292
1896.43	37.9522
1896.68	32.3169
1896.93	35.1426
1897.18	36.0878
1897.42	34.2103
1897.68	31.3904
1897.92	34.2125
1898.17	32.3297
1898.42	35.1483
1898.67	31.3808
1898.92	35.1353
1899.17	39.8266
1899.42	37.9352
1899.67	33.2281
1899.92	36.9816
1900.17	37.915
1900.42	34.1514
1900.67	34.1489
1900.92	36.0275
1901.16	34.1509
1901.41	37.9139
1901.66	36.041
1901.91	36.9868
1902.16	36.0529
1902.41	36.0603
1902.66	37.9481
1902.91	37.0067
1903.16	37.9428
1903.41	32.2945
1903.66	36.9913
1903.91	30.4045
1904.16	32.2817
1904.41	36.0397
1904.65	32.2765
1904.9	36.0347
1905.15	36.0314
1905.4	31.3283
1905.65	36.0269
1905.9	34.1435
1906.15	38.8312
1906.4	30.3616
1906.65	32.2346
1906.9	37.8646
1907.14	32.2249
1907.39	33.1602
1907.64	34.0983
1907.89	34.0991
1908.14	33.1631
1908.39	35.9863
1908.64	32.2301
1908.89	35.9889
1909.14	31.2932
1909.39	36.9357
1909.63	32.242
1909.88	32.249
1910.13	36.0196
1910.38	28.5036
1910.63	36.983
1910.88	37.9348
1911.13	35.1171
1911.38	32.2959
1911.62	37.9495
1911.87	38.8918
1912.12	34.1803
1912.37	33.2347
1912.62	34.173
1912.87	36.9965
1913.12	36.0532
1913.37	36.0521
1913.61	33.2265
1913.86	37.9405
1914.11	34.181
1914.36	34.1907
1914.61	36.0831
1914.86	36.0894
1915.11	37.9826
1915.36	37.9889
1915.6	35.1624
1915.85	32.3323
1916.1	37.992
1916.35	36.1005
1916.6	40.8147
1916.85	37.9775
1917.1	36.0817
1917.34	34.188
1917.59	35.1246
1917.84	33.2341
1918.09	34.1734
1918.34	37.0013
1918.59	37.0053
1918.83	37.0123
1919.08	37.9645
1919.33	31.3692
1919.58	35.154
1919.83	38.0006
1920.08	36.1236
1920.33	37.0742
1920.57	36.1297
1920.82	36.1242
1921.07	35.1805
1921.32	35.1884
1921.57	31.4149
1921.81	36.1462
1922.06	35.2044
1922.31	38.0436
1922.56	36.1509
1922.81	36.1467
1923.06	37.0854
1923.31	36.1333
1923.55	37.0739
1923.8	36.1243
1924.05	34.2292
1924.3	34.2231
1924.55	34.2156
1924.79	35.1548
1925.04	34.2074
1925.29	37.0419
1925.54	33.2659
1925.79	37.0522
1926.04	35.1716
1926.28	32.3432
1926.53	35.1881
1926.78	30.4657
1927.03	31.4207
1927.28	35.2128
1927.52	37.1106
1927.77	32.3798
1928.02	35.2239
1928.27	32.3852
1928.52	39.0187
1928.76	38.0729
1929.01	35.2341
1929.26	36.1851
1929.51	34.2941
1929.76	37.1446
1930	40.9483
1930.25	37.1634
1930.5	40.969
1930.75	38.1306
1931	40.0384
1931.24	35.2931
1931.49	35.2928
1931.74	33.39
1931.99	39.08
1932.24	33.3785
1932.48	32.4235
1932.73	36.2132
1932.98	32.4113
1933.23	36.2033
1933.47	38.0943
1933.72	30.5063
1933.97	36.2075
1934.22	34.3253
1934.46	37.1968
1934.71	38.1798
1934.96	38.2116
1935.21	33.477
1935.46	31.5906
1935.7	32.5585
1935.95	36.3835
1936.2	33.4984
1936.45	35.3998
1936.69	36.3493
1936.94	34.4376
1937.19	35.3818
1937.44	34.4193
1937.68	36.3153
1937.93	37.2584
1938.18	36.2984
1938.43	37.2413
1938.68	33.4328
1938.92	32.4913
1939.17	33.4461
1939.42	34.4024
1939.67	35.3594
1939.91	33.4576
1940.16	33.4619
1940.41	36.3205
1940.66	34.4221
1940.9	34.4293
1941.15	35.4051
1941.4	35.4176
1941.64	32.5534
1941.89	34.4562
1942.14	37.304
1942.39	35.3736
1942.63	34.4317
1942.88	28.7386
1943.13	31.6087
1943.38	35.4282
1943.62	32.549
1943.87	39.2113
1944.12	32.5201
1944.37	32.5398
1944.61	35.4094
1944.86	33.5061
1945.11	38.2876
1945.35	34.475
1945.6	35.4379
1945.85	36.4012
1946.1	33.5403
1946.34	40.2382
1946.59	32.593
1946.84	35.4646
1947.09	35.4655
1947.33	35.4635
1947.58	37.3718
1947.83	32.5854
1948.07	36.4082
1948.32	38.3191
1948.57	37.3613
1948.82	37.357
1949.06	36.4014
1949.31	35.4504
1949.56	34.4999
1949.8	30.6789
1950.05	34.5137
1950.3	34.5216
1950.54	38.3659
1950.79	34.5499
1951.04	32.6442
1951.29	38.409
1951.53	37.4646
1951.78	36.5182
1952.03	35.5683
1952.27	33.6539
1952.52	30.777
1952.77	34.6226
1953.01	35.5804
1953.26	36.5463
1953.51	34.6328
1953.76	38.464
1954	35.5674
1954.25	33.6237
1954.49	37.4395
1954.74	28.7912
1954.99	30.6928
1955.24	38.3509
1955.48	28.7687
1955.73	36.4355
1955.98	36.4443
1956.22	34.5415
1956.47	26.8895
1956.72	34.5737
1956.96	34.5839
1957.21	35.5489
1957.46	36.5166
1957.7	37.4838
1957.95	35.5681
1958.2	38.455
1958.44	34.6135
1958.69	36.537
1958.94	36.5377
1959.18	33.6501
1959.43	32.6812
1959.68	33.6375
1959.92	38.439
1960.17	30.7464
1960.42	36.5033
1960.66	36.4964
1960.91	33.6082
1961.16	37.4407
1961.4	34.553
1961.65	37.4256
1961.9	32.6222
1962.14	34.5414
1962.39	38.3811
1962.63	33.5825
1962.88	36.4622
1963.13	36.4625
1963.37	37.4227
1963.62	37.4228
1963.87	38.3829
1964.11	39.3436
1964.36	40.3075
1964.61	40.3107
1964.85	33.587
1965.1	37.4238
1965.35	36.4631
1965.59	36.4604
1965.84	38.3804
1966.08	32.6212
1966.33	34.5473
1966.58	35.5147
1966.82	38.4043
1967.07	33.6037
1967.32	38.4129
1967.56	42.2552
1967.81	33.6035
1968.05	36.4892
1968.3	39.3734
1968.55	37.4512
1968.79	36.4878
1969.04	39.3669
1969.29	38.3975
1969.53	41.2693
1969.78	35.4913
1970.02	39.3196
1970.27	37.388
1970.52	40.2583
1970.76	33.5333
1971.01	38.3238
1971.25	37.3572
1971.5	35.433
1971.75	38.3059
1971.99	36.3833
1972.24	40.2215
1972.48	38.3057
1972.73	36.3877
1972.98	38.3047
1973.22	36.3816
1973.47	41.1697
1973.71	40.2003
1973.96	38.274
1974.21	36.3504
1974.45	43.0556
1974.7	38.2602
1974.94	38.2591
1975.19	42.0934
1975.44	41.1371
1975.68	37.3063
1975.93	42.1053
1976.17	36.3556
1976.42	41.1538
1976.66	37.3185
1976.91	39.2371
1977.16	44.0324
1977.4	40.1929
1977.65	38.2705
1977.89	39.2239
1978.14	40.1754
1978.39	36.3324
1978.63	41.1193
1978.88	39.1964
1979.12	42.0681
1979.37	39.1913
1979.61	40.1498
1979.86	38.2317
1980.1	43.9834
1980.35	43.0243
1980.6	40.1434
1980.84	42.0515
1981.09	43.0012
1981.33	42.0381
1981.58	42.9887
1981.82	42.0248
1982.07	42.9784
1982.31	43.9333
1982.56	47.7612
1982.81	42.9645
1983.05	46.7856
1983.3	43.9016
1983.54	38.1457
1983.79	47.7031
1984.03	47.6971
1984.28	36.2137
1984.52	45.7735
1984.77	48.6365
1985.02	44.8059
1985.26	49.5776
1985.51	42.8721
1985.75	46.6885
1986	42.8643
1986.24	49.5566
1986.49	42.8705
1986.73	50.5257
1986.98	48.6163
1987.22	42.8761
1987.47	43.8343
1987.71	39.0449
1987.96	46.6787
1988.21	41.884
1988.45	43.7771
1988.7	49.4846
1988.94	42.8067
1989.19	42.8451
1989.43	50.3432
1989.68	52.0767
1989.92	42.8368
1990.17	43.7695
1990.41	43.8983
1990.66	55.5952
1990.9	47.2877
1991.15	50.1674
1991.39	45.8177
1991.64	50.8476
1991.88	48.8108
1992.13	46.7084
1992.37	50.0658
1992.62	47.3998
1992.86	47.3018
1993.11	50.1275
1993.35	45.8939
1993.6	48.9347
1993.84	49.6442
1994.09	45.313
1994.33	50.9014
1994.58	53.5409
1994.82	47.7748
1995.07	54.4334
1995.31	49.8725
1995.56	46.5689
1995.8	50.275
1996.05	52.076
1996.29	44.9953
1996.54	51.1702
1996.78	50.1335
1997.03	49.6409
1997.27	54.3797
1997.52	49.4533
1997.76	51.0953
1998.01	49.3143
1998.25	48.332
1998.5	53.1869
1998.74	51.0782
1998.99	46.279
1999.23	49.2672
1999.48	50.8599
1999.72	52.9371
1999.97	52.0911
2000.21	49.6113
2000.46	50.8042
2000.7	49.9383
2000.95	52.526
2001.19	52.9121
2001.43	48.5831
2001.68	50.5955
2001.92	54.6708
2002.17	53.013
2002.41	54.1115
2002.66	52.1402
2002.9	49.9445
2003.15	53.4833
2003.39	54.6433
2003.64	51.3082
2003.88	51.3451
2004.13	51.5266
2004.37	53.166
2004.61	51.0846
2004.86	49.9442
2005.1	51.2798
2005.35	49.7151
2005.59	47.9393
2005.84	48.8538
2006.08	54.4805
2006.33	50.6457
2006.57	52.4898
2006.81	54.0934
2007.06	51.6964
2007.3	50.6463
2007.55	52.5274
2007.79	53.8068
2008.04	51.4211
2008.28	50.6626
2008.53	52.27
2008.77	55.3299
2009.01	53.5637
2009.26	53.9604
2009.5	48.8732
2009.75	50.4217
2009.99	52.1748
2010.24	58.1662
2010.48	52.2171
2010.73	54.7996
2010.97	52.3849
2011.21	51.5096
2011.46	50.8309
2011.7	55.7148
2011.95	52.358
2012.19	53.9226
2012.43	47.5787
2012.68	51.3407
2012.92	53.2195
2013.17	56.9734
2013.42	55.071
2013.67	53.162
2013.91	50.3253
2014.16	49.3665
2014.41	53.1023
2014.66	53.0738
2014.9	50.2329
2015.15	51.1643
2015.4	54.92
2015.64	53.9883
2015.89	53.0583
2016.14	50.2474
2016.39	49.3026
2016.63	54.0098
2016.88	54.9887
2017.13	53.1164
2017.37	52.1728
2017.62	54.0437
2017.87	48.3938
2018.11	49.3176
2018.36	52.1146
2018.61	54.9079
2018.86	47.3826
2019.1	49.2403
2019.35	51.095
2019.6	47.3278
2019.84	47.3182
2020.09	51.0578
2020.34	48.2435
2020.58	47.3053
2020.83	49.1756
2021.08	49.1731
2021.33	45.429
2021.57	41.6847
2021.82	50.1142
2022.07	44.4916
2022.31	43.5505
2022.56	51.0349
2022.81	47.2799
2023.05	50.0758
2023.3	50.0612
2023.55	44.4369
2023.8	47.2325
2024.04	47.2217
2024.29	45.3411
2024.54	40.6582
2024.78	47.1853
2025.03	43.4322
2025.27	46.2186
2025.52	49.0039
2025.77	45.2561
2026.02	45.2433
2026.26	44.2944
2026.51	46.1636
2026.76	41.5148
2027	43.4077
2027.25	46.2432
2027.5	47.2174
2027.74	46.3062
2027.99	46.2995
2028.23	47.2048
2028.48	45.2926
2028.73	44.2379
2028.98	45.2884
2029.22	40.7653
2029.47	46.2976
2029.72	53.8321
2029.96	44.3893
2030.21	45.2744
2030.45	45.2227
2030.7	47.0851
2030.95	44.2504
2031.19	45.2145
2031.44	43.3743
2031.69	44.3002
2031.93	44.3
2032.18	48.0331
2032.43	47.1131
2032.67	41.5259
2032.92	41.5405
2033.17	43.4223
2033.41	44.3675
2033.66	43.4413
2033.91	44.3886
2034.15	41.5887
2034.4	43.4361
2034.64	45.2746
2034.89	46.1612
2035.14	47.0816
2035.38	43.3679
2035.63	46.183
2035.87	43.4061
2036.12	43.437
2036.37	47.1998
2036.61	48.1326
2036.86	46.2375
2037.11	47.1732
2037.35	45.3139
2037.6	42.5077
2037.84	45.3101
2038.09	43.4353
2038.34	41.5598
2038.58	43.4227
2038.83	43.4154
2039.08	44.3423
2039.32	43.4005
2039.57	42.4584
2039.81	41.5167
2040.06	43.3744
2040.31	41.4947
2040.55	41.4828
2040.8	38.6728
2041.04	43.3265
2041.29	40.5195
2041.54	42.3766
2041.78	43.3049
2042.03	38.6406
2042.27	38.6348
2042.52	35.8337
2042.77	39.5528
2043.01	44.2076
2043.26	41.4118
2043.5	41.4149
2043.75	40.4934
2044	45.1711
2044.24	43.3236
2044.49	39.5978
2044.73	36.7966
2044.98	43.3162
2045.23	44.2284
2045.47	41.3944
2045.72	36.7813
2045.96	42.3893
2046.21	41.5146
2046.45	46.2603
2046.7	43.4155
2046.95	36.8348
2047.19	36.8073
2047.44	36.8083
2047.68	40.5294
2047.93	36.7672
2048.17	34.8945
2048.42	42.3532
2048.67	36.7611
2048.91	40.4923
2049.16	39.5635
2049.4	37.7078
2049.65	36.7823
2049.89	41.4581
2050.14	38.6721
2050.39	42.4171
2050.63	35.8902
2050.88	44.3032
2051.12	38.6994
2051.37	35.8938
2051.61	35.886
2051.86	41.4774
2052.11	33.0729
2052.35	38.6756
2052.6	40.5487
2052.84	39.616
2053.09	38.6862
2053.33	38.6918
2053.58	38.699
2053.82	38.7084
2054.07	35.9208
2054.31	40.6034
2054.56	34.0603
2054.8	39.6737
2055.05	37.8014
2055.3	35.9281
2055.54	38.731
2055.79	37.7862
2056.03	36.8464
2056.28	36.8441
2056.52	40.5796
2056.77	38.7051
2057.01	40.5715
2057.26	39.636
2057.5	39.6374
2057.75	39.64
2058	41.5143
2058.24	42.4552
2058.49	37.7848
2058.73	36.8581
2058.98	34.9945
2059.22	38.7449
2059.47	37.8143
2059.71	39.6884
2059.96	37.8177
2060.2	39.6904
2060.45	36.8766
2060.69	37.8065
2060.94	35.9302
2061.18	38.7419
2061.43	33.1303
2061.67	35.9418
2061.92	37.8153
2062.16	35.9431
2062.41	39.6891
2062.65	32.2003
2062.9	37.8221
2063.14	34.0804
2063.39	34.086
2063.63	36.9021
2063.88	35.9694
2064.12	39.7217
2064.37	37.85
2064.61	41.602
2064.86	36.9189
2065.1	35.0485
2065.35	35.0561
2065.59	36.0044
2065.84	36.0138
2066.08	36.022
2066.33	34.1508
2066.57	38.85
2066.82	36.9731
2067.06	38.8548
2067.31	36.0409
2067.55	36.9829
2067.8	34.1688
2068.04	34.1739
2068.29	34.1781
2068.53	37.9407
2068.78	32.3029
2069.02	36.0675
2069.27	32.307
2069.51	38.8817
2069.76	40.7495
2070	36.0349
2070.25	36.0283
2070.49	36.0311
2070.73	37.9248
2070.98	36.0632
2071.22	37.9625
2071.47	37.9592
2071.71	38.8877
2071.96	35.1661
2072.2	37.0633
2072.45	35.1768
2072.69	35.1737
2072.94	36.1137
2073.18	33.2855
2073.43	37.051
2073.67	39.8729
2073.92	38.9326
2074.16	33.2841
2074.4	36.1104
2074.65	37.0556
2074.89	38.9458
2075.14	37.0713
2075.38	36.1411
2075.63	38.0424
2075.87	35.2316
2076.12	33.3561
2076.36	37.1376
2076.6	34.306
2076.85	35.2511
2077.09	29.583
2077.34	33.3515
2077.58	37.1176
2077.83	35.2138
2078.07	35.2093
2078.31	35.213
2078.56	39.9367
2078.8	37.1095
2079.05	38.0558
2079.29	30.5115
2079.54	39.0131
2079.78	39.0308
2080.03	35.2601
2080.27	34.3209
2080.51	34.3259
2080.76	33.3848
2081	31.4948
2081.25	35.2707
2081.49	35.2677
2081.74	36.2109
2081.98	35.2652
2082.22	33.3738
2082.47	37.1553
2082.71	38.1025
2082.96	31.4892
2083.2	36.2144
2083.45	34.3233
2083.69	33.3763
2083.93	35.2644
2084.18	37.1538
2084.42	35.2638
2084.67	36.2079
2084.91	33.373
2085.15	36.2085
2085.4	37.1533
2085.64	35.2627
2085.89	36.2073
2086.13	34.3191
2086.37	35.2727
2086.62	34.3378
2086.86	37.1828
2087.11	36.24
2087.35	29.6212
2087.59	37.1956
2087.84	33.4133
2088.08	35.3058
2088.32	36.2522
2088.57	29.6277
2088.81	39.0932
2089.06	31.5226
2089.3	35.3098
2089.54	32.4746
2089.79	35.3202
2090.03	35.3291
2090.28	35.3318
2090.52	31.5439
2090.76	34.3878
2091.01	35.3379
2091.25	33.4461
2091.5	37.24
2091.74	35.3479
2091.98	34.4084
2092.23	32.5212
2092.47	36.3256
2092.72	38.2347
2092.96	33.5009
2093.2	32.5598
2093.45	32.5674
2093.69	37.3254
2093.93	38.2843
2094.18	36.3907
2094.42	33.5449
2094.66	36.3986
2094.91	34.4965
2095.15	37.3465
2095.39	31.6394
2095.64	31.6336
2095.88	31.6273
2096.13	33.5226
2096.37	31.6181
2096.61	37.3153
2096.86	35.4134
2097.1	33.5116
2097.34	38.2556
2097.59	40.1467
2097.83	33.4922
2098.07	34.4382
2098.32	30.6386
2098.56	37.2814
2098.8	39.1738
2099.05	32.5294
2099.29	34.4263
2099.53	30.6275
2099.78	37.2687
2100.02	32.5225
2100.27	31.5732
2100.51	34.4208
2100.75	37.2694
2101	33.4758
2101.24	30.6351
2101.48	38.2375
2101.73	33.493
2101.97	34.4444
2102.21	33.4941
2102.45	29.6935
2102.7	37.2916
2102.94	33.4898
2103.18	33.4839
2103.43	33.4765
2103.67	36.3202
2103.92	33.4708
2104.16	36.3161
2104.4	34.4177
2104.64	26.8254
2104.89	32.5258
2105.13	31.5805
2105.37	33.4839
2105.62	26.8396
2105.86	32.546
2106.1	32.5516
2106.35	34.4556
2106.59	32.5574
2106.83	31.6079
2107.08	36.3621
2107.32	36.3649
2107.56	28.7592
2107.8	35.4104
2108.05	34.4526
2108.29	32.5427
2108.53	36.3332
2108.78	36.3229
2109.02	34.4156
2109.26	34.4123
2109.51	32.5142
2109.75	33.4716
2109.99	26.8282
2110.23	35.3777
2110.48	29.6773
2110.72	28.7267
2110.96	34.426
2111.21	33.4755
2111.45	32.5247
2111.69	30.6221
2111.93	34.4165
2112.18	35.3621
2112.42	31.5609
2112.66	32.5099
2112.91	31.5628
2113.15	32.5153
2113.39	35.3684
2113.63	33.4762
2113.88	33.4824
2114.12	33.4851
2114.36	33.4826
2114.61	33.4791
2114.85	31.5772
2115.09	33.4788
2115.33	31.5783
2115.58	31.576
2115.82	32.523
2116.06	30.6195
2116.31	32.5167
2116.55	33.4595
2116.79	32.5028
2117.03	36.298
2117.28	33.4467
2117.52	32.4952
2117.76	27.7478
2118	27.7444
2118.25	32.4865
2118.49	33.4298
2118.73	38.1653
2118.97	32.4614
2119.22	33.402
2119.46	34.3427
2119.7	36.2311
2119.94	36.2231
2120.19	33.3728
2120.43	35.2626
2120.67	33.3651
2120.91	33.3655
2121.16	31.475
2121.4	35.2686
2121.64	30.5358
2121.88	36.2323
2122.13	32.4458
2122.37	33.4006
2122.61	30.5596
2122.85	31.5127
2123.1	33.4147
2123.34	34.3673
2123.58	29.6228
2123.82	32.4715
2124.07	28.6712
2124.31	35.3119
2124.55	38.1525
2124.79	32.4493
2125.03	32.436
2125.28	33.368
2125.52	32.4052
2125.76	37.1297
2126	30.4893
2126.25	33.3199
2126.49	35.2035
2126.73	33.3031
2126.97	36.1336
2127.21	33.2878
2127.46	33.2804
2127.7	31.3858
2127.94	37.0565
2128.18	26.6541
2128.43	33.2679
2128.67	35.1558
2128.91	30.429
2129.15	33.2644
2129.39	33.2625
2129.64	32.3141
2129.88	30.4212
2130.12	29.4742
2130.36	32.3072
2130.6	31.3597
2130.85	35.1363
2131.09	33.2427
2131.33	29.4594
2131.57	31.3436
2131.81	35.1157
2132.06	36.9987
2132.3	36.0504
2132.54	32.2695
2132.78	29.431
2133.02	36.9746
2133.27	36.0269
2133.51	33.195
2133.75	36.0267
2133.99	28.4781
2134.23	33.1963
2134.48	32.2535
2134.72	36.9727
2134.96	32.2525
2135.2	33.1947
2135.44	31.3057
2135.68	35.0782
2135.93	34.1306
2136.17	33.1807
2136.41	32.227
2136.65	33.1596
2136.89	32.2115
2137.14	34.0978
2137.38	31.2703
2137.62	30.3276
2137.86	33.159
2138.1	35.0517
2138.34	34.1054
2138.59	32.2097
2138.83	32.2023
2139.07	32.2076
2139.31	29.3882
2139.55	29.3944
2139.79	35.0361
2140.03	34.0799
2140.28	29.362
2140.52	31.2412
2140.76	31.2367
2141	32.1747
2141.24	36.8808
2141.49	36.8773
2141.73	31.2265
2141.97	29.3365
2142.21	30.2707
2142.45	30.2675
2142.69	33.0909
2142.93	33.0967
2143.18	31.218
2143.42	32.1852
2143.66	34.9981
2143.9	35.85
2144.14	34.9096
2144.38	33.9756
2144.62	32.1066
2144.87	31.1764
2145.11	28.36
2145.35	34.9243
2145.59	32.1059
2145.83	34.9276
2146.07	30.2239
2146.31	33.0413
2146.55	33.0379
2146.8	35.8546
2147.04	29.2717
2147.28	33.9674
2147.52	36.7811
2147.76	32.0777
2148	33.9521
2148.24	37.7054
2148.48	32.065
2148.73	32.9998
2148.97	30.1779
2149.21	31.1115
2149.45	34.8593
2149.69	33.912
2149.93	33.8973
2150.17	32.9511
2150.42	32.004
2150.66	29.1848
2150.9	28.2439
2151.14	34.8037
2151.38	34.8061
2151.62	33.8738
2151.86	31.0638
2152.1	34.8191
2152.34	32.9452
2152.58	33.8873
2152.83	38.5709
2153.07	32.9386
2153.31	30.1194
2153.55	34.8007
2153.79	32.9226
2154.03	31.9818
2154.27	31.9758
2154.51	36.6515
2154.75	34.7655
2154.99	33.8141
2155.24	36.6072
2155.48	30.0431
2155.72	32.838
2155.96	30.9582
2156.2	32.8187
2156.44	34.6805
2156.68	29.071
2156.92	32.8058
2157.16	35.6068
2157.4	32.8039
2157.64	29.0689
2157.89	32.8097
2158.13	27.208
2158.37	32.8198
2158.61	29.0817
2158.85	32.8198
2159.09	31.8831
2159.33	33.7489
2159.57	33.7441
2159.81	33.738
2160.05	34.6648
2160.29	30.9201
2160.53	28.1107
2160.77	30.9043
2161.01	33.6976
2161.25	33.6933
2161.5	32.7577
2161.74	32.7541
2161.98	30.8845
2162.22	33.6815
2162.46	35.5466
2162.7	26.2169
2162.94	27.1488
2163.18	29.9443
2163.42	32.7379
2163.66	30.8685
2163.9	30.8647
2164.14	33.658
2164.38	30.8565
2164.62	30.8493
2164.86	35.4999
2165.11	33.6302
2165.35	32.6992
2165.59	33.6337
2165.83	25.2469
2166.07	34.5653
2166.31	30.8376
2166.55	30.8334
2166.79	29.8978
2167.03	31.7558
2167.27	26.1608
2167.51	30.8124
2167.75	32.6666
2167.99	37.3098
2168.23	29.8492
2168.47	32.6249
2168.71	27.0411
2168.95	29.8288
2169.19	30.7596
2169.43	30.7631
2169.67	30.7688
2169.91	33.5677
2170.15	27.9949
2170.39	34.5221
2170.63	30.8044
2170.87	33.6004
2171.11	29.8726
2171.35	32.6593
2171.59	34.5177
2171.83	31.7115
2172.07	29.8289
2172.31	30.7469
2172.56	29.8111
2172.79	33.5223
2173.04	33.5172
2173.28	34.4447
2173.51	29.7982
2173.76	28.8681
2174	28.8696
2174.24	31.6605
2174.48	32.5922
2174.72	32.5931
2174.96	29.8047
2175.2	31.6627
2175.44	31.6615
2175.68	27.0122
2175.92	31.6562
2176.16	28.8668
2176.4	32.5815
2176.64	32.5782
2176.88	32.5725
2177.12	30.7121
2177.36	34.4272
2177.6	33.4986
2177.84	33.4986
2178.08	28.8526
2178.32	33.498
2178.55	31.6364
2178.8	31.6274
2179.03	35.3343
2179.28	28.8337
2179.52	31.6198
2179.75	31.6198
2180	27.9055
2180.23	32.5473
2180.47	30.6895
2180.71	30.688
2180.95	34.3991
2181.19	36.2531
2181.43	30.6815
2181.67	28.8224
2181.91	28.8184
2182.15	34.3829
2182.39	34.3805
2182.63	31.5918
2182.87	29.7326
2183.11	31.5847
2183.35	31.578
2183.59	28.7883
2183.83	32.4876
2184.07	27.8458
2184.31	35.2546
2184.55	31.5426
2184.79	34.3202
2185.03	35.2473
2185.27	33.3968
2185.51	31.5453
2185.75	29.6935
2185.99	33.4043
2186.23	32.4823
2186.47	32.4876
2186.7	30.6378
2186.95	29.7182
2187.18	29.7266
2187.42	32.5195
2187.66	27.8856
2187.9	31.6061
2188.14	30.6785
2188.38	29.7459
2188.62	29.7402
2188.86	31.5907
2189.1	31.5833
2189.34	26.9354
2189.58	31.566
2189.82	31.5551
2190.06	37.1086
2190.3	31.5411
2190.54	32.4662
2190.78	25.9774
2191.01	28.7602
2191.25	33.3978
2191.49	30.6158
2191.73	30.617
2191.97	34.3282
2192.21	29.6938
2192.45	33.4058
2192.69	30.6253
2192.93	31.5551
2193.17	24.1374
2193.41	31.5647
2193.65	34.3537
2193.89	28.7908
2194.13	31.5888
2194.36	32.5326
2194.6	33.4722
2194.84	28.8291
2195.08	28.827
2195.32	32.5412
2195.56	29.7491
2195.8	32.5317
2196.04	32.5242
2196.28	34.3721
2196.52	32.5026
2196.76	30.6353
2197	33.4111
2197.23	33.4042
2197.47	34.3257
2197.71	34.3201
2197.95	30.6096
2198.19	29.6824
2198.43	33.3957
2198.67	26.9079
2198.91	30.6266
2199.15	31.5636
2199.38	33.4314
2199.62	30.6535
2199.86	31.5924
2200.1	33.4615
2200.34	35.3373
2200.58	30.7026
2200.82	29.7853
2201.06	30.7283
2201.3	29.8051
2201.54	30.7438
2201.77	32.5937
2202.01	34.4212
2202.25	34.348
2202.49	32.4439
2202.73	29.6803
2202.97	30.6605
2203.21	30.6838
2203.45	31.6047
2203.68	36.2465
2203.92	30.6938
2204.16	33.5926
2204.4	33.5509
2204.64	30.7505
2204.88	33.5529
2205.12	33.5295
2205.36	29.7748
2205.59	31.6115
2205.83	34.383
2206.07	32.5179
2206.31	36.237
2206.55	35.3148
2206.79	33.4555
2207.03	34.3723
2207.26	31.5848
2207.5	38.0978
2207.74	31.5942
2207.98	33.4607
2208.22	34.3978
2208.46	32.5433
2208.7	33.4803
2208.93	32.5548
2209.17	37.2147
2209.41	33.4931
2209.65	32.5634
2209.89	30.7004
2210.13	30.699
2210.36	32.5623
2210.6	35.3603
2210.84	28.8437
2211.08	37.2336
2211.32	31.6476
2211.56	32.584
2211.8	30.7245
2212.03	33.5279
2212.27	28.8714
2212.51	35.4047
2212.75	33.5412
2212.99	32.6056
2213.23	32.6018
2213.46	33.5308
2213.7	30.7276
2213.94	32.5863
2214.18	28.8581
2214.42	32.5935
2214.66	26.0757
2214.89	31.6852
2215.13	27.0209
2215.37	27.9563
2215.61	31.6919
2215.85	32.6265
2216.08	33.5605
2216.32	32.6265
2216.56	33.5592
2216.8	30.7569
2217.04	29.8214
2217.28	27.9525
2217.51	30.7527
2217.75	28.8861
2217.99	33.5552
2218.23	31.6873
2218.47	32.6201
2218.7	34.4884
2218.94	28.8886
2219.18	29.826
2219.42	30.7649
2219.66	27.9673
2219.9	31.7074
2220.13	34.5145
2220.37	29.8444
2220.61	32.647
2220.85	30.7759
2221.09	29.8398
2221.32	32.6396
2221.56	31.6971
2221.8	27.9523
2222.04	29.8132
2222.27	33.5414
2222.51	32.6032
2222.75	27.001
2222.99	30.7366
2223.23	27.0058
2223.46	31.6784
2223.7	29.8153
2223.94	30.7561
2224.18	31.6991
2224.42	27.0344
2224.65	28.9117
2224.89	27.0477
2225.13	30.7953
2225.37	28.9299
2225.6	29.8725
2225.84	28.0081
2226.08	31.7597
2226.32	27.0825
2226.56	28.9616
2226.79	28.9656
2227.03	28.034
2227.27	29.9138
2227.51	28.0429
2227.74	27.1081
2227.98	28.9849
2228.22	32.7348
2228.46	29.9187
2228.69	30.8537
2228.93	33.6638
2229.17	29.9115
2229.41	29.9094
2229.64	31.7838
2229.88	28.0381
2230.12	32.7344
2230.36	32.7418
2230.6	29.9323
2230.83	31.8146
2231.07	28.0658
2231.31	32.7658
2231.55	29.9555
2231.78	26.2049
2232.02	32.7863
2232.26	29.9731
2232.5	30.9185
2232.73	28.1037
2232.97	29.989
2233.21	29.9942
2233.45	29.9991
2233.68	31.8858
2233.92	29.0682
2234.16	28.1307
2234.39	28.1333
2234.63	29.0725
2234.87	30.0109
2235.11	29.0658
2235.34	30.9419
2235.58	35.6333
2235.82	29.9818
2236.06	30.9223
2236.29	28.1019
2236.53	28.103
2236.77	28.1041
2237	29.0453
2237.24	28.1058
2237.48	28.1119
2237.72	30.9405
2237.95	29.069
2238.19	29.0806
2238.43	31.9178
2238.67	30.9837
2238.9	29.1059
2239.14	31.0003
2239.38	32.8978
2239.61	30.0693
2239.85	31.0096
2240.09	32.8914
2240.33	25.3379
2240.56	31.9306
2240.8	32.8691
2241.04	31.9396
2241.27	29.1209
2241.51	28.1788
2241.75	29.1237
2241.99	29.1255
2242.22	33.8455
2242.46	27.2414
2242.7	26.2999
2242.93	29.1349
2243.17	35.7434
2243.41	31.9655
2243.64	30.073
2243.88	29.1242
2244.12	28.1778
2244.36	26.2891
2244.59	26.2895
2244.83	27.2369
2245.07	31.021
2245.3	31.0332
2245.54	26.3195
2245.78	30.1057
2246.01	31.0564
2246.25	32.9536
2246.49	31.0684
2246.72	27.2896
2246.96	28.2378
2247.2	32.0263
2247.43	31.0844
2247.67	32.0335
2247.91	29.1951
2248.14	30.1407
2248.38	29.1923
2248.62	30.1364
2248.85	32.973
2249.09	28.2394
2249.33	27.2911
2249.56	28.2357
2249.8	27.2938
2250.04	31.0825
2250.27	31.0817
2250.51	32.9701
2250.75	32.0171
2250.98	29.1721
2251.22	28.2189
2251.46	28.2133
2251.69	30.0997
2251.93	29.1522
2252.17	31.9892
2252.4	30.1011
2252.64	29.1596
2252.88	29.165
2253.11	31.0663
2253.35	26.3488
2253.59	31.094
2253.82	29.2079
2254.06	28.2667
2254.3	32.0628
2254.53	31.1205
2254.77	26.3835
2255.01	32.0726
2255.24	27.3285
2255.48	26.3812
2255.72	33.0181
2255.95	29.2261
2256.19	30.1751
2256.42	30.1798
2256.66	30.185
2256.9	32.0874
2257.13	30.1942
2257.37	25.4533
2257.61	34.0004
2257.84	30.2076
2258.08	33.059
2258.32	29.2621
2258.55	28.3132
2258.79	28.3146
2259.02	27.3671
2259.26	29.2704
2259.5	31.1746
2259.73	25.4759
2259.97	31.1793
2260.2	26.4304
2260.44	30.2348
2260.68	29.2867
2260.91	34.9933
2261.15	28.3422
2261.39	26.4483
2261.62	28.3563
2261.86	31.2115
2262.1	35.9705
2262.33	32.1667
2262.57	32.169
2262.8	29.3176
2263.04	28.3713
2263.28	30.2817
2263.51	31.2418
2263.75	25.534
2263.98	29.3551
2264.22	28.4127
2264.46	25.5612
2264.69	29.3866
2264.93	29.3947
2265.16	28.4466
2265.4	28.452
2265.64	28.4566
2265.87	31.3227
2266.11	31.3236
2266.34	31.3207
2266.58	29.4034
2266.81	28.4412
2267.05	26.5247
2267.29	29.3814
2267.52	29.3761
2267.76	25.5551
2267.99	28.4122
2268.23	27.4518
2268.47	30.3073
2268.7	27.4445
2268.94	32.2126
2269.17	28.4019
2269.41	28.4075
2269.65	30.3228
2269.88	30.331
2270.12	25.5661
2270.35	28.4397
2270.59	26.5375
2270.82	32.2754
2271.06	29.412
2271.3	28.4621
2271.53	29.4228
2271.77	30.3823
2272	27.5171
2272.24	28.4784
2272.47	28.4809
2272.71	29.4377
2272.95	32.3088
2273.18	31.3533
2273.42	31.3547
2273.65	26.5714
2273.89	27.5294
2274.12	28.4874
2274.36	28.4884
2274.6	25.6179
2274.83	28.4903
2275.07	33.2777
2275.3	28.493
2275.54	32.3237
2275.77	28.4956
2276.01	27.5368
2276.24	26.5828
2276.48	26.5887
2276.72	29.469
2276.95	30.4334
2277.18	28.5221
2277.42	23.7345
2277.66	28.537
2277.89	26.6285
2278.13	31.4374
2278.36	28.5697
2278.6	25.6925
2278.83	27.6149
2279.07	29.5357
2279.3	28.5737
2279.54	28.5714
2279.78	26.6453
2280.01	33.3513
2280.24	28.5436
2280.48	30.454
2280.72	29.4874
2280.95	31.3989
2281.19	29.4764
2281.42	27.5558
2281.66	24.6763
2281.89	26.5903
2282.13	27.5513
2282.36	29.4701
2282.6	25.6388
2282.83	27.5613
2283.07	29.4857
2283.3	29.4921
2283.54	28.5403
2283.77	28.5512
2284.01	28.5641
2284.24	30.4976
2284.48	32.4344
2284.71	28.5959
2284.95	27.637
2285.19	32.4532
2285.42	30.5355
2285.65	29.5751
2285.89	27.6507
2286.12	30.5309
2286.36	26.6716
2286.59	24.7466
2286.83	24.748
2287.06	31.4859
2287.3	31.5002
2287.54	27.6606
2287.77	27.6642
2288	28.63
2288.24	28.6374
2288.47	28.6349
2288.71	27.6668
2288.94	32.4777
2289.18	26.6938
2289.41	35.3489
2289.65	32.4484
2289.88	28.589
2290.12	36.2691
2290.35	29.5335
2290.59	31.4528
2290.82	28.5684
2291.06	32.414
2291.29	27.6108
2291.53	29.5412
2291.76	25.7022
2292	30.5192
2292.23	28.5991
2292.47	27.6409
2292.7	30.5344
2292.94	28.615
2293.17	32.4743
2293.41	32.4796
2293.64	29.593
2293.88	28.6321
2294.11	30.561
2294.34	27.6669
2294.58	28.6268
2294.81	29.5854
2295.05	30.5427
2295.28	24.7585
2295.52	29.5701
2295.75	25.7135
2295.99	28.598
2296.22	29.5568
2296.46	26.6619
2296.69	29.5368
2296.93	27.6106
2297.16	31.461
2297.39	33.3896
2297.63	26.658
2297.86	30.5144
2298.1	27.6337
2298.33	29.5693
2298.57	26.6847
2298.8	27.6517
2299.04	32.4763
2299.27	25.7352
2299.51	27.669
2299.74	30.5671
2299.97	30.5697
2300.21	31.5334
2300.44	29.6038
2300.68	29.6026
2300.91	26.7114
2301.15	29.6103
2301.38	27.6835
2301.61	26.721
2301.85	29.6181
2302.08	29.6183
2302.32	33.4779
2302.55	27.6834
2302.79	25.7508
2303.02	32.507
2303.25	28.6453
2303.49	25.748
2303.72	30.5724
2303.96	25.747
2304.19	25.7491
2304.43	31.5452
2304.66	26.7222
2304.89	27.6904
2305.13	28.6597
2305.36	32.5286
2305.6	29.6336
2305.83	25.77
2306.07	32.5353
2306.3	30.6063
2306.53	29.6431
2306.77	25.7778
2307	33.5104
2307.24	30.6098
2307.47	29.6418
2307.7	31.5715
2307.94	30.6007
2308.17	29.6317
2308.41	29.6285
2308.64	28.6594
2308.87	29.625
2309.11	30.5921
2309.34	27.6972
2309.58	32.534
2309.81	28.6747
2310.04	29.6504
2310.28	32.5582
2310.51	32.5609
2310.75	28.6917
2310.98	29.6578
2311.21	25.785
2311.45	30.6138
2311.68	27.6963
2311.92	27.6779
2312.15	24.7709
2312.38	27.66
2312.62	30.551
2312.85	28.6151
2313.08	32.4704
2313.32	31.5046
2313.55	27.6478
2313.79	28.6211
2314.02	29.5975
2314.25	28.6398
2314.49	24.7827
2314.72	26.723
2314.95	30.6003
2315.19	27.7084
2315.42	24.8103
2315.66	31.5737
2315.89	32.5323
2316.12	29.6249
2316.36	32.5159
2316.59	30.5656
2316.82	30.5564
2317.06	31.5171
2317.29	27.6537
2317.52	32.4828
2317.76	30.5528
2317.99	28.6286
2318.23	27.6671
2318.46	30.5546
2318.69	33.446
2318.93	31.51
2319.16	28.6083
2319.39	29.5682
2319.63	30.5284
2319.86	28.5946
2320.09	29.5569
2320.33	30.5215
2320.56	33.4167
2320.79	33.416
2321.03	36.3139
2321.26	29.5625
2321.5	29.567
2321.73	34.3998
2321.96	32.4753
2322.2	31.5181
2322.43	37.3257
2322.66	34.4352
2322.9	34.4382
2323.13	39.2697
2323.36	46.0383
2323.6	39.2735
2323.83	37.3417
2324.06	40.2447
2324.3	43.1465
2324.53	41.2103
2324.76	44.1087
2325	49.8975
2325.23	47.9487
2325.46	53.7273
2325.7	57.5775
2325.93	65.2908
2326.16	73.9665
2326.4	82.638
2326.63	103.851
2326.86	122.16
2327.09	166.506
2327.33	214.69
2327.56	316.848
2327.79	429.596
2328.03	462.297
2328.26	440.078
2328.49	335.042
2328.73	245.406
2328.96	169.265
2329.19	123.937
2329.43	102.715
2329.66	82.4588
2329.89	75.7084
2330.13	58.3683
2330.36	58.3757
2330.59	49.7023
2330.82	46.8084
2331.06	39.0992
2331.29	37.1713
2331.52	36.2103
2331.76	31.3991
2331.99	32.3672
2332.22	38.1564
2332.46	31.4018
2332.69	35.2477
2332.92	30.4268
2333.16	28.4962
2333.39	32.343
2333.62	33.3011
2333.85	27.5214
2334.09	28.4808
2334.32	30.4009
2334.55	31.3575
2334.79	30.3868
2335.02	33.267
2335.25	34.2247
2335.48	31.338
2335.72	32.2973
2335.95	29.4131
2336.18	26.5294
2336.41	29.4132
2336.65	28.4479
2336.88	28.4455
2337.11	33.2513
2337.34	30.365
2337.58	31.3244
2337.81	30.3611
2338.04	26.5128
2338.28	30.3554
2338.51	29.3922
2338.74	27.4679
2338.97	30.35
2339.21	30.3506
2339.44	25.5448
2339.67	33.2338
2339.91	28.4263
2340.14	30.3457
2340.37	30.3414
2340.6	31.2965
2340.84	29.3692
2341.07	27.4412
2341.3	31.2737
2341.53	29.3433
2341.77	29.3315
2342	31.2409
2342.23	32.1938
2342.46	31.2289
2342.7	29.306
2342.93	34.0955
2343.16	34.0929
2343.39	31.2159
2343.63	33.133
2343.86	30.2552
2344.09	31.2119
2344.32	27.3776
2344.56	31.2135
2344.79	33.1314
2345.02	26.4194
2345.25	30.2515
2345.49	28.3308
2345.72	27.3673
2345.95	28.3176
2346.18	35.0171
2346.41	30.2213
2346.65	28.3033
2346.88	23.5131
2347.11	25.4265
2347.34	28.2961
2347.58	30.2082
2347.81	26.3774
2348.04	31.1646
2348.27	31.166
2348.5	25.4236
2348.74	29.2559
2348.97	30.2129
2349.2	31.1671
2349.43	26.3742
2349.67	29.2334
2349.9	28.2637
2350.13	32.0734
2350.36	33.0092
2350.59	30.1198
2350.83	31.9871
2351.06	29.0635
2351.29	33.875
2351.52	29.2094
2351.75	32.1115
2351.99	31.0894
2352.22	31.0539
2352.45	34.8741
2352.68	28.1958
2352.91	30.0859
2353.15	30.0578
2353.38	28.1309
2353.61	26.2322
2353.84	32.8977
2354.07	29.0811
2354.31	27.176
2354.54	29.0793
2354.77	28.1333
2355	29.0925
2355.23	32.9026
2355.47	26.2301
2355.7	29.0855
2355.93	30.0348
2356.16	28.1256
2356.39	32.8821
2356.63	30.0147
2356.86	32.8547
2357.09	29.9878
2357.32	26.1768
2357.55	24.2698
2357.79	31.8713
2358.02	27.113
2358.25	30.9105
2358.48	30.9067
2358.71	27.1024
2358.94	28.0461
2359.18	32.7927
2359.41	28.0401
2359.64	28.0379
2359.87	28.0339
2360.1	32.7767
2360.33	33.7185
2360.57	29.9132
2360.8	30.8546
2361.03	24.2055
2361.26	30.839
2361.49	30.8309
2361.72	28.9265
2361.96	29.8664
2362.19	32.7008
2362.42	34.5857
2362.65	26.9992
2362.88	29.8331
2363.11	31.7199
2363.34	30.7671
2363.58	26.0299
2363.81	29.8112
2364.04	28.8612
2364.27	31.6953
2364.5	26.9606
2364.73	26.0101
2364.97	25.06
