#Acq. time (s)=	30
#Accumulations=	2
#Range (cm-¹)=	1200...2365
#Windows=	3
#Auto scanning=	Off
#Autofocus=	Off
#Macrospot=	Off
#AutoExposure=	Off
#Spike filter=	Multiple accum.
#Delay time (s)=	2
#Binning=	1
#Readout mode=	Signal
#DeNoise=	Off
#ICS correction=	On
#Dark correction=	Off
#Inst. Process=	Off
#Detector Gain=	Best Dynamic
#Detector ADC=	50 kHz HS
#Detector temperature (°C)=	-60.09
#Instrument=	LabRAM HR Evol
#Detector=	SIN-EM FIVIS
#Objective=	x100_VIS_LWD
#Grating=	1800 (450-850nm)
#ND Filter=	100%
#Laser=	532nm_Edge
#Hole=	100.021
#Temperature=	0
#Range=	Visible
#StageXY=	75x50mm Scan+
#StageZ=	Z motor
#X (µm)=	0
#Y (µm)=	0
#Z (µm)=	-1.6
#Full time(mm:ss)=	3:11
#Project=	21_11_26
#Sample=	BU19(2)w
#Site=	
#Title=	BU19(2)w-A-FF1b-FI01-V_1800 (450-850nm)_532nm_Edge_100%_x100_VIS_LWD_H100um_30sX2
#Remark=	
#Date=	26.11.2021 14:10
#Acquired=	26.11.2021 14:10:41
1202.72	54.3086
1203	66.2332
1203.28	65.1771
1203.56	64.0608
1203.84	61.8593
1204.11	60.7534
1204.39	55.3543
1204.67	54.2811
1204.95	55.3618
1205.23	60.7249
1205.5	57.4775
1205.78	60.6752
1206.06	53.1313
1206.34	60.6163
1206.61	58.4421
1206.89	58.4138
1207.17	56.2423
1207.45	56.2197
1207.73	59.4172
1208	56.1903
1208.28	57.2508
1208.56	62.5893
1208.84	63.6396
1209.11	52.9257
1209.39	60.3963
1209.67	57.1806
1209.95	59.3159
1210.23	53.9645
1210.5	59.2969
1210.78	60.3398
1211.06	62.4508
1211.34	59.2271
1211.61	58.1367
1211.89	61.3192
1212.17	58.0944
1212.45	53.8071
1212.72	59.1205
1213	51.6444
1213.28	48.4327
1213.56	50.5521
1213.83	57.9984
1214.11	59.0499
1214.39	59.0518
1214.67	54.7946
1214.94	55.8592
1215.22	57.9872
1215.5	63.3072
1215.78	59.045
1216.05	59.0394
1216.33	50.5098
1216.61	61.1293
1216.89	51.5318
1217.16	60.014
1217.44	55.7443
1217.72	58.9144
1218	50.4006
1218.27	49.3263
1218.55	54.6221
1218.83	57.7937
1219.1	53.5414
1219.38	57.7812
1219.66	58.836
1219.94	56.7061
1220.21	61.9986
1220.49	55.632
1220.77	57.7527
1221.04	56.6881
1221.32	52.4396
1221.6	52.4294
1221.88	56.6596
1222.15	61.9414
1222.43	56.6195
1222.71	62.9462
1222.98	61.8555
1223.26	62.8831
1223.54	58.6242
1223.81	60.7129
1224.09	60.6908
1224.37	56.4438
1224.65	58.541
1224.92	58.5289
1225.2	61.687
1225.48	61.6845
1225.76	56.4127
1226.03	59.5853
1226.31	56.4244
1226.59	59.5881
1226.86	54.3039
1227.14	63.7933
1227.42	60.6153
1227.69	54.2538
1227.97	58.4163
1228.25	58.3802
1228.52	58.3461
1228.8	62.4963
1229.08	63.4986
1229.35	59.2897
1229.63	61.5424
1229.91	57.4502
1230.18	55.286
1230.46	56.2864
1230.74	61.5317
1231.01	65.751
1231.29	62.5533
1231.57	57.1763
1231.84	63.491
1232.12	52.9807
1232.4	56.1304
1232.67	58.2242
1232.95	60.3232
1233.23	61.3696
1233.5	69.7666
1233.78	56.1081
1234.06	61.3629
1234.33	62.4182
1234.61	60.3223
1234.89	60.3303
1235.16	60.3395
1235.44	50.8835
1235.71	60.3483
1235.99	63.5089
1236.27	58.2562
1236.54	63.5114
1236.82	58.2463
1237.1	61.3896
1237.37	62.4263
1237.65	69.7581
1237.93	64.4815
1238.2	69.7065
1238.48	65.4829
1238.76	69.6546
1239.03	59.1472
1239.31	67.5245
1239.58	70.6596
1239.86	62.2651
1240.14	64.3566
1240.41	58.0645
1240.69	64.3526
1240.97	64.3535
1241.24	65.4043
1241.52	66.4543
1241.79	66.4474
1242.07	68.5306
1242.35	71.6657
1242.62	68.5224
1242.9	68.5258
1243.18	67.4865
1243.45	74.8327
1243.73	64.3482
1244	70.6376
1244.28	68.5448
1244.56	69.5915
1244.83	66.4413
1245.11	75.8674
1245.39	65.3708
1245.66	70.5919
1245.94	77.8977
1246.21	75.777
1246.49	74.7187
1246.76	74.7119
1247.04	73.6648
1247.32	71.5691
1247.59	82.0284
1247.87	70.5134
1248.14	79.9233
1248.42	80.9389
1248.7	78.8306
1248.97	78.8259
1249.25	79.8758
1249.52	73.605
1249.8	76.737
1250.08	72.5501
1250.35	78.8255
1250.63	78.8082
1250.9	75.6507
1251.18	76.6782
1251.45	77.7072
1251.73	71.4241
1252.01	72.4555
1252.28	74.5303
1252.56	77.6484
1252.83	78.6771
1253.11	75.5282
1253.39	82.8182
1253.66	74.4612
1253.94	84.8958
1254.21	79.6902
1254.49	81.7922
1254.76	75.5446
1255.04	79.727
1255.31	80.7704
1255.59	81.8202
1255.87	80.775
1256.14	82.8587
1256.42	80.7732
1256.69	88.0892
1256.97	95.4128
1257.24	82.882
1257.52	94.3663
1257.79	101.662
1258.07	120.449
1258.35	112.086
1258.62	106.855
1258.9	101.622
1259.17	101.598
1259.45	99.507
1259.72	96.3863
1260	100.576
1260.27	105.838
1260.55	114.163
1260.82	119.354
1261.1	121.397
1261.37	130.756
1261.65	133.864
1261.92	147.443
1262.2	159.06
1262.48	172.859
1262.75	189.706
1263.02	204.017
1263.3	235.067
1263.58	246.429
1263.85	262.326
1264.13	249.991
1264.4	217.814
1264.68	215.83
1264.95	180.15
1265.23	160.247
1265.5	144.569
1265.78	136.195
1266.05	119.452
1266.33	124.675
1266.6	114.234
1266.88	115.293
1267.15	111.133
1267.43	108.021
1267.7	110.141
1267.98	93.4348
1268.25	106.022
1268.53	99.787
1268.8	102.964
1269.08	104.031
1269.35	107.191
1269.63	100.916
1269.9	101.957
1270.18	108.219
1270.45	108.185
1270.73	102.927
1271	107.088
1271.28	107.069
1271.55	103.921
1271.83	104.953
1272.1	106.007
1272.38	109.17
1272.65	111.294
1272.93	94.5788
1273.2	109.269
1273.47	106.154
1273.75	106.181
1274.03	100.966
1274.3	105.187
1274.57	108.351
1274.85	108.355
1275.12	111.496
1275.4	114.643
1275.67	118.851
1275.95	119.919
1276.22	107.347
1276.5	116.819
1276.77	114.739
1277.05	123.161
1277.32	118.977
1277.6	122.157
1277.87	128.49
1278.14	136.928
1278.42	131.699
1278.69	141.185
1278.97	143.328
1279.24	149.662
1279.52	151.789
1279.79	162.3
1280.07	172.805
1280.34	198.025
1280.61	226.413
1280.89	260.087
1281.16	310.602
1281.44	379.069
1281.71	477.067
1281.99	623.447
1282.26	844.479
1282.53	1142.47
1282.81	1482.67
1283.08	1928.74
1283.36	2466.49
1283.63	2967.87
1283.91	3234.74
1284.18	3052.88
1284.45	2427.89
1284.73	1702.8
1285	1127.78
1285.28	749.473
1285.55	519.511
1285.83	380.358
1286.1	301.4
1286.37	247.758
1286.65	214.056
1286.92	201.381
1287.2	175.056
1287.47	164.516
1287.75	158.176
1288.02	148.675
1288.29	144.449
1288.57	132.871
1288.84	129.717
1289.12	132.883
1289.39	122.376
1289.66	121.344
1289.94	120.313
1290.21	105.593
1290.49	118.251
1290.76	109.823
1291.03	115.077
1291.31	105.59
1291.58	109.801
1291.86	104.533
1292.13	107.688
1292.4	106.635
1292.68	108.748
1292.95	95.0496
1293.22	97.1478
1293.5	104.524
1293.77	97.1831
1294.05	98.2766
1294.32	108.862
1294.59	94.1105
1294.87	100.437
1295.14	107.811
1295.42	84.6274
1295.69	93.1034
1295.96	87.8753
1296.24	94.2761
1296.51	87.9734
1296.79	94.324
1297.06	87.9838
1297.33	87.9737
1297.61	93.2414
1297.88	93.2218
1298.15	92.1437
1298.43	82.6148
1298.7	87.9046
1298.97	90.0091
1299.25	85.77
1299.52	85.7577
1299.79	92.0767
1300.07	86.7973
1300.34	87.8677
1300.62	79.4293
1300.89	85.7662
1301.16	85.7616
1301.44	76.2556
1301.71	82.5939
1301.98	93.1676
1302.25	82.6195
1302.53	80.5134
1302.8	82.6278
1303.08	84.7387
1303.35	88.9576
1303.62	79.442
1303.9	88.9307
1304.17	84.7032
1304.44	80.4807
1304.72	76.2565
1304.99	77.3108
1305.26	79.4124
1305.54	77.2865
1305.81	82.5453
1306.08	78.3055
1306.35	81.4505
1306.63	79.3244
1306.9	77.2075
1307.18	82.4797
1307.45	78.2675
1307.72	85.6524
1308	76.1581
1308.27	79.321
1308.54	77.2151
1308.81	75.1004
1309.09	79.323
1309.36	76.17
1309.63	79.3455
1309.91	78.3011
1310.18	73.0311
1310.45	77.2499
1310.73	73.0232
1311	75.1332
1311.27	69.8592
1311.55	77.2499
1311.82	71.9757
1312.09	80.4251
1312.37	70.9371
1312.64	79.3937
1312.91	79.3986
1313.18	73.0592
1313.46	71.9912
1313.73	76.2108
1314	77.2589
1314.28	75.1416
1314.55	75.1408
1314.82	73.0335
1315.09	74.0958
1315.37	86.7744
1315.64	77.2805
1315.91	69.8974
1316.18	75.1871
1316.46	75.1833
1316.73	72.0095
1317	72.0058
1317.28	75.1713
1317.55	74.1145
1317.82	78.3494
1318.09	76.2438
1318.37	75.1916
1318.64	69.9118
1318.91	64.6305
1319.18	72.0254
1319.46	76.2484
1319.73	69.9063
1320	64.6213
1320.28	72.02
1320.55	64.6251
1320.82	69.9029
1321.09	79.3984
1321.37	68.8198
1321.64	71.9668
1321.91	65.611
1322.18	65.5985
1322.46	68.744
1322.73	76.1174
1323	67.6691
1323.27	70.8218
1323.55	67.6447
1323.82	73.9782
1324.09	67.6541
1324.36	69.7635
1324.64	66.5974
1324.91	71.8701
1325.18	79.2483
1325.45	69.7623
1325.73	76.069
1326	70.7654
1326.27	73.8834
1326.54	69.6206
1326.81	76.9642
1327.09	64.3334
1327.36	70.6684
1327.63	66.5021
1327.9	72.8457
1328.18	76.0321
1328.45	68.6813
1328.72	71.8714
1328.99	69.7837
1329.27	71.8997
1329.54	68.7253
1329.81	75.0623
1330.08	67.6733
1330.35	71.8868
1330.63	76.096
1330.9	67.6445
1331.17	66.5733
1331.44	74.9851
1331.71	66.5262
1331.99	67.5496
1332.26	69.6312
1332.53	69.6111
1332.8	66.4326
1333.07	57.9941
1333.35	77.951
1333.62	69.5157
1333.89	66.3413
1334.16	69.4732
1334.43	71.5537
1334.71	75.734
1334.98	64.1679
1335.25	75.6983
1335.52	64.1406
1335.79	67.2751
1336.07	70.4093
1336.34	71.4456
1336.61	69.337
1336.88	67.23
1337.15	69.3182
1337.43	66.1662
1337.7	64.0636
1337.97	69.296
1338.24	74.5171
1338.51	75.5467
1338.78	68.2032
1339.06	69.2383
1339.33	68.183
1339.6	69.2274
1339.87	74.4649
1340.14	72.374
1340.42	73.422
1340.69	63.9989
1340.96	74.4731
1341.23	68.1873
1341.5	75.5141
1341.77	66.0837
1342.04	69.2167
1342.32	70.2517
1342.59	69.1892
1342.86	63.9383
1343.13	64.9669
1343.4	77.5086
1343.67	65.9974
1343.95	76.4529
1344.22	72.2681
1344.49	71.2229
1344.76	68.0847
1345.03	63.8947
1345.3	69.1114
1345.58	72.2312
1345.85	69.0725
1346.12	65.9201
1346.39	70.0746
1346.66	75.2585
1346.93	74.1901
1347.2	72.0806
1347.47	66.8427
1347.75	69.9513
1348.02	67.8528
1348.29	66.8011
1348.56	72.0057
1348.83	67.831
1349.1	69.9037
1349.37	68.8481
1349.65	69.8755
1349.92	66.7377
1350.19	77.1373
1350.46	69.8355
1350.73	71.9037
1351	80.2103
1351.27	76.0278
1351.54	73.9343
1351.81	73.9146
1352.09	78.0676
1352.36	73.9062
1352.63	70.7942
1352.9	72.8891
1353.17	77.0727
1353.44	76.0436
1353.71	83.3982
1353.98	76.1776
1354.25	74.0222
1354.53	80.1503
1354.8	75.9118
1355.07	75.9195
1355.34	78.0033
1355.61	79.0141
1355.88	68.6132
1356.15	82.1418
1356.42	76.9525
1356.69	80.0517
1356.96	81.0817
1357.24	72.7652
1357.51	70.6803
1357.78	83.1307
1358.05	76.8878
1358.32	84.14
1358.59	78.9349
1358.86	80.9961
1359.13	69.5668
1359.4	81.9998
1359.67	73.6904
1359.94	80.9391
1360.22	86.1011
1360.49	81.9292
1360.76	78.7972
1361.03	87.0691
1361.3	72.5595
1361.57	87.0594
1361.84	86.0195
1362.11	87.0496
1362.38	80.8248
1362.65	85.993
1362.92	87.0193
1363.19	85.9802
1363.46	89.0912
1363.73	101.533
1364	89.1163
1364.28	96.3779
1364.55	93.2685
1364.82	108.799
1365.09	99.4652
1365.36	101.518
1365.63	88.0357
1365.9	92.1543
1366.17	90.0631
1366.44	93.1459
1366.71	97.2607
1366.98	93.0956
1367.25	95.1302
1367.52	98.2152
1367.79	92.0043
1368.06	94.0828
1368.33	110.628
1368.6	129.241
1368.87	174.734
1369.15	228.504
1369.41	219.217
1369.68	186.143
1369.95	131.325
1370.23	108.567
1370.5	113.722
1370.77	101.291
1371.04	96.1109
1371.31	98.1586
1371.58	102.262
1371.85	98.0973
1372.12	106.314
1372.39	101.115
1372.66	110.36
1372.93	102.082
1373.2	109.28
1373.47	104.111
1373.74	113.373
1374.01	104.086
1374.28	115.411
1374.55	117.463
1374.82	119.515
1375.09	121.565
1375.36	117.429
1375.63	120.523
1375.9	118.477
1376.17	125.685
1376.44	128.782
1376.71	123.599
1376.98	124.598
1377.25	137.938
1377.52	137.88
1377.79	143.042
1378.06	138.961
1378.33	149.313
1378.6	141.144
1378.87	153.591
1379.14	147.43
1379.41	160.827
1379.68	159.774
1379.95	165.935
1380.22	172.083
1380.49	175.099
1380.76	179.075
1381.03	183.107
1381.3	180.981
1381.57	184.096
1381.84	192.274
1382.11	191.157
1382.38	195.17
1382.65	218.706
1382.92	227.865
1383.19	224.699
1383.46	236.946
1383.73	261.489
1384	275.797
1384.27	314.716
1384.54	343.433
1384.81	413.186
1385.08	470.69
1385.34	580.58
1385.61	763.472
1385.88	1039.8
1386.15	1526.69
1386.42	2311.4
1386.69	3647.05
1386.96	5280.58
1387.23	6827.38
1387.5	6626.97
1387.77	4933.27
1388.04	3039.21
1388.31	1707.79
1388.58	1006.82
1388.85	710.159
1389.12	505.809
1389.39	398.321
1389.66	328.531
1389.93	286.466
1390.2	235.042
1390.46	224.601
1390.73	200.934
1391	184.521
1391.27	184.445
1391.54	177.255
1391.81	171.09
1392.08	165.927
1392.35	151.544
1392.62	139.221
1392.89	142.269
1393.16	138.154
1393.43	135.066
1393.7	130.958
1393.97	128.899
1394.23	122.747
1394.5	122.738
1394.77	127.846
1395.04	114.539
1395.31	118.644
1395.58	112.522
1395.85	125.842
1396.12	121.753
1396.39	113.56
1396.66	112.526
1396.93	108.419
1397.2	107.381
1397.46	99.1753
1397.73	105.294
1398	110.397
1398.27	102.213
1398.54	106.311
1398.81	101.208
1399.08	98.1453
1399.35	98.1499
1399.62	106.352
1399.89	101.246
1400.16	101.256
1400.42	105.348
1400.69	101.268
1400.96	102.317
1401.23	104.376
1401.5	90.0358
1401.77	95.1668
1402.04	103.359
1402.31	104.418
1402.58	96.2757
1402.84	100.437
1403.11	97.4024
1403.38	112.83
1403.65	97.4474
1403.92	104.634
1404.19	106.665
1404.46	112.76
1404.73	107.646
1404.99	113.792
1405.26	120.958
1405.53	117.86
1405.8	129.117
1406.07	135.246
1406.34	136.249
1406.61	146.484
1406.87	167.996
1407.14	181.328
1407.41	214.143
1407.68	236.715
1407.95	297.217
1408.22	330.043
1408.49	399.786
1408.76	400.835
1409.02	395.738
1409.29	345.521
1409.56	284.01
1409.83	225.564
1410.1	193.777
1410.37	151.718
1410.63	146.56
1410.9	123.962
1411.17	109.573
1411.44	108.522
1411.71	98.2569
1411.98	96.1946
1412.25	87.995
1412.51	90.0562
1412.78	91.1066
1413.05	90.1377
1413.32	83.0577
1413.59	77.971
1413.86	80.9905
1414.12	87.0349
1414.39	76.7986
1414.66	74.7972
1414.93	71.7517
1415.2	76.8796
1415.47	79.9619
1415.73	76.8818
1416	70.7234
1416.27	72.7824
1416.54	71.7617
1416.81	72.7953
1417.07	74.8568
1417.34	71.7836
1417.61	69.7369
1417.88	66.6616
1418.15	71.8026
1418.42	72.8312
1418.68	69.751
1418.95	61.5325
1419.22	69.7543
1419.49	65.6444
1419.76	68.7198
1420.02	70.7613
1420.29	65.6105
1420.56	64.5708
1420.83	71.745
1421.1	67.6225
1421.36	64.5302
1421.63	63.4976
1421.9	64.5273
1422.17	67.6241
1422.44	68.6736
1422.7	77.943
1422.97	67.7051
1423.24	67.7628
1423.51	59.5845
1423.77	67.6614
1424.04	65.4686
1424.31	60.3585
1424.58	74.6428
1424.85	65.4222
1425.11	75.6889
1425.38	69.5879
1425.65	74.7248
1425.92	67.5351
1426.19	62.4286
1426.45	59.3461
1426.72	68.5659
1426.99	58.2939
1427.26	58.2772
1427.52	60.3093
1427.79	62.333
1428.06	59.2397
1428.33	47.9664
1428.59	54.106
1428.86	54.1063
1429.13	56.1569
1429.4	59.2333
1429.67	54.1189
1429.93	58.2242
1430.2	55.1625
1430.47	55.1769
1430.74	50.0629
1431	57.2553
1431.27	58.306
1431.54	56.2733
1431.81	59.3617
1432.07	52.1768
1432.34	47.0357
1432.61	55.2317
1432.87	54.197
1433.14	55.2054
1433.41	58.2596
1433.68	56.1849
1433.95	51.0406
1434.21	52.0516
1434.48	53.0697
1434.75	50.0207
1435.01	51.0554
1435.28	55.1559
1435.55	53.1063
1435.82	47.9811
1436.08	53.1016
1436.35	53.0978
1436.62	47.9709
1436.89	43.868
1437.15	50.0094
1437.42	57.1746
1437.69	45.9055
1437.95	54.0932
1438.22	52.0417
1438.49	49.9955
1438.76	45.9053
1439.02	52.0557
1439.29	57.1792
1439.56	45.9119
1439.82	50.0174
1440.09	47.9785
1440.36	51.0672
1440.63	45.9464
1440.89	47.9995
1441.16	53.127
1441.43	50.053
1441.69	45.9469
1441.96	45.9386
1442.23	52.0853
1442.49	47.9939
1442.76	47.9946
1443.03	42.8755
1443.3	38.7673
1443.56	44.9122
1443.83	44.9052
1444.1	49.0006
1444.36	52.0735
1444.63	45.9253
1444.9	42.8617
1445.16	45.9488
1445.43	46.9891
1445.7	48.0106
1445.97	41.8503
1446.23	42.8719
1446.5	43.8934
1446.77	39.7869
1447.03	42.8599
1447.3	44.907
1447.57	45.9272
1447.83	43.8703
1448.1	44.8904
1448.37	43.8644
1448.63	42.8462
1448.9	44.9065
1449.17	47.9858
1449.43	41.8306
1449.7	49.0055
1449.97	42.8458
1450.23	44.8888
1450.5	40.7803
1450.77	41.8012
1451.03	47.9471
1451.3	40.7684
1451.57	38.7147
1451.83	37.6854
1452.1	38.7057
1452.37	37.6776
1452.63	42.7979
1452.9	35.6262
1453.17	35.6273
1453.43	37.6802
1453.7	38.7081
1453.97	39.7326
1454.23	39.7292
1454.5	38.7017
1454.77	42.7999
1455.03	39.7252
1455.3	42.7975
1455.56	43.8187
1455.83	38.6958
1456.1	36.6522
1456.36	41.7798
1456.63	36.6544
1456.9	38.7004
1457.16	34.5944
1457.43	40.7354
1457.7	36.6338
1457.96	35.6063
1458.23	37.6529
1458.49	34.5794
1458.76	40.7261
1459.03	39.7033
1459.29	38.6801
1459.56	33.558
1459.82	32.5335
1460.09	36.6298
1460.36	36.6268
1460.62	37.6479
1460.89	37.6441
1461.16	38.6636
1461.42	39.682
1461.69	40.7002
1461.95	34.5505
1462.22	37.615
1462.49	41.7014
1462.75	37.5991
1463.02	38.6133
1463.28	37.5808
1463.55	37.571
1463.82	36.5399
1464.08	40.6275
1464.35	37.5716
1464.61	38.6116
1464.88	34.5308
1465.15	38.6426
1465.41	34.519
1465.68	35.4762
1465.94	37.4873
1466.21	32.3805
1466.48	35.4524
1466.74	35.4483
1467.01	34.4116
1467.27	35.4263
1467.54	34.4089
1467.8	37.4665
1468.07	35.4229
1468.34	36.4407
1468.6	31.3391
1468.87	35.4178
1469.13	38.475
1469.4	36.4307
1469.67	34.3859
1469.93	34.3786
1470.2	32.331
1470.46	34.3624
1470.73	38.4329
1470.99	36.3899
1471.26	36.3865
1471.53	38.4181
1471.79	33.3173
1472.06	34.3303
1472.32	31.2722
1472.59	34.3251
1472.85	35.3416
1473.12	33.3035
1473.39	32.2821
1473.65	34.3125
1473.92	35.3245
1474.18	31.2486
1474.45	30.2279
1474.71	37.3506
1474.98	32.2646
1475.24	31.2483
1475.51	32.2658
1475.78	36.3352
1476.04	35.3135
1476.31	36.3255
1476.57	36.3212
1476.84	30.2129
1477.1	31.2245
1477.37	35.2869
1477.63	36.3002
1477.9	29.1794
1478.16	36.2965
1478.43	37.3084
1478.69	35.267
1478.96	34.2446
1479.22	34.2387
1479.49	34.2321
1479.76	31.1769
1480.02	31.1693
1480.29	30.1463
1480.55	34.1954
1480.82	35.1996
1481.08	34.1771
1481.35	36.2024
1481.61	34.1665
1481.88	32.1399
1482.14	33.1591
1482.41	30.1198
1482.67	31.1405
1482.94	30.1294
1483.2	35.2049
1483.47	32.1624
1483.73	32.1638
1484	35.2096
1484.26	28.0996
1484.53	31.1324
1484.79	34.1574
1485.06	28.0393
1485.32	35.0843
1485.59	32.0316
1485.85	35.0381
1486.12	32.0803
1486.38	31.0754
1486.65	34.128
1486.91	36.116
1487.18	37.1472
1487.44	31.0718
1487.71	34.1011
1487.97	39.1567
1488.24	32.0613
1488.5	33.0678
1488.77	30.0226
1489.03	35.0751
1489.3	30.008
1489.56	30.0039
1489.83	33.0357
1490.09	32.021
1490.36	32.02
1490.62	29.9955
1490.89	33.0256
1491.15	28.9728
1491.42	33.0108
1491.68	30.9848
1491.95	33.0046
1492.21	34.0148
1492.48	31.9934
1492.74	28.9586
1493	28.9562
1493.27	27.9436
1493.53	30.9755
1493.8	35.016
1494.06	28.9489
1494.33	28.9486
1494.59	27.9389
1494.86	31.9845
1495.12	36.0263
1495.39	31.9765
1495.65	28.9346
1495.92	28.9232
1496.18	32.9534
1496.45	32.9465
1496.71	30.9221
1496.97	32.9363
1497.24	31.9217
1497.5	29.9021
1497.77	32.9288
1498.03	28.8893
1498.3	32.9246
1498.56	31.9149
1498.82	34.9426
1499.09	35.9523
1499.35	27.8786
1499.62	34.9454
1499.88	36.9667
1500.15	32.9309
1500.41	32.9314
1500.68	31.9208
1500.94	32.9285
1501.2	29.8981
1501.47	32.9223
1501.73	33.9243
1502	32.9122
1502.26	31.9013
1502.52	32.9084
1502.79	31.8954
1503.05	36.9317
1503.32	29.8634
1503.58	35.9099
1503.85	30.8611
1504.11	32.8768
1504.37	34.896
1504.64	34.8969
1504.9	35.9049
1505.17	27.8352
1505.43	34.8896
1505.7	31.859
1505.96	30.8412
1506.22	33.8518
1506.49	31.8338
1506.75	29.8172
1507.02	34.8551
1507.28	24.7833
1507.54	27.8064
1507.81	30.8301
1508.07	27.8059
1508.34	33.849
1508.6	32.8388
1508.86	35.8615
1509.13	34.8544
1509.39	34.8542
1509.66	30.8224
1509.92	35.8596
1510.18	35.8629
1510.45	28.8098
1510.71	32.8339
1510.98	32.8267
1511.24	32.8182
1511.5	31.8012
1511.77	33.8004
1512.03	26.7396
1512.29	32.7574
1512.56	31.7352
1512.82	29.7117
1513.08	28.6987
1513.35	34.7157
1513.61	32.7004
1513.88	30.6892
1514.14	29.6917
1514.4	28.6983
1514.67	32.7185
1514.93	29.7007
1515.2	25.6762
1515.46	27.6763
1515.72	29.6757
1515.99	33.6792
1516.25	32.6652
1516.51	36.6689
1516.78	30.6477
1517.04	32.6499
1517.3	24.6258
1517.57	35.6531
1517.83	29.6372
1518.09	29.6386
1518.36	29.6434
1518.62	31.6501
1518.88	33.6577
1519.15	32.6559
1519.41	28.6454
1519.67	31.6567
1519.94	29.6509
1520.2	31.656
1520.47	31.6523
1520.73	34.6587
1520.99	33.6568
1521.26	30.6496
1521.52	36.6719
1521.78	35.669
1522.05	32.6567
1522.31	31.6497
1522.57	31.6453
1522.84	32.6437
1523.1	31.6366
1523.36	32.6332
1523.62	28.6125
1523.89	34.6128
1524.15	29.5934
1524.41	29.5863
1524.68	28.5788
1524.94	35.5825
1525.2	29.5774
1525.47	33.5839
1525.73	29.5784
1525.99	32.587
1526.26	33.5943
1526.52	37.6111
1526.78	30.602
1527.05	32.6086
1527.31	31.6047
1527.57	35.6083
1527.84	31.5965
1528.1	31.593
1528.36	33.5936
1528.63	32.5868
1528.89	29.5772
1529.15	35.5839
1529.41	33.578
1529.68	28.5684
1529.94	29.5673
1530.2	29.5617
1530.47	31.5623
1530.73	34.5689
1530.99	33.5737
1531.25	31.5762
1531.52	31.5803
1531.78	31.5803
1532.04	32.5794
1532.31	30.5755
1532.57	30.5706
1532.83	33.5795
1533.09	32.5856
1533.36	32.5968
1533.62	31.6035
1533.88	34.6165
1534.15	30.606
1534.41	31.6081
1534.67	32.6086
1534.94	31.6022
1535.2	32.601
1535.46	32.5973
1535.72	32.5902
1535.99	31.5707
1536.25	33.5638
1536.51	37.5619
1536.77	34.5441
1537.04	34.5302
1537.3	34.5179
1537.56	30.5104
1537.82	32.5029
1538.09	38.5039
1538.35	33.495
1538.61	31.484
1538.87	33.4793
1539.14	32.4757
1539.4	32.484
1539.66	31.5018
1539.92	32.5257
1540.19	29.5368
1540.45	34.559
1540.71	30.5638
1540.97	27.5634
1541.24	27.5658
1541.5	35.5728
1541.76	33.5655
1542.02	31.5511
1542.29	28.5367
1542.55	31.5335
1542.81	31.5247
1543.07	34.5199
1543.34	31.5084
1543.6	33.5011
1543.86	33.4892
1544.12	28.4766
1544.39	30.4773
1544.65	32.4787
1544.91	30.4842
1545.17	32.4942
1545.43	34.5025
1545.7	29.5094
1545.96	32.5196
1546.22	27.5151
1546.48	33.5278
1546.74	31.5217
1547.01	36.5311
1547.27	32.5272
1547.53	33.5324
1547.79	31.5312
1548.06	38.5363
1548.32	32.5072
1548.58	33.5076
1548.84	32.5073
1549.1	36.5231
1549.37	33.4857
1549.63	30.4503
1549.89	35.4403
1550.15	31.4594
1550.42	29.49
1550.68	30.5376
1550.94	33.5823
1551.2	33.615
1551.46	34.5951
1551.73	32.5896
1551.99	33.586
1552.25	33.5745
1552.51	32.585
1552.77	34.6068
1553.03	36.6101
1553.3	33.5865
1553.56	34.5641
1553.82	28.5387
1554.08	34.554
1554.34	34.546
1554.61	32.53
1554.87	34.5226
1555.13	37.5151
1555.39	35.5059
1555.65	36.5044
1555.91	31.4948
1556.18	36.505
1556.44	37.5064
1556.7	37.4998
1556.96	34.4945
1557.22	29.4875
1557.48	36.5009
1557.75	30.49
1558.01	37.4997
1558.27	32.4841
1558.53	32.4728
1558.79	34.4657
1559.06	33.4524
1559.32	34.4415
1559.58	36.4315
1559.84	36.4226
1560.1	35.4156
1560.36	34.4101
1560.63	31.4072
1560.89	30.4045
1561.15	33.3998
1561.41	29.4014
1561.67	33.4003
1561.93	30.407
1562.19	36.4139
1562.46	36.4242
1562.72	35.4236
1562.98	32.4207
1563.24	37.4174
1563.5	31.418
1563.76	31.4141
1564.02	30.4114
1564.29	34.4227
1564.55	33.4349
1564.81	34.4392
1565.07	33.4352
1565.33	30.4147
1565.59	33.3544
1565.85	32.2749
1566.11	35.2166
1566.38	35.3642
1566.64	31.4068
1566.9	34.3881
1567.16	30.3686
1567.42	36.3913
1567.68	35.4229
1567.94	30.4121
1568.2	36.3872
1568.47	34.3914
1568.73	29.3961
1568.99	30.3974
1569.25	30.3937
1569.51	29.3819
1569.77	32.3724
1570.03	36.3691
1570.29	33.3731
1570.55	33.3731
1570.82	31.374
1571.08	33.3713
1571.34	30.371
1571.6	36.3629
1571.86	32.3599
1572.12	30.3553
1572.38	35.348
1572.64	33.3451
1572.9	36.3334
1573.17	33.3318
1573.43	35.3228
1573.69	35.316
1573.95	32.3161
1574.21	32.3161
1574.47	31.3231
1574.73	35.3234
1574.99	32.3352
1575.25	33.3417
1575.51	35.3475
1575.78	35.3533
1576.04	34.3548
1576.3	35.3508
1576.56	32.3514
1576.82	29.3493
1577.08	36.3311
1577.34	32.3221
1577.6	31.3112
1577.86	34.2925
1578.12	36.2755
1578.38	33.2722
1578.64	34.262
1578.9	33.2622
1579.17	35.2549
1579.43	37.2476
1579.69	33.2594
1579.95	33.2606
1580.21	27.2819
1580.47	36.258
1580.73	33.2662
1580.99	39.2471
1581.25	35.2534
1581.51	33.2531
1581.77	30.2574
1582.03	30.2503
1582.29	38.2138
1582.55	30.2398
1582.81	39.2028
1583.07	30.2335
1583.33	36.2075
1583.59	34.2134
1583.85	39.1918
1584.11	37.1951
1584.38	32.2146
1584.64	36.2007
1584.9	37.1985
1585.16	43.1759
1585.42	37.198
1585.68	36.199
1585.94	35.2012
1586.2	41.1726
1586.46	33.1963
1586.72	38.1644
1586.98	34.1754
1587.24	36.1603
1587.5	34.1654
1587.76	40.1313
1588.02	38.1387
1588.28	32.1686
1588.54	37.1455
1588.8	34.1636
1589.06	35.1632
1589.32	41.1391
1589.58	35.1706
1589.84	38.1599
1590.1	36.1692
1590.36	38.1595
1590.62	35.1747
1590.88	39.1614
1591.14	43.148
1591.4	37.1705
1591.66	33.1859
1591.92	38.1619
1592.18	35.1699
1592.44	37.152
1592.7	38.1343
1592.96	36.1345
1593.22	34.1384
1593.48	34.1248
1593.74	42.0624
1594	37.0756
1594.26	38.0584
1594.52	37.0591
1594.78	38.0515
1595.04	38.0553
1595.3	37.0687
1595.56	38.0667
1595.82	33.0974
1596.08	38.0474
1596.34	39.0389
1596.6	30.0991
1596.86	37.0511
1597.12	37.0517
1597.38	38.0468
1597.64	39.0428
1597.9	33.0844
1598.16	38.0501
1598.42	42.0191
1598.68	36.0514
1598.94	40.0123
1599.2	38.0161
1599.46	39.9931
1599.72	39.9853
1599.98	42.9541
1600.24	36.9937
1600.5	35.003
1600.76	36.9785
1601.02	39.9426
1601.28	38.938
1601.54	35.9517
1601.8	38.9103
1602.06	42.8595
1602.32	40.8695
1602.58	36.9014
1602.84	38.8716
1603.1	35.8931
1603.36	40.8298
1603.62	31.9206
1603.88	38.8374
1604.14	39.822
1604.4	40.8089
1604.66	34.8764
1604.92	43.7754
1605.17	37.8424
1605.43	39.82
1605.69	41.7984
1605.95	39.8232
1606.21	39.8271
1606.47	37.8533
1606.73	43.7932
1606.99	38.8501
1607.25	44.7589
1607.51	36.9651
1607.77	36.0706
1608.03	41.7885
1608.29	40.6494
1608.55	43.3568
1608.81	44.4624
1609.07	42.3173
1609.32	39.6321
1609.58	43.8349
1609.84	38.3585
1610.1	39.324
1610.36	41.4612
1610.62	38.1888
1610.88	39.7018
1611.14	39.667
1611.4	40.6212
1611.66	41.3599
1611.92	40.313
1612.18	39.4629
1612.44	39.6942
1612.69	43.3697
1612.95	37.0739
1613.21	39.8856
1613.47	42.0704
1613.73	44.2042
1613.99	41.9677
1614.25	41.2346
1614.51	37.0964
1614.77	42.4264
1615.03	43.445
1615.29	39.2417
1615.54	41.7883
1615.8	43.4175
1616.06	41.8006
1616.32	41.7171
1616.58	38.1226
1616.84	42.0048
1617.1	40.1891
1617.36	41.9044
1617.62	45.2078
1617.88	40.091
1618.13	43.0513
1618.39	43.5417
1618.65	44.0307
1618.91	42.248
1619.17	45.1099
1619.43	40.6536
1619.69	43.1118
1619.95	40.8609
1620.2	42.4874
1620.46	44.9183
1620.72	45.0553
1620.98	44.231
1621.24	43.8155
1621.5	42.7131
1621.76	42.8585
1622.02	41.6599
1622.27	40.9622
1622.53	41.6138
1622.79	43.3725
1623.05	45.6026
1623.31	45.5377
1623.57	45.8164
1623.83	43.5192
1624.09	43.1097
1624.34	44.7335
1624.6	43.2082
1624.86	43.9883
1625.12	42.5448
1625.38	42.5436
1625.64	42.257
1625.9	45.1947
1626.15	45.832
1626.41	45.5121
1626.67	43.6519
1626.93	44.4323
1627.19	47.2454
1627.45	48.0349
1627.7	44.0078
1627.96	42.5594
1628.22	46.23
1628.48	43.6954
1628.74	43.9792
1629	43.8365
1629.26	44.3565
1629.51	43.179
1629.77	44.7397
1630.03	44.29
1630.29	45.6321
1630.55	45.1386
1630.81	45.2621
1631.06	42.7241
1631.32	43.0301
1631.53	46.9164
1631.79	41.0117
1632.05	45.9453
1632.31	43.9813
1632.57	45.9493
1632.84	44.9755
1633.1	44.9973
1633.36	43.9946
1633.62	41.0152
1633.88	44.951
1634.14	45.942
1634.4	46.9341
1634.66	42.9931
1634.93	44.9649
1635.19	44.9635
1635.45	40.0327
1635.71	41.0151
1635.97	45.9386
1636.23	41.0061
1636.49	46.9121
1636.75	40.0093
1637.02	44.9284
1637.28	45.9054
1637.54	45.8963
1637.8	43.9221
1638.06	49.8274
1638.32	50.8066
1638.58	45.8786
1638.84	44.8901
1639.1	44.8898
1639.37	50.7953
1639.63	49.8097
1639.89	47.8399
1640.15	48.8227
1640.41	45.8673
1640.67	49.8053
1640.93	46.8604
1641.19	46.8659
1641.46	45.8823
1641.72	45.8784
1641.98	44.8881
1642.24	43.8997
1642.5	47.8343
1642.76	45.8628
1643.02	39.9539
1643.28	41.9204
1643.54	39.95
1643.8	44.8696
1644.06	40.9284
1644.33	51.7481
1644.59	47.8035
1644.85	44.8451
1645.11	40.9077
1645.37	43.8616
1645.63	41.8987
1645.89	43.8692
1646.15	47.8054
1646.41	43.8639
1646.67	46.8096
1646.93	48.7714
1647.19	44.8326
1647.46	45.8109
1647.72	43.8381
1647.98	51.7008
1648.24	44.8151
1648.5	47.7663
1648.76	43.8394
1649.02	43.847
1649.28	39.9307
1649.54	42.8914
1649.8	46.8236
1650.06	48.7863
1650.32	54.6911
1650.58	44.8604
1650.85	42.9006
1651.11	45.8629
1651.37	43.9004
1651.63	46.8614
1651.89	47.8487
1652.15	41.9355
1652.41	48.833
1652.67	46.8632
1652.93	44.887
1653.19	46.8514
1653.45	48.8186
1653.71	46.8475
1653.97	42.9077
1654.23	45.8674
1654.49	45.8696
1654.75	44.8852
1655.01	43.9019
1655.27	43.9067
1655.53	47.8584
1655.8	50.8301
1656.06	43.9415
1656.32	41.9775
1656.57	45.9312
1656.84	47.9087
1657.1	47.9102
1657.36	46.921
1657.62	44.9421
1657.88	41.9757
1658.14	51.8407
1658.4	44.9286
1658.66	43.9363
1658.92	45.9025
1659.18	49.8406
1659.44	47.86
1659.7	43.9078
1659.96	46.8584
1660.22	44.876
1660.48	38.9639
1660.74	43.8979
1661	43.9039
1661.26	46.8698
1661.52	39.9723
1661.78	42.9398
1662.04	44.9162
1662.3	39.9845
1662.56	44.8775
1662.82	42.9852
1663.08	41.051
1663.34	43.9929
1663.6	42.0106
1663.86	47.9273
1664.12	44.8706
1664.38	44.9169
1664.64	40.9781
1664.9	42.9556
1665.16	41.9882
1665.42	43.972
1665.68	43.9241
1665.94	45.8548
1666.2	44.9826
1666.46	45.9803
1666.72	42.0197
1666.98	48.8722
1667.24	42.8151
1667.5	46.8882
1667.76	38.9815
1668.02	46.8688
1668.28	41.9297
1668.54	37.9757
1668.8	39.949
1669.06	38.979
1669.32	44.9257
1669.58	44.9298
1669.84	42.9545
1670.1	44.9309
1670.36	40.9747
1670.62	40.9739
1670.88	44.947
1671.14	42.9841
1671.4	39.0251
1671.66	43.9632
1671.92	42.9721
1672.18	45.9384
1672.44	45.9416
1672.69	37.0457
1672.95	39.0217
1673.21	41.9863
1673.47	43.9637
1673.73	38.0333
1673.99	40.0124
1674.25	39.027
1674.51	41.9981
1674.77	43.9806
1675.03	38.0504
1675.29	42.0142
1675.55	43.0094
1675.81	38.0642
1676.07	43.0121
1676.33	40.0418
1676.59	39.0527
1676.85	40.0436
1677.11	40.0439
1677.37	41.0322
1677.63	37.0704
1677.89	42.0142
1678.14	40.0286
1678.4	44.9664
1678.66	40.9997
1678.92	37.0361
1679.18	39.0076
1679.44	41.968
1679.7	38.0095
1679.96	37.0164
1680.22	38.0001
1680.48	38.9847
1680.74	38.9799
1681	33.0468
1681.26	38.9709
1681.52	38.9682
1681.78	42.9183
1682.03	36.9897
1682.29	37.9767
1682.55	39.952
1682.81	35.0123
1683.07	35.9979
1683.33	37.9718
1683.59	37.9705
1683.85	35.006
1684.11	39.9434
1684.37	38.9523
1684.63	38.9455
1684.89	39.929
1685.14	38.9386
1685.4	34.9866
1685.66	38.9349
1685.92	40.9087
1686.18	36.9583
1686.44	34.9833
1686.7	37.948
1686.96	34.0037
1687.22	34.9942
1687.48	36.9699
1687.73	33.015
1687.99	34.9858
1688.25	35.9685
1688.51	38.9269
1688.77	36.947
1689.03	34.9663
1689.29	38.9063
1689.55	36.9251
1689.81	40.8647
1690.06	38.8829
1690.32	33.9419
1690.58	37.8839
1690.84	35.9187
1691.1	34.9359
1691.36	33.9514
1691.62	34.939
1691.88	33.955
1692.13	39.8788
1692.39	34.9432
1692.65	33.9536
1692.91	33.9478
1693.17	34.9271
1693.43	37.8774
1693.69	36.8804
1693.95	32.9255
1694.2	36.8604
1694.46	41.7793
1694.72	36.8439
1694.98	31.9125
1695.24	33.8813
1695.5	35.8525
1695.76	35.8536
1696.01	36.84
1696.27	36.8417
1696.53	32.9042
1696.79	34.8774
1697.05	32.9052
1697.31	34.8721
1697.57	33.8796
1697.82	28.9453
1698.08	34.8452
1698.34	31.8835
1698.6	33.8459
1698.86	33.8395
1699.12	34.8181
1699.38	38.7506
1699.63	35.7969
1699.89	26.942
1700.15	31.8614
1700.41	35.7972
1700.67	26.9352
1700.92	34.8036
1701.18	35.7849
1701.44	33.8146
1701.7	35.778
1701.96	30.854
1702.22	39.6965
1702.47	36.7393
1702.73	32.7997
1702.99	35.741
1703.25	32.7901
1703.51	37.7015
1703.77	38.6807
1704.02	35.7288
1704.28	27.8664
1704.54	37.6931
1704.8	38.6799
1705.06	31.8014
1705.32	35.7296
1705.57	27.8659
1705.83	34.743
1706.09	34.7421
1706.35	34.7359
1706.61	29.8166
1706.86	32.7548
1707.12	32.7458
1707.38	35.6814
1707.64	35.6729
1707.9	30.7575
1708.16	31.7278
1708.41	29.7562
1708.67	33.6663
1708.93	37.5722
1709.19	30.7035
1709.44	32.654
1709.7	31.6693
1709.96	34.6031
1710.22	37.5384
1710.48	36.5593
1710.73	31.6646
1710.99	29.7081
1711.25	30.6908
1711.51	33.6307
1711.77	34.6122
1712.02	36.5728
1712.28	35.593
1712.54	28.7325
1712.8	33.6192
1713.06	33.6047
1713.31	31.633
1713.57	36.5092
1713.83	31.6075
1714.09	32.5721
1714.34	34.5192
1714.6	32.5603
1714.86	33.5332
1715.12	33.5304
1715.38	36.459
1715.63	31.5799
1715.89	30.6088
1716.15	30.6077
1716.41	30.6043
1716.66	34.5065
1716.92	36.4516
1717.18	32.535
1717.44	32.5229
1717.69	29.5816
1717.95	33.4668
1718.21	31.5021
1718.47	33.438
1718.72	31.4782
1718.98	29.5228
1719.24	32.4393
1719.5	34.385
1719.75	33.4101
1720.01	36.3281
1720.27	32.4352
1720.53	35.3567
1720.78	33.4052
1721.04	30.478
1721.3	30.469
1721.56	34.3535
1721.81	33.373
1722.07	31.4196
1722.33	30.4387
1722.59	30.4301
1722.84	37.2241
1723.1	32.3567
1723.36	30.4062
1723.62	33.3137
1723.87	32.3379
1724.13	30.3946
1724.39	34.275
1724.64	31.3596
1724.9	31.3537
1725.16	26.4921
1725.42	33.2719
1725.67	34.2291
1725.93	33.246
1726.19	33.237
1726.45	33.2322
1726.7	28.3881
1726.96	33.2303
1727.22	32.2556
1727.47	34.1805
1727.73	30.3046
1727.99	29.3421
1728.24	32.2455
1728.5	37.082
1728.76	32.2263
1729.02	33.1484
1729.27	35.9931
1729.53	27.289
1729.79	31.1648
1730.05	38.9067
1730.3	27.3262
1730.56	34.0683
1730.82	33.0929
1731.07	31.1583
1731.33	35.0576
1731.59	24.4281
1731.84	30.2265
1732.1	30.2249
1732.36	34.0878
1732.61	30.2185
1732.87	35.0453
1733.13	31.175
1733.39	32.1334
1733.64	33.0884
1733.9	29.2139
1734.16	35.9542
1734.41	31.1203
1734.67	34.0022
1734.93	32.0628
1735.18	29.161
1735.44	30.1142
1735.7	30.105
1735.95	30.0979
1736.21	32.0176
1736.47	32.0138
1736.72	36.8217
1736.98	29.1177
1737.24	31.0372
1737.49	31.0319
1737.75	28.1412
1738.01	31.9838
1738.26	29.0926
1738.52	33.8926
1738.78	32.9235
1739.03	32.9158
1739.29	32.9071
1739.55	30.0154
1739.8	30.0034
1740.06	31.9085
1740.32	30.935
1740.57	34.7581
1740.83	28.0363
1741.09	32.8204
1741.34	32.8122
1741.6	31.8462
1741.86	31.8389
1742.11	29.9177
1742.37	28.9562
1742.63	29.9111
1742.88	31.8225
1743.14	31.8183
1743.4	30.8583
1743.65	34.6852
1743.91	29.8956
1744.16	35.6299
1744.42	34.6662
1744.68	29.8774
1744.93	29.8744
1745.19	31.7864
1745.45	30.8295
1745.7	32.7417
1745.96	31.7827
1746.22	28.9088
1746.47	32.7268
1746.73	30.8057
1746.98	27.9289
1747.24	30.7878
1747.5	30.7782
1747.75	26.9507
1748.01	29.8077
1748.27	32.6671
1748.52	31.7109
1748.78	27.8922
1749.03	30.7562
1749.29	29.8028
1749.55	31.7149
1749.8	30.7641
1750.06	31.7244
1750.32	26.9539
1750.57	32.6927
1750.83	33.6546
1751.08	30.7888
1751.34	27.9235
1751.6	34.6155
1751.85	31.7426
1752.11	31.7327
1752.36	28.8563
1752.62	29.8039
1752.88	30.7517
1753.13	31.6986
1753.39	32.6452
1753.64	30.7296
1753.9	28.8153
1754.15	30.7178
1754.41	32.6177
1754.67	32.6097
1754.92	29.7436
1755.18	27.8321
1755.43	33.5471
1755.69	33.542
1755.95	30.6769
1756.2	30.6695
1756.46	33.5186
1756.71	27.7956
1756.97	29.6896
1757.23	31.5826
1757.48	32.5239
1757.74	28.7144
1757.99	31.5632
1758.25	34.4178
1758.5	27.767
1758.76	29.6718
1759.02	34.4294
1759.27	28.7196
1759.53	32.5254
1759.78	34.4295
1760.04	30.6216
1760.3	29.6669
1760.55	32.5179
1760.81	28.7085
1761.06	30.6069
1761.32	33.4545
1761.57	29.6433
1761.83	29.6372
1762.08	31.534
1762.34	35.3331
1762.6	30.5781
1762.85	35.336
1763.11	28.6833
1763.36	27.7323
1763.62	29.6318
1763.87	30.5827
1764.13	30.5841
1764.38	32.4885
1764.64	35.3479
1764.89	33.4571
1765.15	33.4615
1765.4	29.6576
1765.66	34.4193
1765.92	30.6127
1766.17	33.4692
1766.43	33.4684
1766.68	34.4186
1766.94	31.5591
1767.19	34.4118
1767.45	31.5548
1767.7	30.5995
1767.96	27.7394
1768.21	33.4437
1768.47	35.3419
1768.73	29.6299
1768.98	30.5782
1769.24	28.6631
1769.49	29.5969
1769.75	32.4305
1770	34.3177
1770.26	32.4187
1770.51	36.2247
1770.77	31.4827
1771.02	30.5323
1771.28	31.4838
1771.53	31.4914
1771.79	29.6003
1772.04	31.505
1772.3	30.555
1772.55	33.4125
1772.81	31.5158
1773.06	28.6655
1773.32	29.6197
1773.57	31.5257
1773.83	28.6728
1774.08	30.5784
1774.34	32.484
1774.59	30.581
1774.85	38.1982
1775.1	31.5373
1775.36	31.5389
1775.61	29.6387
1775.87	34.4159
1776.12	31.5645
1776.38	29.6611
1776.63	34.4281
1776.89	31.5658
1777.14	37.2801
1777.4	33.4608
1777.65	32.5035
1777.91	29.6386
1778.16	34.3955
1778.42	30.5787
1778.67	36.2858
1778.93	33.4212
1779.18	30.5562
1779.44	32.45
1779.69	33.3952
1779.95	29.5885
1780.2	29.5961
1780.46	31.5008
1780.71	29.5987
1780.97	32.4561
1781.22	31.5065
1781.47	31.5064
1781.73	32.459
1781.98	29.6047
1782.24	29.6079
1782.49	29.6118
1782.75	30.5706
1783	33.4329
1783.26	32.4831
1783.51	32.4859
1783.77	28.6766
1784.02	33.446
1784.28	33.4501
1784.53	32.5017
1784.79	27.7398
1785.04	26.7892
1785.29	27.7447
1785.55	32.5145
1785.8	32.512
1786.06	31.5538
1786.31	31.5497
1786.57	29.6416
1786.82	27.7353
1787.08	33.4638
1787.33	30.6071
1787.58	33.4786
1787.84	25.8504
1788.09	29.6874
1788.35	30.6617
1788.6	32.594
1788.86	28.778
1789.11	26.8673
1789.37	31.6611
1789.62	28.7981
1789.87	32.6376
1790.13	29.7658
1790.38	34.5615
1790.64	28.8133
1790.89	31.6888
1791.15	31.6866
1791.4	30.7202
1791.65	28.785
1791.91	27.824
1792.16	27.8205
1792.42	32.6084
1792.67	26.8626
1792.93	27.821
1793.18	30.6975
1793.43	26.8673
1793.69	26.8672
1793.94	25.9086
1794.2	30.7021
1794.45	26.8696
1794.7	29.7429
1794.96	31.6537
1795.21	27.8285
1795.47	25.931
1795.72	25.9434
1795.97	29.7888
1796.23	27.8727
1796.48	29.7974
1796.74	28.8418
1796.99	26.9255
1797.25	29.8125
1797.5	25.9734
1797.75	26.9379
1798.01	28.8632
1798.26	25.9814
1798.51	25.983
1798.77	27.9069
1799.02	29.8294
1799.28	29.827
1799.53	28.8615
1799.78	28.8562
1800.04	30.7719
1800.29	25.0001
1800.55	30.7603
1800.8	26.9132
1801.05	29.7917
1801.31	28.8286
1801.56	30.7479
1801.81	26.905
1802.07	27.8657
1802.32	26.9061
1802.58	25.9472
1802.83	28.8323
1803.08	30.7583
1803.34	27.88
1803.59	29.808
1803.84	25.0044
1804.1	32.6994
1804.35	28.8534
1804.61	30.78
1804.86	25.9747
1805.11	27.9031
1805.37	27.9085
1805.62	25.0265
1805.87	28.8836
1806.13	26.9626
1806.38	28.8933
1806.64	29.8606
1806.89	27.9365
1807.14	27.9382
1807.4	27.9383
1807.65	28.9016
1807.9	26.9732
1808.16	28.9004
1808.41	28.9001
1808.66	28.9
1808.92	26.9722
1809.17	27.9363
1809.42	30.8286
1809.68	27.9367
1809.93	26.973
1810.18	26.9734
1810.44	27.9376
1810.69	25.0446
1810.94	28.899
1811.2	31.789
1811.45	31.7877
1811.7	26.9659
1811.96	31.7849
1812.21	30.8204
1812.46	26.0006
1812.72	29.8594
1812.97	28.8984
1813.22	26.9737
1813.48	28.9061
1813.73	30.8365
1813.98	29.8752
1814.24	30.8461
1814.49	31.8189
1814.74	27.9644
1815	25.0748
1815.25	26.045
1815.5	26.0482
1815.76	26.0496
1816.01	29.916
1816.26	28.9501
1816.52	30.884
1816.77	27.9853
1817.02	30.8867
1817.27	33.7841
1817.53	27.9791
1817.78	27.9653
1818.03	26.9894
1818.29	31.8189
1818.54	28.9258
1818.79	30.8653
1819.05	25.0708
1819.3	31.8333
1819.55	26.0362
1819.8	31.8378
1820.06	27.974
1820.31	28.9425
1820.56	28.9451
1820.82	28.9482
1821.07	27.9834
1821.32	29.9197
1821.58	29.9229
1821.83	27.9918
1822.08	24.1242
1822.33	27.9974
1822.59	24.1276
1822.84	33.8081
1823.09	28.969
1823.34	23.1611
1823.6	28.9682
1823.85	28.965
1824.1	26.0575
1824.36	31.8632
1824.61	27.0252
1824.86	28.9628
1825.11	26.0601
1825.37	27.9983
1825.62	25.0955
1825.87	30.907
1826.12	28.0014
1826.38	26.0636
1826.63	29.9371
1826.88	31.8741
1827.14	27.9999
1827.39	27.0323
1827.64	28.0027
1827.89	28.005
1828.15	28.0069
1828.4	26.0684
1828.65	28.0043
1828.9	28.0007
1829.16	27.0272
1829.41	28.961
1829.66	29.9276
1829.91	29.9256
1830.17	27.9861
1830.42	27.0137
1830.67	31.8509
1830.92	31.8467
1831.18	27.0054
1831.43	30.8805
1831.68	28.9471
1831.93	27.9817
1832.19	27.9844
1832.44	28.9559
1832.69	28.9591
1832.94	27.995
1833.2	31.8752
1833.45	25.09
1833.7	31.8749
1833.95	29.9382
1834.2	27.0304
1834.46	29.94
1834.71	29.9314
1834.96	27.9774
1835.21	26.0262
1835.47	29.8848
1835.72	27.94
1835.97	31.8007
1836.22	26.9631
1836.48	27.9231
1836.73	30.9479
1836.98	28.0305
1837.23	27.0226
1837.48	27.009
1837.74	29.8943
1837.99	30.8427
1838.24	27.9102
1838.49	29.8248
1838.74	26.9219
1839	28.9015
1839.25	28.9216
1839.5	26.9938
1839.75	30.8726
1840	25.0613
1840.26	28.9441
1840.51	28.9168
1840.76	27.9281
1841.01	25.9763
1841.27	27.8958
1841.52	30.7806
1841.77	28.8344
1842.02	26.8911
1842.27	28.8107
1842.53	29.7648
1842.78	29.7542
1843.03	27.8293
1843.28	28.7902
1843.53	24.934
1843.78	25.8974
1844.04	28.7904
1844.29	24.9284
1844.54	23.9629
1844.79	25.8943
1845.04	24.9293
1845.3	26.8533
1845.55	26.8535
1845.8	28.782
1846.05	25.8981
1846.3	26.8739
1846.55	28.8152
1846.81	26.9016
1847.06	30.7496
1847.31	27.8111
1847.56	26.8007
1847.81	27.7536
1848.07	27.7533
1848.32	25.8402
1848.57	27.7784
1848.82	26.8003
1849.07	26.7923
1849.32	29.6808
1849.57	24.8609
1849.83	25.8153
1850.08	27.7305
1850.33	25.7979
1850.58	28.6717
1850.83	31.5459
1851.09	26.7323
1851.34	27.6864
1851.59	27.6803
1851.84	23.8339
1852.09	26.7115
1852.34	23.8286
1852.59	24.7877
1852.84	26.7074
1853.1	25.7462
1853.35	23.8242
1853.6	24.7819
1853.85	30.5386
1854.1	25.7325
1854.35	25.7245
1854.6	25.7153
1854.86	26.6662
1855.11	26.6611
1855.36	26.6562
1855.61	24.7307
1855.86	24.7218
1856.11	25.6742
1856.36	22.7975
1856.61	29.5001
1856.87	25.668
1857.12	23.7513
1857.37	25.6649
1857.62	29.4926
1857.87	30.4458
1858.12	26.6114
1858.37	24.6917
1858.63	25.643
1858.88	28.507
1859.13	22.7595
1859.38	27.5353
1859.63	27.5274
1859.88	24.6536
1860.13	25.6081
1860.38	26.5634
1860.63	29.4324
1860.89	24.6558
1861.14	25.6156
1861.39	26.5751
1861.64	24.6657
1861.89	29.4534
1862.14	26.5831
1862.39	29.4517
1862.64	26.576
1862.9	26.5695
1863.15	25.606
1863.4	27.5113
1863.65	24.6364
1863.9	25.5859
1864.15	27.4911
1864.4	27.4852
1864.65	26.5243
1864.9	25.5637
1865.15	27.4672
1865.4	28.4139
1865.66	24.5874
1865.91	28.3942
1866.16	26.4753
1866.41	27.4166
1866.66	23.5928
1866.91	23.5821
1867.16	26.4274
1867.41	22.6092
1867.66	32.1124
1867.91	27.3472
1868.16	23.5383
1868.41	27.3376
1868.67	26.3842
1868.92	28.2851
1869.17	27.335
1869.42	26.3832
1869.67	28.2823
1869.92	26.3784
1870.17	26.376
1870.42	28.2748
1870.67	26.3716
1870.92	27.3201
1871.17	28.2689
1871.42	30.1684
1871.67	24.4634
1871.92	28.2606
1872.17	26.3548
1872.42	30.1506
1872.68	25.3975
1872.93	24.4422
1873.18	29.1838
1873.43	27.2802
1873.68	25.3795
1873.93	29.1735
1874.18	28.2195
1874.43	24.4176
1874.68	25.36
1874.93	28.1982
1875.18	28.1901
1875.43	27.2336
1875.68	31.0159
1875.93	26.2671
1876.18	28.1454
1876.43	29.0807
1876.68	26.2323
1876.93	29.063
1877.18	26.2205
1877.43	27.1519
1877.68	23.3554
1877.93	24.2716
1878.18	25.235
1878.44	27.2215
1878.69	26.2361
1878.93	24.3311
1879.19	23.381
1879.44	28.1372
1879.69	26.2545
1879.94	25.2985
1880.19	27.1836
1880.44	26.2346
1880.69	30.0189
1880.94	23.3961
1881.19	26.2302
1881.44	28.1214
1881.69	27.1626
1881.94	27.1483
1882.19	24.2977
1882.44	27.1184
1882.69	29.9348
1882.94	28.9694
1883.19	25.1867
1883.44	27.0529
1883.69	30.0782
1883.94	29.0023
1884.19	25.1563
1884.44	26.0998
1884.69	26.1144
1884.94	26.0997
1885.19	23.28
1885.44	28.008
1885.69	24.2371
1885.94	28.0138
1886.19	28.0267
1886.44	25.1995
1886.69	24.258
1886.94	32.7542
1887.19	28.9636
1887.44	28.9563
1887.69	30.8358
1887.94	24.224
1888.19	26.1031
1888.44	26.0948
1888.69	24.1988
1888.94	25.1316
1889.19	27.0064
1889.44	23.231
1889.69	26.0504
1889.94	31.6966
1890.19	28.8704
1890.44	27.9308
1890.69	26.0531
1890.94	27.9419
1891.19	26.0592
1891.43	24.1736
1891.68	27.9377
1891.94	27.9363
1892.18	29.817
1892.43	29.8145
1892.68	27.9293
1892.93	26.9829
1893.18	27.9178
1893.43	28.8479
1893.68	23.1883
1893.93	25.996
1894.18	28.8116
1894.43	25.9953
1894.68	25.0453
1894.93	27.8585
1895.18	30.6738
1895.43	26.9159
1895.68	29.7357
1895.93	26.919
1896.18	25.9816
1896.43	25.9841
1896.68	30.6877
1896.93	31.6331
1897.18	24.1145
1897.42	26.9384
1897.68	25.9994
1897.92	28.8218
1898.17	27.8801
1898.42	27.8776
1898.67	28.8139
1898.92	25.987
1899.17	30.6809
1899.42	25.9727
1899.67	28.786
1899.92	26.9029
1900.17	28.7776
1900.42	27.8337
1900.67	30.6499
1900.92	27.8319
1901.16	26.8944
1901.41	27.8377
1901.66	26.9028
1901.91	28.7873
1902.16	26.9119
1902.41	24.096
1902.66	26.9224
1902.91	27.8625
1903.16	29.7405
1903.41	28.7961
1903.66	28.7917
1903.91	31.6093
1904.16	28.7856
1904.41	27.8432
1904.65	25.9611
1904.9	25.9593
1905.15	28.7774
1905.4	29.7155
1905.65	27.8341
1905.9	25.0116
1906.15	27.8229
1906.4	27.8125
1906.65	26.8685
1906.9	27.8036
1907.14	28.739
1907.39	26.858
1907.64	27.7965
1907.89	27.7973
1908.14	26.8609
1908.39	26.8651
1908.64	24.048
1908.89	30.6254
1909.14	26.8692
1909.39	27.8124
1909.63	28.7572
1909.88	27.8235
1910.13	26.8905
1910.38	25.0168
1910.63	28.7895
1910.88	30.6805
1911.13	31.6284
1911.38	25.0396
1911.62	27.8671
1911.87	27.8674
1912.12	28.8083
1912.37	25.9797
1912.62	35.3957
1912.87	28.8012
1913.12	25.9747
1913.37	28.7995
1913.61	30.6835
1913.86	26.9192
1914.11	29.7531
1914.36	25.0486
1914.61	30.7107
1914.86	24.115
1915.11	26.9491
1915.36	26.0102
1915.6	24.1259
1915.85	27.9011
1916.1	25.0687
1916.35	25.0658
1916.6	26.9506
1916.85	25.0591
1917.1	27.8825
1917.34	27.8767
1917.59	27.8718
1917.84	28.8108
1918.09	28.8082
1918.34	28.8082
1918.59	26.9256
1918.83	25.9876
1919.08	26.9372
1919.33	28.8318
1919.58	26.9523
1919.83	27.9071
1920.08	28.8609
1920.33	26.9758
1920.57	25.0864
1920.82	25.0826
1921.07	27.9181
1921.32	28.8696
1921.57	29.8218
1921.81	28.8801
1922.06	27.9376
1922.31	32.6681
1922.56	26.9927
1922.81	26.0441
1923.06	29.8214
1923.31	31.7072
1923.55	27.9219
1923.8	24.1378
1924.05	27.9154
1924.3	28.8556
1924.55	28.8496
1924.79	28.8452
1925.04	25.0643
1925.29	24.1197
1925.54	27.9016
1925.79	26.9616
1926.04	26.969
1926.28	25.0844
1926.53	24.1441
1926.78	27.9347
1927.03	26.9962
1927.28	29.8411
1927.52	27.0043
1927.77	29.8482
1928.02	26.0628
1928.27	28.9066
1928.52	28.9089
1928.76	27.9628
1929.01	26.0706
1929.26	34.602
1929.51	25.1287
1929.76	26.0815
1930	28.9337
1930.25	26.0946
1930.5	26.1018
1930.75	25.1582
1931	27.0629
1931.24	28.963
1931.49	27.064
1931.74	23.2635
1931.99	27.0568
1932.24	29.8997
1932.48	27.0476
1932.73	27.9919
1932.98	25.1405
1933.23	28.9333
1933.47	22.2885
1933.72	27.9809
1933.97	25.1414
1934.22	26.1023
1934.46	28.0186
1934.71	23.2884
1934.96	30.921
1935.21	29.9909
1935.46	30.9615
1935.7	25.2552
1935.95	26.2166
1936.2	24.292
1936.45	23.3357
1936.69	25.2394
1936.94	31.9056
1937.19	29.04
1937.44	26.1747
1937.68	31.882
1937.93	27.1141
1938.18	28.0602
1938.43	27.1019
1938.68	25.1974
1938.92	26.1574
1939.17	26.1597
1939.42	29.0198
1939.67	28.0714
1939.91	29.9795
1940.16	26.1725
1940.41	26.1728
1940.66	27.1314
1940.9	29.0438
1941.15	29.0622
1941.4	25.2555
1941.64	26.2089
1941.89	24.2963
1942.14	28.1021
1942.39	27.1311
1942.63	26.1866
1942.88	24.3035
1943.13	25.2632
1943.38	29.0829
1943.62	30.0248
1943.87	25.2401
1944.12	29.9992
1944.37	29.0631
1944.61	27.1595
1944.86	25.2548
1945.11	26.2148
1945.35	28.131
1945.6	26.2262
1945.85	28.1433
1946.1	29.1046
1946.34	28.1532
1946.59	28.1566
1946.84	25.2899
1947.09	25.2906
1947.33	28.1585
1947.58	28.1552
1947.83	27.1952
1948.07	32.9311
1948.32	28.1489
1948.57	26.2354
1948.82	31.9693
1949.06	26.2329
1949.31	26.2368
1949.56	28.1544
1949.8	30.0732
1950.05	29.123
1950.3	28.1726
1950.54	29.1414
1950.79	30.1122
1951.04	30.1221
1951.29	30.1331
1951.53	27.267
1951.78	32.0748
1952.03	26.3242
1952.27	28.2489
1952.52	29.2126
1952.77	30.177
1953.01	24.4126
1953.26	26.3374
1953.51	27.3042
1953.76	28.2563
1954	28.2447
1954.25	30.1448
1954.49	27.2498
1954.74	28.1931
1954.99	28.1793
1955.24	30.0903
1955.48	21.4669
1955.73	27.217
1955.98	25.307
1956.22	28.1934
1956.47	29.1721
1956.72	30.1393
1956.96	27.2682
1957.21	25.3517
1957.46	27.2778
1957.7	26.3221
1957.95	30.1696
1958.2	29.2122
1958.44	29.2144
1958.69	27.2934
1958.94	24.4104
1959.18	28.2521
1959.43	24.402
1959.68	30.1638
1959.92	29.201
1960.17	30.1564
1960.42	29.1902
1960.66	26.3038
1960.91	28.2189
1961.16	28.2127
1961.4	28.2069
1961.65	25.3225
1961.9	30.1172
1962.14	28.1981
1962.39	30.1183
1962.63	30.1187
1962.88	31.0791
1963.13	28.2
1963.37	28.2003
1963.62	29.1604
1963.87	28.2007
1964.11	28.2013
1964.36	26.2836
1964.61	31.0871
1964.85	30.1254
1965.1	25.3213
1965.35	28.2016
1965.59	30.1201
1965.84	33.9607
1966.08	28.2015
1966.33	30.1272
1966.58	32.0546
1966.82	27.2564
1967.07	30.1431
1967.32	31.1074
1967.56	27.2608
1967.81	28.2214
1968.05	27.2618
1968.3	31.1074
1968.55	30.1466
1968.79	32.068
1969.04	26.2965
1969.29	31.0966
1969.53	31.088
1969.78	32.9984
1970.02	30.1062
1970.27	28.1775
1970.52	30.0904
1970.76	32.0047
1971.01	31.0387
1971.25	29.1144
1971.5	29.1102
1971.75	26.2289
1971.99	26.226
1972.24	30.0639
1972.48	31.0253
1972.73	27.1887
1972.98	30.0656
1973.22	31.0214
1973.47	30.0562
1973.71	27.172
1973.96	26.2074
1974.21	31.9547
1974.45	28.117
1974.7	30.032
1974.94	30.0313
1975.19	29.0731
1975.44	31.9505
1975.68	30.0364
1975.93	34.8347
1976.17	30.0434
1976.42	31.964
1976.66	30.0469
1976.91	29.0879
1977.16	32.9243
1977.4	31.9632
1977.65	31.0011
1977.89	30.9967
1978.14	28.1143
1978.39	28.1088
1978.63	31.9387
1978.88	34.8099
1979.12	30.973
1979.37	34.806
1979.61	28.0968
1979.86	31.9302
1980.1	31.9306
1980.35	33.8475
1980.6	28.0925
1980.84	29.0449
1981.09	32.8718
1981.33	29.9938
1981.58	29.9887
1981.82	34.7738
1982.07	30.9394
1982.31	34.7685
1982.56	36.6818
1982.81	30.9297
1983.05	30.9236
1983.3	32.8299
1983.54	34.7331
1983.79	32.8112
1984.03	29.9373
1984.28	32.804
1984.52	33.7564
1984.77	30.8829
1985.02	32.792
1985.26	34.6979
1985.51	28.9526
1985.75	32.7712
1986	33.7263
1986.24	31.8159
1986.49	30.8635
1986.73	27.9995
1986.98	31.8259
1987.22	32.7801
1987.47	35.6505
1987.71	30.863
1987.96	34.6764
1988.21	32.7529
1988.45	35.6051
1988.7	32.7243
1988.94	31.745
1989.19	34.5793
1989.43	30.833
1989.68	34.5676
1989.92	33.6183
1990.17	32.731
1990.41	31.8866
1990.66	32.663
1990.9	33.8914
1991.15	33.6997
1991.39	32.2621
1991.64	29.3305
1991.88	34.8019
1992.13	32.228
1992.37	32.7939
1992.62	33.3085
1992.86	34.8887
1993.11	36.0232
1993.35	31.3256
1993.6	36.8106
1993.84	35.0609
1994.09	34.8773
1994.33	34.6199
1994.58	33.0672
1994.82	33.7033
1995.07	33.7596
1995.31	32.9933
1995.56	39.0607
1995.8	35.8859
1996.05	36.3357
1996.29	32.7958
1996.54	33.9229
1996.78	33.917
1997.03	35.9611
1997.27	36.8356
1997.52	35.1508
1997.76	35.5796
1998.01	30.0661
1998.25	36.0158
1998.5	36.503
1998.74	35.7719
1998.99	34.5763
1999.23	35.0173
1999.48	37.6417
1999.72	37.3246
1999.97	34.9531
2000.21	37.1016
2000.46	34.885
2000.7	37.3893
2000.95	36.738
2001.19	34.184
2001.43	36.4039
2001.68	37.1076
2001.92	36.9616
2002.17	38.5754
2002.41	36.5451
2002.66	38.5215
2002.9	36.8361
2003.15	36.4408
2003.39	35.8239
2003.64	36.7598
2003.88	36.693
2004.13	36.3118
2004.37	35.9011
2004.61	37.3299
2004.86	38.5558
2005.1	39.1511
2005.35	37.3297
2005.59	34.5592
2005.84	34.1805
2006.08	37.3428
2006.33	39.1826
2006.57	35.2959
2006.81	37.0316
2007.06	35.6565
2007.3	33.7446
2007.55	36.2426
2007.79	36.4313
2008.04	36.6962
2008.28	35.2223
2008.53	37.7632
2008.77	36.9568
2009.01	35.6293
2009.26	35.7475
2009.5	35.0755
2009.75	32.5655
2009.99	36.835
2010.24	37.2164
2010.48	38.8681
2010.73	38.3714
2010.97	37.6763
2011.21	37.7482
2011.46	37.7495
2011.7	40.1099
2011.95	35.9967
2012.19	37.639
2012.43	32.1779
2012.68	35.9414
2012.92	35.9384
2013.17	36.8719
2013.42	35.9177
2013.67	34.959
2013.91	32.1278
2014.16	33.0556
2014.41	33.9803
2014.66	33.962
2014.9	38.6387
2015.15	36.7565
2015.4	34.8808
2015.64	35.8238
2015.89	38.646
2016.14	33.9557
2016.39	38.6458
2016.63	35.8381
2016.88	37.7436
2017.13	34.929
2017.37	32.1071
2017.62	40.5591
2017.87	33.973
2018.11	35.8406
2018.36	35.8265
2018.61	35.8113
2018.86	33.9218
2019.1	37.66
2019.35	35.7699
2019.6	32.9456
2019.84	33.8757
2020.09	33.8706
2020.34	33.8676
2020.58	37.613
2020.83	37.6108
2021.08	33.8629
2021.33	38.5474
2021.57	34.8028
2021.82	32.9294
2022.07	35.7373
2022.31	36.6702
2022.56	33.8555
2022.81	34.7849
2023.05	37.5841
2023.3	32.8945
2023.55	33.8227
2023.8	37.5561
2024.04	35.6774
2024.29	35.6693
2024.54	36.5967
2024.78	34.7156
2025.03	36.5715
2025.27	34.6914
2025.52	33.7467
2025.77	33.7364
2026.02	31.861
2026.26	34.6473
2026.51	32.7849
2026.76	33.7298
2027	30.9498
2027.25	36.5793
2027.5	34.7399
2027.74	38.5009
2027.99	31.0107
2028.23	32.8608
2028.48	32.8302
2028.73	31.8092
2028.98	30.0251
2029.22	37.6344
2029.47	31.0095
2029.72	39.4665
2029.96	33.7882
2030.21	36.5526
2030.45	36.5107
2030.7	33.7103
2030.95	30.8867
2031.19	31.8413
2031.44	30.9266
2031.69	29.9886
2031.93	31.8545
2032.18	33.7213
2032.43	31.864
2032.67	31.8741
2032.92	34.6875
2033.17	33.7643
2033.41	27.2305
2033.66	35.6488
2033.91	31.9187
2034.15	31.9229
2034.4	32.8407
2034.64	31.8842
2034.89	32.7846
2035.14	35.5743
2035.38	33.7225
2035.63	31.8665
2035.87	33.7525
2036.12	33.7767
2036.37	33.7936
2036.61	32.8565
2036.86	30.9695
2037.11	31.9049
2037.35	31.9122
2037.6	32.8466
2037.84	32.8447
2038.09	32.8411
2038.34	33.7715
2038.58	28.1584
2038.83	32.8262
2039.08	27.2144
2039.32	31.8808
2039.57	36.5453
2039.81	31.8692
2040.06	34.6629
2040.31	28.1187
2040.55	29.977
2040.8	34.6335
2041.04	35.5575
2041.29	33.6848
2041.54	32.7462
2041.78	29.9464
2042.03	29.012
2042.27	30.8719
2042.52	32.7318
2042.77	31.7928
2043.01	31.7899
2043.26	29.926
2043.5	33.6554
2043.75	29.004
2044	33.6773
2044.24	29.9597
2044.49	30.8969
2044.73	29.9621
2044.98	32.7527
2045.23	33.6698
2045.47	31.7767
2045.72	30.8826
2045.96	31.8247
2046.21	30.001
2046.45	30.0494
2046.7	29.0885
2046.95	35.5987
2047.19	32.7721
2047.44	32.7731
2047.68	30.8968
2047.93	35.5337
2048.17	31.7971
2048.42	31.7981
2048.67	31.7993
2048.91	27.1394
2049.16	29.9392
2049.4	28.0812
2049.65	26.221
2049.89	31.8271
2050.14	29.9714
2050.39	30.913
2050.63	33.7235
2050.88	30.9259
2051.12	31.8614
2051.37	32.7933
2051.61	30.9183
2051.86	30.9089
2052.11	28.1071
2052.35	30.9086
2052.6	30.913
2052.84	29.0461
2053.09	28.1152
2053.33	31.8562
2053.58	29.059
2053.82	30.9355
2054.07	30.9498
2054.31	32.8259
2054.56	30.9591
2054.8	29.0889
2055.05	29.0879
2055.3	28.1507
2055.54	29.0837
2055.79	29.0764
2056.03	27.2028
2056.28	32.8109
2056.52	31.8726
2056.77	31.8688
2057.01	33.7358
2057.26	30.9312
2057.5	31.8671
2057.75	30.9344
2058	28.1331
2058.24	30.0072
2058.49	29.0762
2058.73	30.0186
2058.98	30.025
2059.22	30.9669
2059.47	29.0993
2059.71	30.0369
2059.96	29.1021
2060.2	27.2299
2060.45	29.0984
2060.69	31.9015
2060.94	32.8336
2061.18	30.0293
2061.43	30.9695
2061.67	29.0999
2061.92	30.9734
2062.16	29.1012
2062.41	27.2292
2062.65	29.1036
2062.9	29.1064
2063.14	30.9835
2063.39	28.1783
2063.63	28.1827
2063.88	25.3749
2064.12	31.0006
2064.37	30.0657
2064.61	34.7547
2064.86	30.071
2065.1	29.1375
2065.35	28.2061
2065.59	32.9051
2065.84	30.0987
2066.08	30.1057
2066.33	28.2336
2066.57	33.8711
2066.82	32.9333
2067.06	29.1799
2067.31	31.0615
2067.55	28.2458
2067.8	31.0677
2068.04	30.1329
2068.29	27.3174
2068.53	35.7789
2068.78	32.961
2069.02	31.0855
2069.27	25.4449
2069.51	27.3209
2069.76	33.8907
2070	30.1184
2070.25	28.2348
2070.49	29.1763
2070.73	31.0674
2070.98	32.0229
2071.22	30.158
2071.47	32.0366
2071.71	29.206
2071.96	31.1218
2072.2	32.0759
2072.45	30.1899
2072.69	27.3625
2072.94	30.1861
2073.18	30.1832
2073.43	27.3582
2073.67	30.1809
2073.92	27.3573
2074.16	27.3579
2074.4	32.0673
2074.65	30.1871
2074.89	34.902
2075.14	29.258
2075.38	25.4978
2075.63	29.2805
2075.87	34.9563
2076.12	31.1935
2076.36	30.255
2076.6	24.5914
2076.85	30.2565
2077.09	28.365
2077.34	30.2463
2077.58	29.2956
2077.83	30.2249
2078.07	27.3921
2078.31	28.3382
2078.56	30.2306
2078.8	29.2896
2079.05	29.2919
2079.29	28.3522
2079.54	31.1902
2079.78	30.2602
2080.03	29.3215
2080.27	30.2709
2080.51	25.5512
2080.76	26.4992
2081	34.0593
2081.25	26.4962
2081.49	28.3837
2081.74	28.3825
2081.98	30.2715
2082.22	23.6566
2082.47	31.217
2082.71	28.3842
2082.96	31.2205
2083.2	34.0559
2083.45	28.385
2083.69	31.2184
2083.93	30.2719
2084.18	30.2716
2084.42	26.4919
2084.67	31.216
2084.91	30.2712
2085.15	30.2719
2085.4	31.2168
2085.64	30.2714
2085.89	32.1613
2086.13	28.3828
2086.37	35.0072
2086.62	30.2899
2086.86	29.3507
2087.11	30.2993
2087.35	31.2488
2087.59	28.4149
2087.84	29.3637
2088.08	27.4708
2088.32	28.4174
2088.57	27.4714
2088.81	31.2582
2089.06	28.4199
2089.3	29.3676
2089.54	29.3718
2089.79	29.3765
2090.03	30.3311
2090.28	28.4392
2090.52	27.493
2090.76	31.2842
2091.01	24.6545
2091.25	29.3948
2091.5	28.4501
2091.74	29.4006
2091.98	28.4598
2092.23	28.4678
2092.47	29.4252
2092.72	31.3323
2092.96	29.4443
2093.2	28.5023
2093.45	29.459
2093.69	25.666
2093.93	27.5725
2094.18	28.5284
2094.42	31.3855
2094.66	31.387
2094.91	27.5836
2095.15	29.4834
2095.39	32.3329
2095.64	28.5252
2095.88	30.4203
2096.13	30.4156
2096.37	28.5117
2096.61	27.5592
2096.86	31.3578
2097.1	30.4062
2097.34	30.4018
2097.59	28.4962
2097.83	30.389
2098.07	25.6394
2098.32	29.4349
2098.56	27.5346
2098.8	29.4286
2099.05	28.4792
2099.29	34.1727
2099.53	31.3232
2099.78	31.3215
2100.02	28.4736
2100.27	31.3206
2100.51	29.4232
2100.75	29.4244
2101	27.5287
2101.24	31.3328
2101.48	35.1372
2101.73	27.5432
2101.97	29.4443
2102.21	29.444
2102.45	26.5935
2102.7	28.4929
2102.94	30.3904
2103.18	27.5364
2103.43	29.4292
2103.67	33.2228
2103.92	27.5259
2104.16	29.4224
2104.4	26.5749
2104.64	29.4248
2104.89	27.5301
2105.13	29.4331
2105.37	29.4369
2105.62	26.5919
2105.86	29.4481
2106.1	31.3541
2106.35	29.4563
2106.59	32.3107
2106.83	26.6083
2107.08	31.3625
2107.32	30.4143
2107.56	31.3658
2107.8	26.6085
2108.05	30.4052
2108.29	27.5462
2108.53	28.4883
2108.78	28.4803
2109.02	28.4739
2109.26	28.4712
2109.51	30.3711
2109.75	28.4791
2109.99	29.4345
2110.23	27.5345
2110.48	23.7343
2110.72	30.3838
2110.96	28.4834
2111.21	27.5332
2111.45	28.4826
2111.69	27.5303
2111.93	26.5764
2112.18	29.4225
2112.42	25.6218
2112.66	28.4702
2112.91	28.4727
2113.15	31.3248
2113.39	28.4783
2113.63	30.3854
2113.88	29.4409
2114.12	24.691
2114.36	30.3918
2114.61	29.4384
2114.85	26.5864
2115.09	28.4881
2115.33	31.3397
2115.58	28.4865
2115.82	27.5335
2116.06	25.6306
2116.31	29.4286
2116.55	29.4223
2116.79	25.6173
2117.03	29.4133
2117.28	27.5122
2117.52	29.4099
2117.76	27.5115
2118	27.5083
2118.25	28.453
2118.49	26.5495
2118.73	24.6442
2118.97	30.3288
2119.22	28.4246
2119.46	31.2631
2119.7	26.5158
2119.94	22.7184
2120.19	29.3479
2120.43	28.3957
2120.67	28.3939
2120.91	26.4992
2121.16	31.2419
2121.4	31.2445
2121.64	27.459
2121.88	27.4654
2122.13	24.6256
2122.37	29.3738
2122.61	28.4301
2122.85	24.638
2123.1	28.4376
2123.34	33.1869
2123.58	27.4932
2123.82	27.4939
2124.07	30.3394
2124.31	25.5896
2124.55	24.6358
2124.79	29.3731
2125.03	24.619
2125.28	29.3468
2125.52	27.4384
2125.76	28.3759
2126	26.473
2126.25	27.4116
2126.49	29.2969
2126.73	26.4517
2126.97	28.3378
2127.21	30.223
2127.46	28.3251
2127.7	29.2677
2127.94	28.3204
2128.18	32.1
2128.43	25.479
2128.67	27.3676
2128.91	25.4768
2129.15	25.4765
2129.39	26.4204
2129.64	27.3631
2129.88	30.1962
2130.12	29.2494
2130.36	27.3576
2130.6	27.3556
2130.85	27.3531
2131.09	27.3501
2131.33	26.4017
2131.57	24.5084
2131.81	29.2261
2132.06	27.3332
2132.3	28.2743
2132.54	32.991
2132.78	28.2648
2133.02	26.3718
2133.27	27.3125
2133.51	31.0862
2133.75	26.3689
2133.99	27.3133
2134.23	28.2569
2134.48	28.2578
2134.72	29.2021
2134.96	26.3697
2135.2	27.3123
2135.44	31.0859
2135.68	26.3658
2135.93	26.3628
2136.17	29.188
2136.41	29.1788
2136.65	30.1125
2136.89	30.1077
2137.14	29.1659
2137.38	28.224
2137.62	28.2242
2137.86	28.2269
2138.1	28.2327
2138.34	30.1162
2138.59	30.1073
2138.83	29.158
2139.07	31.0484
2139.31	25.3998
2139.55	29.1784
2139.79	28.2207
2140.03	29.1521
2140.28	28.2044
2140.52	31.0262
2140.76	28.1958
2141	31.0182
2141.24	27.248
2141.49	28.1872
2141.73	29.1291
2141.97	29.1228
2142.21	27.2331
2142.45	28.1717
2142.69	29.1126
2142.93	24.4105
2143.18	28.1805
2143.42	27.2607
2143.66	25.3655
2143.9	28.1208
2144.14	33.7583
2144.38	30.0049
2144.62	24.374
2144.87	30.025
2145.11	23.4457
2145.35	28.1327
2145.59	29.0749
2145.83	27.1953
2146.07	28.1336
2146.31	28.1309
2146.55	28.1281
2146.8	31.8855
2147.04	27.1829
2147.28	27.1799
2147.52	29.055
2147.76	27.1716
2148	29.0468
2148.24	29.0434
2148.48	29.0397
2148.73	29.0359
2148.97	31.8488
2149.21	29.9658
2149.45	29.0206
2149.69	29.9517
2149.93	23.3725
2150.17	29.9316
2150.42	26.1727
2150.66	28.0418
2150.9	30.8505
2151.14	25.2258
2151.38	32.7265
2151.62	27.1065
2151.86	26.1713
2152.1	27.1127
2152.34	26.1764
2152.58	24.3038
2152.83	28.989
2153.07	28.0468
2153.31	26.1662
2153.55	27.0989
2153.79	30.8454
2154.03	28.0305
2154.27	28.9625
2154.51	29.8919
2154.75	28.0083
2154.99	26.1238
2155.24	27.9845
2155.48	32.648
2155.72	27.9622
2155.96	25.1493
2156.2	27.0115
2156.44	24.2031
2156.68	27.0028
2156.92	24.1987
2157.16	27.9343
2157.4	27.934
2157.64	24.1988
2157.89	25.1362
2158.13	24.2059
2158.37	25.1441
2158.61	26.0795
2158.85	29.8178
2159.09	26.0774
2159.33	27.0093
2159.57	24.2021
2159.81	27.0008
2160.05	28.8632
2160.29	25.1201
2160.53	26.9808
2160.77	29.7749
2161.01	27.9021
2161.25	28.8318
2161.5	27.8967
2161.74	26.9607
2161.98	27.8907
2162.22	29.7551
2162.46	26.023
2162.7	28.8215
2162.94	30.6864
2163.18	25.0864
2163.42	29.7462
2163.66	28.81
2163.9	24.1441
2164.14	24.1411
2164.38	26.9347
2164.62	26.9285
2164.86	24.1256
2165.11	23.1896
2165.35	26.917
2165.59	27.8512
2165.83	27.8512
2166.07	25.0556
2166.31	26.9193
2166.55	29.711
2166.79	26.9124
2167.03	27.8396
2167.27	29.6963
2167.51	25.9667
2167.75	26.8913
2167.99	25.9522
2168.23	25.0089
2168.47	27.7869
2168.71	26.8525
2168.95	24.9922
2169.19	27.7824
2169.43	24.9962
2169.67	28.7211
2169.91	26.8682
2170.15	25.0158
2170.39	25.0251
2170.63	25.9616
2170.87	33.4139
2171.11	28.755
2171.35	26.8869
2171.59	25.9531
2171.83	25.9423
2172.07	22.204
2172.31	29.6321
2172.56	24.9791
2172.79	27.7621
2173.04	26.8288
2173.28	29.615
2173.51	28.6851
2173.76	27.7552
2174	24.0403
2174.24	29.6186
2174.48	25.9036
2174.72	24.975
2174.96	24.0455
2175.2	24.9744
2175.44	24.9735
2175.68	26.8302
2175.92	26.8281
2176.16	27.756
2176.4	29.6126
2176.64	26.8224
2176.88	24.9599
2177.12	26.8158
2177.36	24.9576
2177.6	27.7447
2177.84	29.6028
2178.08	27.7439
2178.32	27.7446
2178.55	27.7416
2178.8	31.4483
2179.03	25.8709
2179.28	31.4404
2179.52	24.9421
2179.75	28.6561
2180	27.7275
2180.23	28.6556
2180.47	29.5835
2180.71	26.7968
2180.95	29.58
2181.19	28.6494
2181.43	27.7199
2181.67	26.7895
2181.91	25.8578
2182.15	26.7825
2182.39	27.7087
2182.63	26.7769
2182.87	26.7739
2183.11	23.9879
2183.35	29.5481
2183.59	24.9044
2183.83	30.4592
2184.07	25.818
2184.31	25.8136
2184.55	28.5892
2184.79	24.8813
2185.03	28.5881
2185.27	27.6639
2185.51	26.7389
2185.75	24.8869
2185.99	29.5243
2186.23	28.6018
2186.47	30.4612
2186.7	24.9016
2186.95	29.5469
2187.18	24.9155
2187.42	28.6356
2187.66	25.8579
2187.9	27.7206
2188.14	24.0066
2188.38	27.7185
2188.62	23.9992
2188.86	25.8509
2189.1	27.7013
2189.34	25.8384
2189.58	28.614
2189.82	25.8221
2190.06	28.596
2190.3	24.8838
2190.54	24.8824
2190.78	25.8096
2191.01	23.9573
2191.25	25.8133
2191.49	27.6673
2191.73	27.6685
2191.97	26.7432
2192.21	27.6727
2192.45	24.8923
2192.69	25.8216
2192.93	29.5341
2193.17	28.6109
2193.41	23.9757
2193.65	29.5481
2193.89	26.7694
2194.13	28.638
2194.36	27.7223
2194.6	25.872
2194.84	28.6653
2195.08	25.8745
2195.32	24.9415
2195.56	24.9387
2195.8	24.0051
2196.04	26.7869
2196.28	24.9213
2196.52	26.7693
2196.76	29.545
2197	25.8255
2197.23	25.8202
2197.47	32.309
2197.71	29.5214
2197.95	30.4487
2198.19	25.8115
2198.43	27.6693
2198.67	24.8919
2198.91	30.4666
2199.15	30.4754
2199.38	25.8419
2199.62	24.9201
2199.86	25.8573
2200.1	24.0063
2200.34	32.3883
2200.58	27.7524
2200.82	29.6271
2201.06	27.776
2201.3	28.7156
2201.54	24.0626
2201.77	24.9839
2202.01	27.7499
2202.25	26.7622
2202.49	23.9418
2202.73	27.6681
2202.97	27.7158
2203.21	28.6674
2203.45	23.0791
2203.68	25.8633
2203.92	26.8161
2204.16	31.5702
2204.4	25.9362
2204.64	26.8663
2204.88	28.7356
2205.12	25.9199
2205.36	28.6898
2205.59	25.8757
2205.83	29.5803
2206.07	29.5755
2206.31	24.9272
2206.55	22.1427
2206.79	26.7931
2207.03	29.5717
2207.26	23.995
2207.5	26.7878
2207.74	26.7925
2207.98	25.8675
2208.22	27.7336
2208.46	26.8086
2208.7	30.537
2208.93	26.8183
2209.17	25.8907
2209.41	28.6868
2209.65	27.757
2209.89	25.8942
2210.13	24.9618
2210.36	28.6878
2210.6	25.8968
2210.84	24.9686
2211.08	25.904
2211.32	27.7717
2211.56	28.7077
2211.8	24.9834
2212.03	25.9209
2212.27	26.8588
2212.51	25.9298
2212.75	24.9986
2212.99	25.9293
2213.23	27.7918
2213.46	24.991
2213.7	28.7166
2213.94	27.7789
2214.18	27.7802
2214.42	28.7179
2214.66	26.8636
2214.89	24.0737
2215.13	24.076
2215.37	25.0113
2215.61	27.8134
2215.85	25.9471
2216.08	25.9475
2216.32	25.0136
2216.56	31.5486
2216.8	24.0783
2217.04	24.0769
2217.28	24.0757
2217.51	25.9424
2217.75	25.9431
2217.99	26.8777
2218.23	25.9437
2218.47	25.0094
2218.7	28.745
2218.94	24.0786
2219.18	29.6852
2219.42	25.0197
2219.66	27.8269
2219.9	27.8297
2220.13	22.2258
2220.37	25.0316
2220.61	24.0961
2220.85	29.7021
2221.09	26.8972
2221.32	21.2875
2221.56	24.0848
2221.8	25.946
2222.04	25.94
2222.27	27.802
2222.51	24.9977
2222.75	22.1963
2222.99	23.1311
2223.23	26.8689
2223.46	25.9387
2223.7	27.8108
2223.94	21.2776
2224.18	26.8905
2224.42	24.0942
2224.65	25.9709
2224.89	26.9124
2225.13	22.2404
2225.37	22.2449
2225.6	25.058
2225.84	25.0649
2226.08	26.0066
2226.32	25.0752
2226.56	24.1434
2226.79	24.1469
2227.03	21.34
2227.27	24.1561
2227.51	23.2221
2227.74	25.1
2227.98	27.9148
2228.22	24.1628
2228.46	25.0983
2228.69	25.0962
2228.93	24.1566
2229.17	24.1551
2229.41	22.2785
2229.64	25.0906
2229.88	26.9698
2230.12	23.225
2230.36	28.8592
2230.6	26.0492
2230.83	26.9924
2231.07	25.1202
2231.31	23.2475
2231.55	23.2526
2231.78	23.258
2232.02	26.0808
2232.26	23.2666
2232.5	27.9705
2232.73	26.0955
2232.97	26.1
2233.21	25.1642
2233.45	24.2278
2233.68	27.0545
2233.92	26.1183
2234.16	26.1218
2234.39	28.007
2234.63	27.064
2234.87	24.238
2235.11	26.1169
2235.34	22.3484
2235.58	22.3402
2235.82	27.9762
2236.06	21.394
2236.29	25.1562
2236.53	25.1573
2236.77	25.1585
2237	23.2781
2237.24	22.3384
2237.48	20.4617
2237.72	24.23
2237.95	23.2975
2238.19	28.0161
2238.43	22.3734
2238.67	27.0916
2238.9	21.4421
2239.14	25.2204
2239.38	22.3992
2239.61	25.2307
2239.85	25.2283
2240.09	27.1111
2240.33	22.3883
2240.56	25.2109
2240.8	26.1503
2241.04	25.2181
2241.27	25.2274
2241.51	27.1158
2241.75	26.1737
2241.99	26.1755
2242.22	25.2332
2242.46	26.179
2242.7	26.1816
2242.93	24.2965
2243.17	27.1289
2243.41	24.2955
2243.64	25.2359
2243.88	28.0632
2244.12	22.3985
2244.36	27.116
2244.59	23.3417
2244.83	23.345
2245.07	25.2399
2245.3	26.1945
2245.54	27.1487
2245.78	23.3743
2246.01	24.3239
2246.25	27.1654
2246.49	28.1164
2246.72	24.3373
2246.96	17.7174
2247.2	25.2891
2247.43	27.1852
2247.67	27.1878
2247.91	26.2423
2248.14	22.4559
2248.38	24.3472
2248.62	27.1846
2248.85	24.3437
2249.09	25.2883
2249.33	28.1253
2249.56	25.2853
2249.8	23.3967
2250.04	28.1317
2250.27	27.1847
2250.51	28.1274
2250.75	28.1217
2250.98	25.2777
2251.22	22.4341
2251.46	21.4841
2251.69	28.099
2251.93	26.2064
2252.17	23.3707
2252.4	27.1553
2252.64	21.4849
2252.88	25.2726
2253.11	25.2804
2253.35	23.4003
2253.59	28.1446
2253.82	24.3631
2254.06	24.3686
2254.3	28.1641
2254.53	26.2733
2254.77	22.484
2255.01	22.4841
2255.24	30.0665
2255.48	24.3788
2255.72	26.275
2255.95	28.1721
2256.19	27.2248
2256.42	25.3324
2256.66	27.2341
2256.9	23.4435
2257.13	23.447
2257.37	23.4507
2257.61	29.1499
2257.84	24.4071
2258.08	25.359
2258.32	25.3602
2258.55	22.5121
2258.79	21.5636
2259.02	29.1639
2259.26	24.418
2259.5	25.3716
2259.73	24.4236
2259.97	25.3756
2260.2	25.3783
2260.44	25.3807
2260.68	29.1855
2260.91	24.4344
2261.15	28.2414
2261.39	22.5431
2261.62	23.499
2261.86	21.5969
2262.1	23.501
2262.33	27.3091
2262.57	27.3112
2262.8	29.2185
2263.04	26.3683
2263.28	24.4694
2263.51	25.4282
2263.75	27.3414
2263.98	25.4444
2264.22	23.5471
2264.46	19.7401
2264.69	25.4722
2264.93	25.4794
2265.16	25.4853
2265.4	23.5803
2265.64	26.4498
2265.87	25.4952
2266.11	19.7644
2266.34	27.4042
2266.58	25.4879
2266.81	23.5721
2267.05	26.4296
2267.29	21.6519
2267.52	23.5564
2267.76	26.4147
2267.99	25.4564
2268.23	23.5431
2268.47	23.5388
2268.7	22.5836
2268.94	22.5841
2269.17	26.4016
2269.41	21.6376
2269.65	24.5055
2269.88	28.3299
2270.12	27.3834
2270.35	23.5725
2270.59	20.7136
2270.82	25.4951
2271.06	25.4981
2271.3	25.5034
2271.53	23.5955
2271.77	27.4231
2272	24.5577
2272.24	22.6491
2272.47	25.5211
2272.71	23.608
2272.95	26.479
2273.18	24.5667
2273.42	23.611
2273.65	26.4827
2273.89	29.3548
2274.12	25.5281
2274.36	28.4004
2274.6	24.573
2274.83	23.6168
2275.07	27.4469
2275.3	24.5766
2275.54	25.5351
2275.77	25.5365
2276.01	24.578
2276.24	24.5814
2276.48	23.6292
2276.72	23.6349
2276.95	22.6815
2277.18	24.6028
2277.42	22.6907
2277.66	23.6569
2277.89	24.625
2278.13	25.5942
2278.36	22.7243
2278.6	23.6878
2278.83	25.6102
2279.07	22.7289
2279.3	25.6091
2279.54	27.5279
2279.78	24.642
2280.01	20.7916
2280.24	20.7852
2280.48	22.6978
2280.72	22.6922
2280.95	20.7698
2281.19	23.6427
2281.42	24.5987
2281.66	25.5538
2281.89	22.6758
2282.13	26.5122
2282.36	23.638
2282.6	26.5175
2282.83	24.6046
2283.07	24.6101
2283.3	23.6561
2283.54	24.6223
2283.77	21.7515
2284.01	27.5247
2284.24	26.5752
2284.48	27.5489
2284.71	22.7476
2284.95	26.5973
2285.19	27.5653
2285.42	22.7599
2285.65	26.6108
2285.89	27.5738
2286.12	25.6432
2286.36	22.7477
2286.59	27.5558
2286.83	23.71
2287.06	24.6757
2287.3	24.687
2287.54	23.7336
2287.77	22.7738
2288	25.6656
2288.24	27.5992
2288.47	25.6703
2288.71	21.8132
2288.94	23.7358
2289.18	27.583
2289.41	23.7237
2289.65	24.6768
2289.88	22.7442
2290.12	24.6575
2290.35	26.5766
2290.59	29.4577
2290.82	24.6508
2291.06	25.6125
2291.29	26.5775
2291.53	24.6607
2291.76	21.7824
2292	24.6741
2292.23	21.7906
2292.47	22.7568
2292.7	24.6867
2292.94	26.6186
2293.17	27.5876
2293.41	24.7017
2293.64	21.8141
2293.88	25.6714
2294.11	23.745
2294.34	26.6343
2294.58	27.5945
2294.81	22.7723
2295.05	25.6578
2295.28	19.8745
2295.52	23.7239
2295.75	25.6461
2295.99	26.6051
2296.22	28.5271
2296.46	23.7076
2296.69	26.5839
2296.93	23.696
2297.16	23.6977
2297.39	21.7762
2297.63	21.78
2297.86	24.6728
2298.1	23.7165
2298.33	26.6144
2298.57	25.6564
2298.8	23.7325
2299.04	28.5564
2299.27	26.6353
2299.51	23.7477
2299.74	23.7517
2299.97	22.7891
2300.21	24.7178
2300.44	21.8237
2300.68	26.646
2300.91	28.5784
2301.15	25.6883
2301.38	22.7962
2301.61	28.5896
2301.85	28.5913
2302.08	23.7653
2302.32	26.66
2302.55	25.6922
2302.79	21.8297
2303.02	26.6557
2303.25	27.6199
2303.49	23.7578
2303.72	24.7222
2303.96	21.8271
2304.19	22.7942
2304.43	24.7286
2304.66	25.6978
2304.89	27.6317
2305.13	24.7381
2305.36	22.8106
2305.6	24.7451
2305.83	27.6446
2306.07	24.7479
2306.3	24.7508
2306.53	23.7871
2306.77	25.721
2307	27.6544
2307.24	25.7206
2307.47	28.6191
2307.7	22.8175
2307.94	21.848
2308.17	23.7786
2308.41	24.7423
2308.64	23.7738
2308.87	20.8751
2309.11	24.7405
2309.34	26.6766
2309.58	22.8149
2309.81	25.7206
2310.04	21.8603
2310.28	26.7011
2310.51	25.7361
2310.75	22.8343
2310.98	20.8986
2311.21	24.7652
2311.45	22.825
2311.68	27.6442
2311.92	27.626
2312.15	28.5815
2312.38	22.7821
2312.62	25.674
2312.85	25.6691
2313.08	23.7357
2313.32	24.6999
2313.55	24.7026
2313.79	24.7098
2314.02	20.8565
2314.25	24.7263
2314.49	24.7333
2314.72	26.6738
2314.95	21.8489
2315.19	24.7579
2315.42	26.6968
2315.66	26.6894
2315.89	25.7155
2316.12	21.8429
2316.36	26.6693
2316.59	25.6883
2316.82	26.6464
2317.06	24.7112
2317.29	24.7103
2317.52	22.7801
2317.76	25.6782
2317.99	21.8209
2318.23	26.6552
2318.46	26.6459
2318.69	25.6755
2318.93	26.6373
2319.16	25.6674
2319.39	28.5584
2319.63	25.6586
2319.86	30.4804
2320.09	29.513
2320.33	29.5128
2320.56	30.4784
2320.79	25.6531
2321.03	29.5155
2321.26	26.6241
2321.5	28.559
2321.73	27.5986
2321.96	31.4675
2322.2	26.6459
2322.43	29.5531
2322.66	25.6941
2322.9	30.5301
2323.13	27.6283
2323.36	28.5961
2323.6	24.7307
2323.83	34.4007
2324.06	33.4359
2324.3	35.3707
2324.53	31.5011
2324.76	40.2016
2325	38.2581
2325.23	39.2123
2325.46	44.0282
2325.7	42.0859
2325.93	46.9055
2326.16	48.8269
2326.4	59.4343
2326.63	66.1766
2326.86	75.8103
2327.09	97.0155
2327.33	130.749
2327.56	186.643
2327.79	215.538
2328.03	264.661
2328.26	252.102
2328.49	220.308
2328.73	165.37
2328.96	116.216
2329.19	96.9182
2329.43	73.7748
2329.66	57.3794
2329.89	55.4474
2330.13	51.5922
2330.36	52.5621
2330.59	40.9998
2330.82	35.2174
2331.06	37.1399
2331.29	33.2862
2331.52	28.4729
2331.76	30.4033
2331.99	23.6643
2332.22	23.6698
2332.46	27.5164
2332.69	28.4737
2332.92	22.691
2333.16	24.6133
2333.39	25.5725
2333.62	27.4943
2333.85	25.5658
2334.09	23.6381
2334.32	29.4085
2334.55	25.5545
2334.79	24.5855
2335.02	27.4668
2335.25	23.6169
2335.48	27.4624
2335.72	25.5373
2335.95	31.3079
2336.18	26.5012
2336.41	27.4617
2336.65	27.4584
2336.88	24.5717
2337.11	25.5318
2337.34	24.569
2337.58	24.5674
2337.81	24.5661
2338.04	26.4863
2338.28	21.6778
2338.51	22.6377
2338.74	23.5974
2338.97	21.6741
2339.21	25.5193
2339.44	24.5584
2339.67	19.7519
2339.91	26.4793
2340.14	22.6323
2340.37	28.3952
2340.6	24.5467
2340.84	27.4241
2341.07	26.4572
2341.3	24.529
2341.53	20.6812
2341.77	23.5515
2342	24.5036
2342.23	22.5806
2342.46	26.4121
2342.7	24.4902
2342.93	27.3631
2343.16	22.5681
2343.39	26.4017
2343.63	24.4844
2343.86	24.4829
2344.09	27.3572
2344.32	25.4402
2344.56	23.5243
2344.79	24.4835
2345.02	23.5238
2345.25	26.3977
2345.49	23.5191
2345.72	26.3899
2345.95	26.3827
2346.18	22.5458
2346.41	24.4567
2346.65	22.5392
2346.88	25.4104
2347.11	23.4937
2347.34	24.4488
2347.58	21.5743
2347.81	27.3178
2348.04	23.4885
2348.27	24.4471
2348.5	28.2802
2348.74	21.5783
2348.97	25.4086
2349.2	22.5331
2349.43	26.3588
2349.67	23.4761
2349.9	24.4222
2350.13	25.3657
2350.36	27.2613
2350.59	26.286
2350.83	25.2977
2351.06	24.2918
2351.29	23.3771
2351.52	25.3703
2351.75	27.3113
2351.99	23.4329
2352.22	23.4062
2352.45	23.408
2352.68	26.2744
2352.91	26.2579
2353.15	28.1397
2353.38	27.1669
2353.61	22.4101
2353.84	27.1709
2354.07	23.3555
2354.31	22.4031
2354.54	23.3543
2354.77	25.2651
2355	27.1767
2355.23	22.4111
2355.47	28.1263
2355.7	24.3125
2355.93	25.2625
2356.16	23.3541
2356.39	23.3496
2356.63	27.1501
2356.86	21.427
2357.09	24.2723
2357.32	20.4626
2357.55	27.1151
2357.79	26.1595
2358.02	25.2047
2358.25	27.1018
2358.48	25.1978
2358.71	25.1954
2358.94	24.2395
2359.18	26.1367
2359.41	27.0845
2359.64	23.283
2359.87	22.33
2360.1	27.0739
2360.33	25.1688
2360.57	25.1626
2360.8	24.2074
2361.03	25.1502
2361.26	23.2468
2361.49	22.2924
2361.72	23.2346
2361.96	24.1762
2362.19	24.1695
2362.42	26.0569
2362.65	25.1026
2362.88	26.0434
2363.11	24.1443
2363.34	24.1396
2363.58	22.2428
2363.81	27.9173
2364.04	24.1292
2364.27	24.126
2364.5	24.1222
2364.73	23.1724
2364.97	22.2229
