#Acq. time (s)=	30
#Accumulations=	2
#Range (cm-¹)=	1200...2365
#Windows=	3
#Auto scanning=	Off
#Autofocus=	Off
#Macrospot=	Off
#AutoExposure=	Off
#Spike filter=	Multiple accum.
#Delay time (s)=	2
#Binning=	1
#Readout mode=	Signal
#DeNoise=	Off
#ICS correction=	On
#Dark correction=	Off
#Inst. Process=	Off
#Detector Gain=	Best Dynamic
#Detector ADC=	50 kHz HS
#Detector temperature (°C)=	-60.09
#Instrument=	LabRAM HR Evol
#Detector=	SIN-EM FIVIS
#Objective=	x100_VIS_LWD
#Grating=	1800 (450-850nm)
#ND Filter=	100%
#Laser=	532nm_Edge
#Hole=	49.98
#Temperature=	0
#Range=	Visible
#StageXY=	75x50mm Scan+
#StageZ=	Z motor
#X (µm)=	0
#Y (µm)=	0
#Z (µm)=	37.7
#Full time(mm:ss)=	3:18
#Project=	21_11_22
#Sample=	BU19w
#Site=	
#Title=	BU19w-D-FFore2-FI11-V_1800 (450-850nm)_532nm_Edge_100%_x100_VIS_LWD_H50um_30sX2
#Remark=	
#Date=	22.11.2021 14:18
#Acquired=	22.11.2021 14:18:37
1202.84	29.525
1203.12	27.3642
1203.4	23.0606
1203.67	28.41
1203.95	26.2532
1204.23	25.1712
1204.51	25.164
1204.78	27.299
1205.06	25.153
1205.34	27.2884
1205.62	24.0705
1205.9	24.0635
1206.17	25.1264
1206.45	28.33
1206.73	26.1901
1207.01	27.2568
1207.29	27.2515
1207.56	29.3776
1207.84	24.0254
1208.12	26.1524
1208.39	24.008
1208.67	24.0003
1208.95	26.1239
1209.23	28.2457
1209.51	27.1714
1209.78	28.2289
1210.06	30.3505
1210.34	22.8891
1210.62	25.0154
1210.89	22.8808
1211.17	20.7516
1211.45	26.0754
1211.72	27.1402
1212	27.1399
1212.28	26.074
1212.56	26.0725
1212.84	27.1352
1213.11	26.0641
1213.39	23.9272
1213.67	24.98
1213.94	27.0954
1214.22	28.1493
1214.5	29.2035
1214.78	23.8843
1215.05	24.9402
1215.33	23.8728
1215.61	27.0512
1215.89	28.1086
1216.16	28.1065
1216.44	25.9816
1216.72	28.1003
1216.99	28.0944
1217.27	28.0929
1217.55	28.0931
1217.83	28.0912
1218.1	27.0282
1218.38	29.1435
1218.66	28.0783
1218.93	22.7711
1219.21	27
1219.49	26.9876
1219.77	29.0908
1220.04	28.0184
1220.32	28.0056
1220.6	29.05
1220.88	27.9833
1221.15	25.8603
1221.43	27.9652
1221.71	26.9039
1221.98	27.9551
1222.26	26.8981
1222.54	26.9003
1222.81	26.9034
1223.09	32.1861
1223.37	29.0173
1223.64	29.0149
1223.92	31.121
1224.2	31.1152
1224.48	33.2105
1224.75	31.0724
1225.03	28.9449
1225.31	33.1388
1225.58	31.0053
1225.86	29.9295
1226.14	27.8225
1226.41	31.0404
1226.69	30.054
1226.97	30.0363
1227.24	32.1144
1227.52	33.1534
1227.8	29.9964
1228.07	27.8778
1228.35	34.1248
1228.63	35.1779
1228.9	33.0756
1229.18	32.0239
1229.46	34.1207
1229.73	33.069
1230.01	32.0166
1230.29	36.2148
1230.56	34.1123
1230.84	29.9117
1231.12	34.1165
1231.39	30.9673
1231.67	35.1747
1231.95	28.8747
1232.22	33.0811
1232.5	30.9813
1232.78	30.985
1233.05	37.2961
1233.33	34.1416
1233.61	33.086
1233.88	29.9272
1234.16	32.0229
1234.43	30.9613
1234.71	33.0504
1234.99	34.0882
1235.26	33.0262
1235.54	30.9157
1235.82	33.0037
1236.09	30.9004
1236.37	30.8958
1236.65	31.9404
1236.92	31.9379
1237.2	31.9365
1237.47	31.9359
1237.75	31.9364
1238.03	29.8412
1238.3	28.7939
1238.58	29.8401
1238.85	31.9304
1239.13	29.8302
1239.41	28.7819
1239.68	28.7837
1239.96	30.8829
1240.24	29.8392
1240.51	25.6459
1240.79	30.8867
1241.06	27.7435
1241.34	25.6467
1241.62	31.9344
1241.89	30.8831
1242.17	29.8288
1242.45	28.7731
1242.72	30.8582
1243	28.7532
1243.27	27.7012
1243.55	26.6521
1243.83	28.7449
1244.1	25.6043
1244.38	26.6487
1244.65	28.7406
1244.93	31.8774
1245.2	26.6358
1245.48	28.7209
1245.76	29.7648
1246.03	25.5823
1246.31	28.7219
1246.59	31.8582
1246.86	27.6729
1247.14	31.8564
1247.41	27.6678
1247.69	30.7967
1247.96	29.7441
1248.24	28.693
1248.51	29.7324
1248.79	25.5485
1249.07	27.6324
1249.34	29.7155
1249.62	29.7097
1249.89	29.7033
1250.17	24.4791
1250.45	28.6502
1250.72	30.7366
1251	26.5661
1251.27	29.7022
1251.55	30.7524
1251.82	29.7111
1252.1	29.7112
1252.38	26.5802
1252.65	29.713
1252.93	28.6671
1253.2	24.4908
1253.48	32.847
1253.75	26.5847
1254.03	28.6752
1254.3	31.8074
1254.58	29.7137
1254.86	29.7107
1255.13	29.7082
1255.41	29.7055
1255.68	28.6585
1255.96	30.7382
1256.23	27.6054
1256.51	29.6963
1256.78	28.6543
1257.06	29.7136
1257.33	37.0145
1257.61	34.9183
1257.88	33.8613
1258.16	33.8524
1258.44	34.8895
1258.71	32.8037
1258.99	28.6553
1259.26	33.9166
1259.54	32.9072
1259.81	30.7609
1260.09	33.854
1260.36	33.8281
1260.64	33.8621
1260.91	38.066
1261.19	38.0986
1261.46	38.1279
1261.74	40.1926
1262.01	31.8194
1262.29	40.1798
1262.56	44.3582
1262.84	43.3037
1263.11	52.7064
1263.39	54.7993
1263.66	49.5807
1263.94	57.9514
1264.21	45.4185
1264.49	43.3388
1264.76	41.2589
1265.04	38.1327
1265.31	39.1955
1265.59	33.9746
1265.86	36.0762
1266.14	35.0343
1266.41	30.8475
1266.69	33.9898
1266.96	31.8872
1267.24	35.0193
1267.51	31.87
1267.79	33.9557
1268.06	31.8561
1268.34	30.8068
1268.61	31.8492
1268.89	38.1286
1269.16	34.9967
1269.44	33.9593
1269.71	35.0188
1269.99	29.7905
1270.26	38.1809
1270.54	33.9983
1270.81	29.8133
1271.09	35.0645
1271.36	37.1682
1271.64	34.0235
1271.91	32.9733
1272.18	37.1686
1272.46	36.1229
1272.74	35.0792
1273.01	39.2825
1273.28	34.0434
1273.56	37.1991
1273.83	33.0059
1274.11	31.9603
1274.38	35.1188
1274.66	34.0765
1274.93	34.0845
1275.21	34.0911
1275.48	37.251
1275.76	39.365
1276.03	35.164
1276.3	34.1184
1276.58	32.0126
1276.85	37.2694
1277.13	34.1091
1277.4	34.107
1277.68	34.1095
1277.95	37.2673
1278.23	34.1196
1278.5	39.393
1278.77	39.3993
1279.05	41.5028
1279.32	39.4006
1279.6	45.7233
1279.87	47.8221
1280.15	46.7499
1280.42	50.9113
1280.69	59.2949
1280.97	58.2459
1281.24	68.7637
1281.52	80.517
1281.79	93.1755
1282.07	122.687
1282.34	161.598
1282.61	187.856
1282.89	259.444
1283.16	358.493
1283.44	408.006
1283.71	423.709
1283.99	393.171
1284.26	283.657
1284.53	188.877
1284.81	122.536
1285.08	93.0543
1285.36	68.8483
1285.63	58.3262
1285.9	53.0672
1286.18	44.6539
1286.45	41.5033
1286.73	42.5636
1287	40.4658
1287.28	40.4731
1287.55	35.2068
1287.82	38.3625
1288.1	34.1469
1288.37	35.1993
1288.64	36.252
1288.92	35.1974
1289.19	34.1438
1289.47	36.2523
1289.74	29.9316
1290.01	30.9818
1290.29	28.8763
1290.56	35.2051
1290.84	35.2197
1291.11	34.1799
1291.38	28.9131
1291.66	32.0761
1291.93	32.0744
1292.21	33.1328
1292.48	28.9258
1292.75	26.8299
1293.03	33.1862
1293.3	28.9745
1293.57	27.9211
1293.85	26.8647
1294.12	27.9191
1294.4	28.9708
1294.67	33.191
1294.94	34.2397
1295.22	25.7823
1295.49	35.2885
1295.76	30.0068
1296.04	31.0576
1296.31	28.9415
1296.58	32.1035
1296.86	31.0467
1297.13	29.9956
1297.4	27.8872
1297.68	31.0556
1297.95	29.9984
1298.22	29.997
1298.5	27.8863
1298.77	28.9464
1299.04	27.8946
1299.32	27.8971
1299.59	31.0668
1299.87	30.0101
1300.14	30.0081
1300.41	28.9486
1300.69	28.9434
1300.96	29.9976
1301.23	28.9419
1301.51	27.8859
1301.78	25.7736
1302.05	31.0497
1302.33	33.1555
1302.6	24.7046
1302.87	28.9196
1303.15	24.6926
1303.42	26.7967
1303.69	25.7392
1303.97	26.7931
1304.24	24.686
1304.51	28.9056
1304.79	28.9051
1305.06	28.9043
1305.33	24.687
1305.6	27.8492
1305.88	25.7406
1306.15	22.5797
1306.42	25.7479
1306.7	28.9172
1306.97	29.9755
1307.24	22.5874
1307.52	28.9171
1307.79	23.6405
1308.06	26.8072
1308.34	27.8638
1308.61	24.6986
1308.88	32.0886
1309.15	27.8712
1309.43	27.8753
1309.7	27.8772
1309.97	27.8766
1310.25	29.9832
1310.52	24.7031
1310.79	24.7009
1311.06	26.8098
1311.34	24.6983
1311.61	26.8105
1311.88	29.9799
1312.16	25.7602
1312.43	26.819
1312.7	28.9344
1312.98	25.7694
1313.25	27.881
1313.52	26.8229
1313.79	27.8776
1314.07	27.8766
1314.34	29.9884
1314.61	27.8796
1314.89	28.9386
1315.16	25.7712
1315.43	24.7156
1315.7	26.829
1315.98	29.9983
1316.25	23.6587
1316.52	27.8832
1316.79	23.6564
1317.07	27.8833
1317.34	24.7143
1317.61	29.995
1317.88	28.9345
1318.16	26.816
1318.43	23.641
1318.7	27.8548
1318.97	28.905
1319.25	25.7314
1319.52	26.7825
1319.79	24.6692
1320.06	27.8292
1320.34	26.7682
1320.61	28.88
1320.88	27.8267
1321.16	22.5549
1321.43	29.9348
1321.7	25.7175
1321.97	26.7704
1322.25	25.7184
1322.52	30.9836
1322.79	26.7544
1323.06	25.6865
1323.33	26.7191
1323.61	24.6063
1323.88	26.7072
1324.15	24.6097
1324.42	28.839
1324.7	28.849
1324.97	27.805
1325.24	26.7613
1325.51	28.8809
1325.79	24.6704
1326.06	22.5637
1326.33	29.9441
1326.6	23.6173
1326.87	31.0013
1327.15	27.8339
1327.42	25.7206
1327.69	25.7158
1327.96	24.6553
1328.23	24.6478
1328.51	23.5847
1328.78	26.7336
1329.05	25.671
1329.32	26.7162
1329.6	24.6034
1329.87	26.6986
1330.14	26.6889
1330.41	27.7311
1330.68	25.6206
1330.96	24.5624
1331.23	23.505
1331.5	24.5486
1331.77	25.5921
1332.04	25.5863
1332.32	27.6798
1332.59	27.6743
1332.86	24.5224
1333.13	28.7131
1333.4	27.6599
1333.67	23.462
1333.95	28.7007
1334.22	25.553
1334.49	26.5987
1334.76	26.5957
1335.03	21.3504
1335.3	27.6302
1335.58	27.6259
1335.85	26.5739
1336.12	26.5705
1336.39	24.4751
1336.66	23.4285
1336.94	26.5712
1337.21	26.5716
1337.48	25.525
1337.75	26.573
1338.02	22.3833
1338.29	26.571
1338.57	21.3332
1338.84	24.4718
1339.11	27.6084
1339.38	24.4624
1339.65	26.5486
1339.93	23.403
1340.2	26.537
1340.47	26.5347
1340.74	26.5334
1341.01	25.4871
1341.28	28.6248
1341.55	23.3954
1341.82	26.5306
1342.1	26.5262
1342.37	27.5655
1342.64	24.4216
1342.91	30.6838
1343.18	25.4512
1343.45	24.3948
1343.73	27.5169
1344	26.4652
1344.27	25.4138
1344.54	29.5771
1344.81	25.4012
1345.08	24.3552
1345.35	23.3105
1345.63	22.2663
1345.9	25.3889
1346.17	25.384
1346.44	28.5037
1346.71	30.5811
1346.98	26.4103
1347.25	28.4875
1347.52	27.4412
1347.8	26.3938
1348.07	26.3869
1348.34	24.3017
1348.61	25.3353
1348.88	24.2928
1349.15	29.4911
1349.42	27.414
1349.69	23.2588
1349.96	29.5087
1350.24	28.4713
1350.51	29.5354
1350.78	28.5247
1351.05	25.3753
1351.32	26.3763
1351.59	24.268
1351.86	24.2704
1352.13	28.4298
1352.41	23.2261
1352.68	23.2202
1352.95	24.2658
1353.22	29.4647
1353.49	25.3023
1353.76	25.2995
1354.03	26.3357
1354.3	29.4485
1354.57	29.4445
1354.84	28.4015
1355.11	29.4344
1355.39	32.5425
1355.66	28.3859
1355.93	28.3801
1356.2	27.3369
1356.47	26.2955
1356.74	28.3659
1357.01	30.4324
1357.28	26.2772
1357.55	30.4143
1357.82	24.1922
1358.09	26.2616
1358.36	28.3324
1358.63	29.3671
1358.9	25.2222
1359.18	29.3617
1359.45	27.2871
1359.72	27.2842
1359.99	31.4243
1360.26	27.284
1360.53	30.395
1360.8	27.2917
1361.07	26.2588
1361.34	29.3665
1361.61	29.3643
1361.88	31.4325
1362.15	30.3913
1362.42	30.3844
1362.69	33.4822
1362.97	30.3698
1363.24	29.3282
1363.51	31.3898
1363.78	30.3466
1364.05	29.3023
1364.32	32.3975
1364.59	34.4609
1364.86	33.4307
1365.13	31.3662
1365.4	31.3678
1365.67	34.4709
1365.94	29.3035
1366.21	31.3735
1366.48	35.5115
1366.75	30.3382
1367.02	30.3344
1367.29	26.1961
1367.56	32.3899
1367.83	30.3184
1368.1	33.4121
1368.37	33.4028
1368.64	40.6188
1368.91	42.6669
1369.18	51.9355
1369.45	37.4787
1369.72	31.282
1369.99	28.1836
1370.26	33.3331
1370.54	28.1757
1370.81	29.203
1371.08	34.3522
1371.34	34.3495
1371.62	33.3168
1371.89	36.4045
1372.16	35.3696
1372.43	35.3703
1372.7	33.3142
1372.97	34.3434
1373.24	36.4063
1373.51	37.4271
1373.78	37.4179
1374.05	36.3763
1374.32	35.3302
1374.59	36.363
1374.86	43.577
1375.13	37.4152
1375.4	40.5237
1375.67	42.6091
1375.94	33.3376
1376.21	39.5225
1376.48	38.4862
1376.75	42.6036
1377.02	43.6256
1377.29	40.5184
1377.56	48.7182
1377.83	48.6959
1378.09	49.7023
1378.36	46.6268
1378.64	48.6722
1378.91	46.594
1379.18	53.7617
1379.44	47.5772
1379.71	56.7989
1379.98	53.6977
1380.25	47.5276
1380.52	59.8194
1380.79	60.8343
1381.06	58.7737
1381.33	52.624
1381.6	60.8303
1381.87	52.637
1382.14	61.882
1382.41	66.0118
1382.68	60.8966
1382.95	63.9911
1383.22	63.9985
1383.49	70.1744
1383.76	66.0727
1384.03	74.2897
1384.3	79.3754
1384.57	78.1966
1384.84	85.2208
1385.11	94.3517
1385.38	114.916
1385.65	157.111
1385.92	194.238
1386.19	289.865
1386.45	433.623
1386.72	660.642
1386.99	920.18
1387.26	902.06
1387.53	619.646
1387.8	364.355
1388.07	202.248
1388.34	130.487
1388.61	98.7089
1388.88	77.1711
1389.15	64.8592
1389.42	59.7239
1389.69	63.8091
1389.96	57.6575
1390.23	48.4379
1390.49	45.3622
1390.76	45.3578
1391.03	44.3305
1391.3	44.3272
1391.57	41.2545
1391.84	37.1598
1392.11	37.1629
1392.38	38.1925
1392.65	39.2207
1392.92	36.1517
1393.19	37.1742
1393.46	31.0298
1393.73	38.19
1393.99	33.0684
1394.26	35.1085
1394.53	37.1475
1394.8	35.0979
1395.07	36.1199
1395.34	35.099
1395.61	33.0568
1395.88	28.9669
1396.15	29.9914
1396.42	33.0658
1396.68	33.0695
1396.95	27.9549
1397.22	31.0252
1397.49	34.0999
1397.76	31.0363
1398.03	33.0883
1398.3	36.1593
1398.57	28.9941
1398.84	37.1871
1399.11	31.0517
1399.38	29.0186
1399.64	31.0873
1399.91	33.1536
1400.18	27.0057
1400.45	35.223
1400.72	29.0639
1400.99	35.2172
1401.26	32.1192
1401.53	32.1231
1401.79	28.0167
1402.06	33.1424
1402.33	32.1108
1402.6	26.9773
1402.87	31.0735
1403.14	30.0431
1403.41	29.0147
1403.68	30.0368
1403.94	31.063
1404.21	29.0149
1404.48	31.0676
1404.75	35.1701
1405.02	34.1468
1405.29	34.1486
1405.56	37.2266
1405.82	35.1782
1406.09	36.2069
1406.36	35.1841
1406.63	37.2383
1406.9	41.3435
1407.17	43.3959
1407.44	49.5414
1407.7	50.5534
1407.97	60.7879
1408.24	67.9471
1408.51	67.9353
1408.78	64.8525
1409.05	58.7024
1409.31	54.6118
1409.58	43.3528
1409.85	43.3772
1410.12	31.1093
1410.39	36.2688
1410.66	34.1911
1410.92	29.0147
1411.19	36.198
1411.46	32.1172
1411.73	34.1876
1412	30.0783
1412.27	30.0794
1412.53	25.9727
1412.8	30.08
1413.07	27.0019
1413.34	29.0581
1413.61	23.9258
1413.88	28.0366
1414.14	23.9308
1414.41	28.043
1414.68	25.991
1414.95	29.0751
1415.22	27.0204
1415.48	27.0213
1415.75	25.995
1416.02	21.8843
1416.29	27.0234
1416.56	24.9653
1416.82	23.9332
1417.09	23.9282
1417.36	29.0589
1417.63	25.9723
1417.9	24.9399
1418.17	26.988
1418.43	20.827
1418.7	33.1448
1418.97	23.9127
1419.24	31.1103
1419.5	25.9833
1419.77	25.9969
1420.04	23.9605
1420.31	25.0123
1420.58	25.9923
1420.84	27.9743
1421.11	25.9356
1421.38	27.9598
1421.65	25.9068
1421.92	24.8919
1422.18	29.0069
1422.45	26.9654
1422.72	27.9826
1422.99	24.9165
1423.26	25.9403
1423.52	24.9103
1423.79	25.9291
1424.06	25.9219
1424.33	23.8645
1424.59	30.0017
1424.86	22.8224
1425.13	26.9142
1425.4	25.8883
1425.66	25.8884
1425.93	24.8658
1426.2	25.8917
1426.47	26.9187
1426.73	25.8984
1427	26.9283
1427.27	30.0097
1427.54	23.866
1427.81	28.9995
1428.07	24.9087
1428.34	25.9438
1428.61	24.922
1428.88	25.9487
1429.14	27.9966
1429.41	23.886
1429.68	27.9853
1429.94	21.824
1430.21	25.9163
1430.48	26.93
1430.75	21.7975
1431.02	24.8639
1431.28	25.885
1431.55	25.8956
1431.82	22.8281
1432.08	24.8783
1432.35	24.8784
1432.62	25.9025
1432.89	19.7532
1433.15	24.8749
1433.42	23.8485
1433.69	23.8462
1433.96	22.8194
1434.22	24.8658
1434.49	23.8406
1434.76	24.8622
1435.02	22.8124
1435.29	27.9341
1435.56	20.7679
1435.83	26.9163
1436.09	22.8193
1436.36	19.7468
1436.63	25.8977
1436.89	21.8036
1437.16	26.9356
1437.43	27.9645
1437.7	25.9154
1437.96	28.9921
1438.23	22.8405
1438.5	23.8643
1438.77	24.8856
1439.03	24.8831
1439.3	27.964
1439.57	19.7612
1439.83	25.919
1440.1	25.916
1440.37	24.886
1440.63	21.8066
1440.9	22.8293
1441.17	24.8784
1441.43	22.8291
1441.7	21.8101
1441.97	26.9436
1442.24	23.8748
1442.5	24.8986
1442.77	24.8961
1443.03	18.7391
1443.3	24.8916
1443.57	20.787
1443.84	21.8108
1444.1	24.8855
1444.37	25.9083
1444.64	26.9302
1444.9	21.8013
1445.17	24.8762
1445.44	18.7282
1445.7	23.8605
1445.97	22.8362
1446.24	16.6819
1446.5	22.8339
1446.77	21.8054
1447.04	22.827
1447.3	21.7978
1447.57	27.9461
1447.84	24.8688
1448.1	23.8418
1448.37	22.8148
1448.64	24.8618
1448.9	25.8838
1449.17	23.8326
1449.44	22.8068
1449.7	24.856
1449.97	21.7832
1450.24	25.8843
1450.5	24.862
1450.77	26.9119
1451.04	22.8108
1451.3	23.834
1451.57	21.7844
1451.83	22.809
1452.1	19.7342
1452.37	20.7573
1452.63	22.8066
1452.9	19.736
1453.17	23.8376
1453.43	23.8375
1453.7	20.7609
1453.97	22.8066
1454.23	21.7781
1454.5	24.8497
1454.77	21.7747
1455.03	24.8466
1455.3	24.8466
1455.56	21.7738
1455.83	24.8483
1456.1	23.8248
1456.36	22.8009
1456.63	24.8505
1456.9	26.8986
1457.16	23.8232
1457.43	22.7969
1457.69	20.7462
1457.96	23.8166
1458.23	22.7892
1458.49	22.786
1458.76	23.8065
1459.02	22.7786
1459.29	23.7978
1459.56	24.8162
1459.82	20.7183
1460.09	19.6904
1460.36	18.6629
1460.62	21.7259
1460.89	21.7245
1461.15	22.7533
1461.42	22.7639
1461.69	21.7484
1461.95	21.7581
1462.22	23.7921
1462.48	24.768
1462.75	22.7056
1463.02	21.6813
1463.28	23.7298
1463.55	22.7074
1463.81	20.6567
1464.08	22.6932
1464.35	21.6753
1464.61	21.6737
1464.88	22.6921
1465.14	19.6306
1465.41	23.7103
1465.67	25.7497
1465.94	23.7081
1466.21	21.6658
1466.47	22.6828
1466.74	24.7175
1467	22.6728
1467.27	20.6298
1467.54	24.7028
1467.8	20.6241
1468.07	24.6976
1468.33	20.6195
1468.6	24.6892
1468.86	23.6671
1469.13	21.6286
1469.39	22.6458
1469.66	21.6267
1469.93	23.6623
1470.19	21.6241
1470.46	19.5848
1470.72	20.5995
1470.99	20.5967
1471.25	24.6656
1471.52	22.6299
1471.79	22.6316
1472.05	16.5261
1472.32	19.5797
1472.58	26.7035
1472.85	21.6124
1473.11	21.6093
1473.38	25.6768
1473.64	17.5352
1473.91	24.653
1474.17	19.5633
1474.44	17.5273
1474.71	20.5773
1474.97	20.5766
1475.24	23.6246
1475.5	23.6199
1475.77	20.5666
1476.03	22.5961
1476.3	21.5758
1476.56	21.5716
1476.83	20.5509
1477.09	24.6086
1477.36	19.5237
1477.62	23.5774
1477.89	21.543
1478.15	19.5114
1478.42	21.5369
1478.68	19.5092
1478.95	25.6003
1479.22	22.56
1479.48	21.5494
1479.75	22.5678
1480.01	21.5525
1480.28	19.524
1480.54	21.556
1480.81	18.5096
1481.07	24.6014
1481.34	23.5766
1481.6	19.5056
1481.87	22.5252
1482.13	23.5062
1482.4	22.4829
1482.66	19.4308
1482.93	18.4631
1483.19	20.4953
1483.46	22.532
1483.72	17.4428
1483.99	23.531
1484.25	23.535
1484.52	23.5278
1484.78	23.522
1485.05	23.5185
1485.31	22.5019
1485.58	25.5338
1485.84	19.4546
1486.11	20.4626
1486.37	24.5074
1486.64	23.4933
1486.9	21.468
1487.17	26.526
1487.43	21.4672
1487.7	19.4414
1487.96	19.4372
1488.22	20.4442
1488.49	24.4862
1488.75	20.4408
1489.02	23.4734
1489.28	24.4854
1489.55	23.4733
1489.81	20.4389
1490.08	20.438
1490.34	20.4378
1490.61	24.4795
1490.87	22.4566
1491.14	23.4675
1491.4	20.436
1491.67	16.3937
1491.93	20.4367
1492.19	17.4009
1492.46	23.4588
1492.72	24.4601
1492.99	21.4231
1493.25	24.448
1493.52	22.4252
1493.78	20.4034
1494.05	21.4095
1494.31	22.4183
1494.58	20.3994
1494.84	22.4164
1495.1	21.4064
1495.37	15.3511
1495.63	23.425
1495.9	22.4163
1496.16	24.4356
1496.43	20.3995
1496.69	20.401
1496.96	21.4122
1497.22	17.3744
1497.48	21.4124
1497.75	21.4114
1498.01	21.4105
1498.28	21.4082
1498.54	21.4036
1498.81	21.402
1499.07	21.4011
1499.34	23.4182
1499.6	19.3799
1499.86	21.3932
1500.13	22.3971
1500.39	21.3859
1500.66	18.3567
1500.92	24.406
1501.18	22.3914
1501.45	18.3584
1501.71	22.3922
1501.98	22.391
1502.24	22.3885
1502.5	23.393
1502.77	23.3864
1503.03	24.385
1503.3	20.3532
1503.56	22.3672
1503.83	20.3528
1504.09	17.3328
1504.35	19.3485
1504.62	23.38
1504.88	22.3719
1505.15	18.3397
1505.41	17.3308
1505.67	22.3688
1505.94	19.3465
1506.2	21.3619
1506.47	21.3614
1506.73	18.3381
1506.99	24.3862
1507.26	23.3801
1507.52	20.3525
1507.78	21.3558
1508.05	22.3578
1508.31	21.3444
1508.58	20.3292
1508.84	22.3303
1509.1	18.2963
1509.37	23.312
1509.63	20.288
1509.9	20.2824
1510.16	20.2774
1510.42	21.2772
1510.69	20.2712
1510.95	20.2753
1511.21	19.2787
1511.48	24.3034
1511.74	20.2827
1512.01	21.2821
1512.27	24.288
1512.53	25.2853
1512.8	17.2502
1513.06	24.2665
1513.32	21.2522
1513.59	24.2583
1513.85	25.2588
1514.11	21.2462
1514.38	23.2506
1514.64	20.2429
1514.9	23.2522
1515.17	25.2619
1515.43	19.2455
1515.7	20.2496
1515.96	22.2567
1516.22	21.2553
1516.49	22.26
1516.75	21.2576
1517.01	21.2569
1517.28	25.2676
1517.54	22.2562
1517.8	21.2539
1518.07	22.259
1518.33	22.2609
1518.59	23.2649
1518.86	22.2604
1519.12	22.2582
1519.38	25.265
1519.65	21.2495
1519.91	20.2441
1520.17	21.2433
1520.44	24.2443
1520.7	21.2282
1520.96	24.2277
1521.23	23.2206
1521.49	22.2148
1521.75	22.211
1522.02	22.2131
1522.28	23.2155
1522.54	22.2146
1522.81	21.2159
1523.07	21.2196
1523.33	22.2271
1523.59	21.2292
1523.86	21.2308
1524.12	21.2302
1524.38	21.2269
1524.65	21.2253
1524.91	23.2274
1525.17	22.2233
1525.44	21.2185
1525.7	19.2123
1525.96	20.212
1526.23	22.214
1526.49	23.2151
1526.75	21.2102
1527.02	22.2079
1527.28	22.2066
1527.54	25.2127
1527.8	25.2176
1528.07	20.2132
1528.33	24.2243
1528.59	22.2206
1528.86	22.2188
1529.12	25.2254
1529.38	22.2159
1529.64	23.2202
1529.91	21.2216
1530.17	23.2343
1530.43	24.2444
1530.69	22.2415
1530.96	21.24
1531.22	21.2396
1531.48	23.2444
1531.75	21.2363
1532.01	20.2308
1532.27	22.2345
1532.53	20.225
1532.8	22.2188
1533.06	22.2117
1533.32	21.2049
1533.59	21.1973
1533.85	22.1901
1534.11	21.1817
1534.37	23.1796
1534.64	19.1727
1534.9	22.1736
1535.16	22.1689
1535.42	22.1615
1535.69	18.1605
1535.95	20.1573
1536.21	21.1622
1536.48	23.1748
1536.74	23.1917
1537	21.2001
1537.26	21.2088
1537.53	22.2205
1537.79	20.221
1538.05	23.232
1538.31	19.212
1538.58	22.2182
1538.84	23.214
1539.1	21.2042
1539.36	22.2002
1539.62	22.1944
1539.89	24.1913
1540.15	23.1847
1540.41	22.178
1540.67	24.1714
1540.94	22.1625
1541.2	19.163
1541.46	21.1641
1541.72	19.1676
1541.98	21.1745
1542.25	22.1797
1542.51	22.1884
1542.77	25.1976
1543.03	28.2054
1543.3	20.1947
1543.56	27.2049
1543.82	24.2007
1544.08	20.196
1544.35	25.2079
1544.61	22.2044
1544.87	26.207
1545.13	26.1926
1545.39	22.1871
1545.66	23.1889
1545.92	23.1965
1546.18	23.175
1546.44	23.1502
1546.71	25.1432
1546.97	24.1568
1547.23	22.1792
1547.49	24.2183
1547.75	25.2481
1548.02	21.2555
1548.28	21.2402
1548.54	23.2504
1548.8	21.2379
1549.06	22.234
1549.33	23.2477
1549.59	22.253
1549.85	25.2628
1550.11	23.2478
1550.37	24.2333
1550.64	24.2291
1550.9	23.2238
1551.16	19.2074
1551.42	23.212
1551.68	25.2086
1551.94	23.1953
1552.21	26.1974
1552.47	27.1971
1552.73	26.195
1552.99	24.1928
1553.25	22.1894
1553.52	23.1873
1553.78	23.1873
1554.04	22.1868
1554.3	23.1897
1554.56	22.1881
1554.82	24.1902
1555.09	26.1887
1555.35	22.1751
1555.61	19.1663
1555.87	28.1656
1556.13	26.1558
1556.39	27.1487
1556.65	22.143
1556.92	26.1377
1557.18	25.1341
1557.44	22.1328
1557.7	22.1307
1557.96	23.1284
1558.22	26.1259
1558.49	27.1268
1558.75	23.1332
1559.01	24.1391
1559.27	22.146
1559.53	22.146
1559.79	22.1447
1560.05	24.1426
1560.32	27.1438
1560.58	25.1409
1560.84	23.1391
1561.1	23.147
1561.36	21.1546
1561.62	23.1587
1561.88	24.1577
1562.15	25.1449
1562.41	23.1035
1562.67	23.0466
1562.93	22.0193
1563.19	18.1165
1563.45	21.1393
1563.71	23.1274
1563.98	23.1109
1564.24	21.1301
1564.5	28.1533
1564.76	22.1449
1565.02	24.1278
1565.28	21.1312
1565.54	27.1333
1565.8	26.1351
1566.07	25.1326
1566.33	26.1225
1566.59	23.1186
1566.85	21.1199
1567.11	23.1201
1567.37	23.1204
1567.63	22.1211
1567.89	24.1192
1568.15	22.1191
1568.42	23.1162
1568.68	24.1114
1568.94	23.1078
1569.2	26.1035
1569.46	21.1061
1569.72	24.0974
1569.98	23.0952
1570.24	22.0933
1570.5	28.0782
1570.77	22.0859
1571.03	24.0821
1571.29	21.0916
1571.55	23.093
1571.81	28.0917
1572.07	21.1062
1572.33	22.1102
1572.59	25.112
1572.85	21.1155
1573.11	24.1116
1573.37	25.1102
1573.64	22.1096
1573.9	24.1001
1574.16	22.0936
1574.42	24.0816
1574.68	24.0729
1574.94	29.0522
1575.2	22.063
1575.46	25.0495
1575.72	24.0508
1575.98	24.0503
1576.24	24.0498
1576.5	26.0436
1576.76	25.0478
1577.03	24.0541
1577.29	23.0584
1577.55	22.0614
1577.81	21.063
1578.07	24.0515
1578.33	23.0505
1578.59	24.044
1578.85	25.0354
1579.11	23.037
1579.37	23.035
1579.63	23.0331
1579.89	24.0271
1580.15	25.0215
1580.41	24.0244
1580.67	25.0196
1580.93	27.0086
1581.19	28.0042
1581.46	20.0382
1581.72	23.0276
1581.98	27.0128
1582.24	22.0317
1582.5	25.0183
1582.76	21.0333
1583.02	23.0229
1583.28	25.0086
1583.54	24.0067
1583.8	25.9926
1584.06	23.9985
1584.32	23.0006
1584.58	25.9832
1584.84	22.002
1585.1	22.0018
1585.36	23.9934
1585.62	24.9909
1585.88	23.9991
1586.14	23.0064
1586.4	23.0091
1586.66	27.989
1586.92	27.9897
1587.18	25.9981
1587.44	25.0042
1587.7	25.0068
1587.96	24.013
1588.22	23.0162
1588.48	22.0199
1588.74	23.0139
1589	26.9941
1589.26	24.9968
1589.52	24.9886
1589.78	24.9823
1590.04	22.9887
1590.3	23.9744
1590.56	20.9824
1590.82	22.9606
1591.08	25.9344
1591.34	24.9373
1591.6	20.964
1591.86	28.9131
1592.12	21.9638
1592.38	23.9539
1592.64	25.9412
1592.9	25.9289
1593.16	23.9416
1593.42	23.9413
1593.68	24.9344
1593.94	31.8879
1594.2	21.9565
1594.46	26.9253
1594.72	26.9274
1594.98	27.9199
1595.24	23.9434
1595.5	21.9524
1595.76	23.932
1596.02	26.9039
1596.28	29.8761
1596.54	26.8937
1596.8	28.8732
1597.06	25.8919
1597.32	27.8711
1597.58	24.8904
1597.84	25.8754
1598.1	23.8848
1598.36	21.895
1598.62	27.8303
1598.88	27.8225
1599.14	26.8263
1599.4	25.831
1599.66	31.7626
1599.92	27.7972
1600.18	21.8559
1600.44	28.7742
1600.7	30.7479
1600.96	21.8463
1601.22	24.8116
1601.48	27.778
1601.73	27.7785
1601.99	27.7785
1602.25	25.8012
1602.51	28.7684
1602.77	23.8259
1603.03	26.7955
1603.29	23.8313
1603.55	24.8234
1603.81	20.8682
1604.07	27.796
1604.33	25.8175
1604.59	28.7853
1604.85	23.8368
1605.11	27.7939
1605.37	29.772
1605.63	26.803
1605.89	28.7792
1606.14	29.7606
1606.4	22.8298
1606.66	29.7434
1606.92	29.7345
1607.18	24.801
1607.44	30.6874
1607.7	27.7138
1607.96	27.7279
1608.22	25.8889
1608.48	29.321
1608.74	28.6014
1609	26.6741
1609.26	28.4429
1609.51	26.0086
1609.77	27.7433
1610.03	24.9253
1610.29	27.3563
1610.55	26.7989
1610.81	26.5253
1611.07	28.0541
1611.33	27.3299
1611.59	29.3731
1611.85	24.5968
1612.11	27.7173
1612.36	26.4831
1612.62	26.759
1612.88	25.7376
1613.14	29.2074
1613.4	29.2567
1613.66	25.1947
1613.92	28.6209
1614.18	29.6697
1614.44	28.7367
1614.7	25.4959
1614.95	23.3952
1615.21	28.8888
1615.47	26.0265
1615.73	28.0414
1615.99	29.7776
1616.25	28.2929
1616.51	26.7819
1616.77	29.4814
1617.03	26.1696
1617.28	29.5678
1617.54	26.276
1617.8	27.2236
1618.06	27.3511
1618.32	29.0028
1618.58	26.8554
1618.84	27.0606
1619.1	26.9211
1619.35	27.5908
1619.61	29.3577
1619.87	30.4957
1620.13	25.881
1620.39	25.235
1620.65	27.151
1620.91	28.391
1621.17	28.7448
1621.42	28.5747
1621.68	31.0636
1621.94	28.1312
1622.2	28.4586
1622.46	28.8331
1622.72	24.8472
1622.98	26.6591
1623.23	28.0612
1623.49	26.9129
1623.75	27.4479
1624.01	28.2201
1624.27	28.8588
1624.53	28.3901
1624.79	30.3306
1625.04	27.8315
1625.3	29.9073
1625.56	28.0027
1625.82	29.0027
1626.08	27.1162
1626.34	23.899
1626.59	28.5559
1626.85	25.5954
1627.11	27.3366
1627.37	27.4848
1627.63	25.8613
1627.89	30.7427
1628.14	31.9105
1628.4	28.5412
1628.66	22.8355
1628.92	26.7571
1629.18	28.4535
1629.44	29.509
1629.69	28.0014
1629.95	25.4043
1630.21	27.2767
1630.47	26.0387
1630.73	28.1768
1630.99	29.4773
1631.24	32.0736
1631.29	32.6232
1631.55	25.7247
1631.81	29.6678
1632.07	32.6241
1632.33	26.7086
1632.59	32.6202
1632.86	25.7188
1633.12	24.7305
1633.38	28.6683
1633.64	29.6497
1633.9	25.7053
1634.16	25.7009
1634.42	30.62
1634.68	28.6484
1634.95	25.6931
1635.21	31.5974
1635.47	30.6097
1635.73	27.655
1635.99	28.6394
1636.25	29.6236
1636.51	26.6701
1636.77	32.5758
1637.03	30.6063
1637.3	30.6051
1637.56	29.6232
1637.82	26.6746
1638.08	27.6622
1638.34	28.647
1638.6	26.6751
1638.86	28.6414
1639.12	26.6704
1639.39	28.6378
1639.65	24.6988
1639.91	27.6507
1640.17	25.6809
1640.43	28.6333
1640.69	28.6319
1640.95	26.6608
1641.21	24.6895
1641.47	28.6205
1641.73	27.6339
1641.99	31.568
1642.25	27.6364
1642.52	29.6069
1642.78	30.5935
1643.04	26.6561
1643.3	26.653
1643.56	30.5851
1643.82	27.6306
1644.08	27.629
1644.34	28.6088
1644.6	27.6226
1644.86	27.6197
1645.12	26.6365
1645.38	27.6208
1645.65	28.6101
1645.91	28.6156
1646.17	29.6178
1646.43	27.648
1646.69	28.6301
1646.95	27.6418
1647.21	27.643
1647.47	28.6381
1647.73	29.6276
1647.99	28.6485
1648.25	29.6388
1648.51	28.6565
1648.77	27.672
1649.03	26.6863
1649.29	29.6426
1649.55	27.673
1649.82	28.654
1650.08	26.6802
1650.34	28.6495
1650.6	27.6645
1650.86	28.6513
1651.12	27.6689
1651.38	30.6266
1651.64	29.6421
1651.9	31.6155
1652.16	31.6199
1652.42	29.6548
1652.68	29.6639
1652.94	28.6875
1653.2	29.6802
1653.46	27.7102
1653.72	31.6605
1653.98	25.7385
1654.24	25.7372
1654.5	28.6956
1654.76	26.7187
1655.02	26.7168
1655.28	26.7144
1655.54	25.7245
1655.81	28.6802
1656.07	32.6213
1656.33	25.7127
1656.58	31.6252
1656.84	27.6762
1657.11	27.6721
1657.37	27.6745
1657.63	25.706
1657.89	26.6962
1658.15	24.7281
1658.41	28.6789
1658.67	28.6836
1658.93	28.6869
1659.19	28.6784
1659.45	29.6619
1659.71	28.7241
1659.97	29.729
1660.23	27.7391
1660.49	29.7151
1660.75	29.6851
1661.01	27.6814
1661.27	27.7039
1661.53	28.6955
1661.79	26.7266
1662.05	25.7516
1662.31	26.7368
1662.57	27.6834
1662.83	27.6966
1663.09	28.7362
1663.35	28.7365
1663.61	24.7846
1663.87	24.7073
1664.13	24.697
1664.39	26.715
1664.65	27.6959
1664.91	25.7187
1665.17	25.7149
1665.43	27.6842
1665.69	26.7004
1665.95	24.7416
1666.21	25.7389
1666.47	26.7283
1666.72	28.7043
1666.99	26.7297
1667.25	26.7245
1667.51	26.7289
1667.76	27.7329
1668.02	23.7824
1668.28	27.7334
1668.54	25.7548
1668.8	27.7301
1669.06	22.7903
1669.32	27.734
1669.58	26.7461
1669.84	25.7569
1670.1	30.6995
1670.36	28.7232
1670.62	25.7586
1670.88	26.7491
1671.14	21.8079
1671.4	25.7666
1671.66	24.7803
1671.92	24.7835
1672.18	26.7673
1672.44	28.7496
1672.7	26.7724
1672.96	24.7927
1673.22	26.7714
1673.48	27.7623
1673.74	27.7635
1674	25.7843
1674.25	25.7835
1674.51	22.8126
1674.77	25.7788
1675.03	27.7535
1675.29	24.78
1675.55	27.7414
1675.81	23.7812
1676.07	26.7441
1676.33	21.7978
1676.59	23.773
1676.85	26.7354
1677.11	23.7677
1677.37	28.7069
1677.63	23.763
1677.89	27.7126
1678.15	24.7463
1678.4	26.721
1678.66	27.7083
1678.92	24.7442
1679.18	22.7682
1679.44	25.732
1679.7	25.7321
1679.96	27.7066
1680.22	20.7906
1680.48	23.7538
1680.74	27.7048
1681	24.7401
1681.25	23.75
1681.51	27.6971
1681.77	22.7571
1682.03	22.7558
1682.29	21.7675
1682.55	22.7544
1682.81	22.7541
1683.07	22.7541
1683.33	24.7297
1683.59	26.7077
1683.84	24.7366
1684.1	25.7263
1684.36	25.726
1684.62	26.7113
1684.88	23.7449
1685.14	25.7174
1685.4	21.7647
1685.66	19.7872
1685.92	21.7581
1686.18	25.7017
1686.43	23.7234
1686.69	24.7057
1686.95	22.7274
1687.21	25.6811
1687.47	25.6827
1687.73	22.7277
1687.99	21.7435
1688.25	23.7184
1688.51	23.7192
1688.76	26.683
1689.02	24.7103
1689.28	23.7228
1689.54	23.721
1689.8	22.7299
1690.06	24.6984
1690.32	23.706
1690.58	23.6992
1690.84	23.6918
1691.09	24.6734
1691.35	24.6679
1691.61	19.7371
1691.87	18.7494
1692.13	21.7047
1692.39	22.6911
1692.64	23.6771
1692.9	23.6783
1693.16	24.6651
1693.42	24.6688
1693.68	19.7426
1693.94	21.7127
1694.2	20.7246
1694.46	22.6904
1694.71	22.6841
1694.97	20.7088
1695.23	22.6735
1695.49	23.6538
1695.75	22.6657
1696.01	23.6467
1696.26	26.597
1696.52	23.6447
1696.78	25.6138
1697.04	22.6617
1697.3	24.629
1697.56	22.6568
1697.81	23.6397
1698.07	22.6546
1698.33	18.7182
1698.59	21.6667
1698.85	17.7291
1699.11	22.6415
1699.37	21.6542
1699.62	19.6841
1699.88	18.6982
1700.14	22.6277
1700.4	23.6092
1700.66	24.5898
1700.91	22.6225
1701.17	24.5868
1701.43	21.6414
1701.69	22.6261
1701.95	20.6608
1702.21	19.6768
1702.46	21.6408
1702.72	19.6755
1702.98	22.622
1703.24	22.618
1703.5	24.5771
1703.75	26.5349
1704.01	21.6197
1704.27	20.633
1704.53	22.5905
1704.79	20.6221
1705.04	20.6154
1705.3	23.5497
1705.56	23.5417
1705.82	21.5738
1706.08	20.5879
1706.33	23.5209
1706.59	22.5387
1706.85	22.5372
1707.11	21.5579
1707.37	24.495
1707.62	20.5797
1707.88	23.5191
1708.14	22.5427
1708.4	22.5445
1708.66	19.6079
1708.91	20.5884
1709.17	21.5674
1709.43	21.5639
1709.69	21.5566
1709.95	19.5904
1710.2	22.5161
1710.46	23.4858
1710.72	22.4986
1710.98	22.4915
1711.23	20.5338
1711.49	20.5311
1711.75	21.506
1712.01	21.5046
1712.27	17.5976
1712.52	19.5558
1712.78	22.4894
1713.04	20.5343
1713.3	21.509
1713.55	20.5285
1713.81	21.5002
1714.07	17.5884
1714.33	21.4855
1714.58	19.5249
1714.84	22.4397
1715.1	19.507
1715.36	21.4475
1715.61	22.415
1715.87	20.4629
1716.13	23.3816
1716.39	20.4606
1716.64	20.4598
1716.9	20.4582
1717.16	20.4608
1717.42	18.5129
1717.68	20.4575
1717.93	20.4532
1718.19	21.4199
1718.45	20.4432
1718.71	20.4386
1718.96	18.4887
1719.22	21.4005
1719.48	16.535
1719.74	18.4741
1719.99	20.4126
1720.25	22.3507
1720.51	18.4625
1720.76	22.3446
1721.02	17.4894
1721.28	20.4
1721.54	19.428
1721.79	23.3067
1722.05	19.4181
1722.31	20.3799
1722.56	19.4031
1722.82	22.3037
1723.08	21.3299
1723.34	21.328
1723.59	17.4529
1723.85	20.3578
1724.11	22.2914
1724.37	22.284
1724.62	17.4423
1724.88	22.2894
1725.14	19.3807
1725.39	20.3447
1725.65	19.3644
1725.91	24.168
1726.17	20.2758
1726.42	20.2706
1726.68	18.3513
1726.94	19.3258
1727.19	18.3619
1727.45	19.3175
1727.71	15.4516
1727.96	19.3175
1728.22	20.2995
1728.48	17.401
1728.74	20.3003
1728.99	23.1987
1729.25	19.3313
1729.51	20.2955
1729.76	21.259
1730.02	18.3573
1730.28	22.2158
1730.53	18.3466
1730.79	21.2339
1731.05	22.1904
1731.3	19.2904
1731.56	20.2482
1731.82	21.2052
1732.08	22.1617
1732.33	20.2282
1732.59	20.2229
1732.85	16.3679
1733.1	19.2533
1733.36	20.2138
1733.62	18.2865
1733.87	18.2839
1734.13	19.2433
1734.39	18.2783
1734.64	19.2376
1734.9	19.2348
1735.16	19.2309
1735.41	19.2266
1735.67	17.3002
1735.93	17.2963
1736.18	22.0952
1736.44	17.2863
1736.7	22.0791
1736.95	19.1903
1737.21	19.1823
1737.47	19.1752
1737.72	20.1279
1737.98	22.0397
1738.24	20.1183
1738.49	20.1138
1738.75	21.0673
1739.01	22.0215
1739.26	19.147
1739.52	20.1033
1739.78	21.0583
1740.03	22.9705
1740.29	21.0548
1740.54	21.0541
1740.8	17.2229
1741.06	20.0893
1741.31	21.9996
1741.57	18.1698
1741.83	20.082
1742.08	22.9513
1742.34	20.082
1742.6	21.0381
1742.85	21.9929
1743.11	19.1205
1743.36	19.1161
1743.62	17.199
1743.88	19.1046
1744.13	21.0113
1744.39	17.1842
1744.65	17.1808
1744.9	20.0401
1745.16	20.0387
1745.42	19.0837
1745.67	20.0385
1745.93	20.9938
1746.18	21.9499
1746.44	20.9977
1746.7	17.1811
1746.95	20.0499
1747.21	18.1435
1747.46	17.1918
1747.72	21.0182
1747.98	20.0633
1748.23	18.1534
1748.49	21.9769
1748.74	17.1937
1749	18.1438
1749.26	18.1383
1749.51	18.1342
1749.77	19.085
1750.02	21.9444
1750.28	18.1217
1750.54	20.0268
1750.79	20.0232
1751.05	20.9735
1751.31	19.0611
1751.56	18.1035
1751.82	19.0541
1752.07	17.1448
1752.33	20.9552
1752.59	18.0931
1752.84	19.9953
1753.1	20.9433
1753.35	21.8902
1753.61	19.9797
1753.86	20.9248
1754.12	19.0152
1754.38	19.0104
1754.63	21.8613
1754.89	20.9085
1755.14	18.0573
1755.4	17.1099
1755.66	19.9655
1755.91	19.9657
1756.17	19.9657
1756.42	18.0628
1756.68	20.918
1756.93	20.9171
1757.19	19.0122
1757.44	19.0104
1757.7	19.0082
1757.96	21.8593
1758.21	19.9532
1758.47	18.9982
1758.72	18.995
1758.98	17.0915
1759.23	19.9416
1759.49	19.9421
1759.75	19.9449
1760	19.9464
1760.26	18.0444
1760.51	17.093
1760.77	19.9461
1761.02	18.0456
1761.28	18.0475
1761.53	19.0038
1761.79	19.9608
1762.05	16.1565
1762.3	19.0139
1762.56	19.0153
1762.81	19.9683
1763.07	18.0644
1763.32	17.1121
1763.58	19.0151
1763.83	19.9651
1764.09	19.9642
1764.34	18.0595
1764.6	18.0576
1764.85	21.861
1765.11	19.0036
1765.37	17.098
1765.62	15.1947
1765.88	18.9967
1766.13	17.0856
1766.39	18.9772
1766.64	16.1177
1766.9	18.0136
1767.15	16.1152
1767.41	15.1704
1767.66	19.9223
1767.92	19.9227
1768.17	20.8746
1768.43	18.9807
1768.68	18.0356
1768.94	19.9379
1769.19	17.0866
1769.45	19.9431
1769.7	19.9469
1769.96	17.095
1770.21	17.0967
1770.47	19.9536
1770.72	20.9073
1770.98	19.0051
1771.23	17.1023
1771.49	18.0551
1771.74	20.9123
1772	20.9152
1772.26	18.0596
1772.51	17.1111
1772.76	18.0718
1773.02	19.9816
1773.27	18.0768
1773.53	15.2168
1773.78	19.0286
1774.04	21.8851
1774.29	19.9754
1774.55	19.9729
1774.8	20.9217
1775.06	19.9653
1775.31	19.9614
1775.57	19.0054
1775.82	18.0489
1776.08	19.9473
1776.33	18.0392
1776.59	23.745
1776.84	19.9407
1777.1	18.0419
1777.35	18.9946
1777.61	18.9959
1777.86	18.0455
1778.12	18.9987
1778.37	19.951
1778.63	18.9999
1778.88	19.9538
1779.13	17.0995
1779.39	19.96
1779.65	20.9166
1779.9	18.0609
1780.15	15.2038
1780.41	19.9708
1780.66	18.0668
1780.92	18.069
1781.17	19.025
1781.43	15.2139
1781.68	19.9867
1781.94	19.0352
1782.19	19.0361
1782.45	17.1274
1782.7	16.1719
1782.95	19.0318
1783.21	17.1226
1783.46	16.1691
1783.72	21.8948
1783.97	19.9901
1784.23	18.0856
1784.48	17.136
1784.74	20.009
1784.99	19.0651
1785.24	18.1209
1785.5	15.2603
1785.75	21.9661
1786.01	17.1825
1786.26	21.9762
1786.52	16.2349
1786.77	20.0712
1787.03	15.2814
1787.28	18.1591
1787.54	18.1606
1787.79	18.1601
1788.04	17.2006
1788.3	17.1925
1788.55	16.2279
1788.81	21.9723
1789.06	19.0979
1789.31	17.1828
1789.57	21.0141
1789.82	20.0581
1790.08	18.1442
1790.33	21.0196
1790.59	16.2289
1790.84	19.1045
1791.09	20.064
1791.35	17.1902
1791.6	18.1464
1791.86	17.1862
1792.11	21.0299
1792.36	18.1666
1792.62	16.2547
1792.87	18.1777
1793.13	19.1406
1793.38	21.0645
1793.64	20.1078
1793.89	22.033
1794.14	16.2721
1794.4	21.08
1794.65	17.2383
1794.9	21.0855
1795.16	21.0876
1795.41	18.2046
1795.67	18.2053
1795.92	18.2049
1796.17	15.3189
1796.43	18.201
1796.68	13.3916
1796.94	20.1159
1797.19	18.1907
1797.44	20.1095
1797.7	20.1071
1797.95	14.3419
1798.21	18.1831
1798.46	21.0639
1798.71	17.2219
1798.97	20.1042
1799.22	16.263
1799.47	19.1467
1799.73	21.071
1799.98	19.1524
1800.24	20.1175
1800.49	13.3912
1800.74	16.2779
1801	16.2788
1801.25	20.1265
1801.5	22.0535
1801.76	18.2091
1802.01	19.1745
1802.27	19.1789
1802.52	18.2207
1802.77	17.2618
1803.03	17.2651
1803.28	18.2312
1803.53	12.4524
1803.79	21.127
1804.04	20.1645
1804.29	19.2009
1804.55	19.2008
1804.8	19.2007
1805.05	19.2008
1805.31	22.0925
1805.56	19.2013
1805.81	17.2739
1806.07	21.1302
1806.32	20.1668
1806.58	20.1673
1806.83	21.1321
1807.08	17.2763
1807.34	17.2766
1807.59	18.2405
1807.84	18.2392
1808.1	16.3101
1808.35	18.2379
1808.6	17.2732
1808.86	19.201
1809.11	16.309
1809.36	17.274
1809.62	14.383
1809.87	15.3495
1810.12	19.2103
1810.38	20.1768
1810.63	19.2135
1810.88	20.1814
1811.14	18.2558
1811.39	21.1566
1811.64	16.3344
1811.9	14.4065
1812.15	20.2064
1812.4	15.3769
1812.65	18.2772
1812.91	19.2443
1813.16	18.2786
1813.41	20.2123
1813.67	18.2809
1813.92	20.214
1814.17	20.2133
1814.43	20.2074
1814.68	20.1974
1814.93	20.1937
1815.19	21.1612
1815.44	20.1994
1815.69	19.2387
1815.95	19.239
1816.2	18.2724
1816.45	19.2403
1816.7	17.3094
1816.96	19.2443
1817.21	19.246
1817.46	17.3143
1817.72	20.2177
1817.97	20.2193
1818.22	18.2867
1818.47	18.2892
1818.73	18.2919
1818.98	20.2296
1819.23	18.2959
1819.49	21.2011
1819.74	20.2341
1819.99	18.299
1820.24	20.2358
1820.5	19.2664
1820.75	17.3286
1821	19.2623
1821.26	19.2626
1821.51	20.2321
1821.76	18.2975
1822.01	19.2671
1822.27	18.3006
1822.52	16.3656
1822.77	19.2716
1823.03	16.3661
1823.28	18.3027
1823.53	20.2401
1823.78	18.3033
1824.04	16.3665
1824.29	19.2735
1824.54	21.2126
1824.79	19.2772
1825.05	20.2476
1825.3	18.3089
1825.55	16.3703
1825.8	16.368
1826.06	14.4283
1826.31	19.2698
1826.56	20.2376
1826.81	21.2049
1827.07	20.235
1827.32	16.3588
1827.57	21.198
1827.82	15.3869
1828.08	19.2602
1828.33	18.2943
1828.58	18.2965
1828.83	20.2359
1829.09	20.2381
1829.34	19.2718
1829.59	17.3364
1829.84	16.3709
1830.1	16.3724
1830.35	22.1876
1830.6	22.1883
1830.85	16.374
1831.11	20.2519
1831.36	19.2835
1831.61	17.3375
1831.86	20.2333
1832.12	19.2556
1832.37	18.2793
1832.62	15.3722
1832.87	20.2042
1833.13	18.2703
1833.38	19.2401
1833.63	18.3577
1833.88	16.3866
1834.13	19.2759
1834.39	20.2384
1834.64	18.2858
1834.89	20.2092
1835.14	19.2217
1835.39	19.2132
1835.65	18.2514
1835.9	19.2521
1836.15	19.2602
1836.4	18.2971
1836.65	20.2368
1836.91	18.3016
1837.16	19.271
1837.41	18.2831
1837.66	18.2715
1837.92	18.261
1838.17	18.2521
1838.42	17.2773
1838.67	18.2354
1838.92	17.2629
1839.18	17.2566
1839.43	22.0739
1839.68	20.1404
1839.93	18.2137
1840.18	18.2124
1840.43	20.1431
1840.69	19.1779
1840.94	19.1771
1841.19	19.1754
1841.44	15.3176
1841.7	17.2481
1841.95	20.1412
1842.2	18.2097
1842.45	17.2456
1842.7	18.2123
1842.95	15.3244
1843.2	19.1927
1843.46	21.1339
1843.71	17.2747
1843.96	19.1912
1844.21	19.162
1844.46	19.1383
1844.72	17.2087
1844.97	18.1743
1845.22	20.1098
1845.47	20.1122
1845.72	19.1403
1845.97	19.137
1846.23	20.0987
1846.48	19.1315
1846.73	17.2011
1846.98	18.1577
1847.23	19.1131
1847.48	18.1451
1847.74	21.0229
1847.99	19.096
1848.24	18.1312
1848.49	17.1674
1848.74	18.1252
1848.99	18.1235
1849.25	21.0034
1849.5	21.0031
1849.75	15.2415
1850	16.2014
1850.25	18.1209
1850.5	15.239
1850.75	22.9168
1851.01	20.032
1851.26	18.1069
1851.51	20.9782
1851.76	20.0141
1852.01	20.0115
1852.26	19.0488
1852.51	18.0838
1852.76	18.0783
1853.02	19.9916
1853.27	17.1162
1853.52	19.031
1853.77	19.031
1854.02	19.0304
1854.27	19.9869
1854.52	19.0269
1854.78	18.0669
1855.03	19.9793
1855.28	19.9756
1855.53	18.0571
1855.78	18.0527
1856.03	19.005
1856.28	17.0873
1856.53	19.9511
1856.79	20.9044
1857.04	15.1685
1857.29	18.036
1857.54	20.9062
1857.79	19.9542
1858.04	17.0874
1858.29	18.0464
1858.54	17.093
1858.79	18.0519
1859.04	20.923
1859.3	17.0934
1859.55	17.0901
1859.8	22.8251
1860.05	19.9506
1860.3	18.0336
1860.55	18.9851
1860.8	17.0697
1861.05	19.9327
1861.3	18.0183
1861.56	20.8804
1861.81	18.0116
1862.06	15.1432
1862.31	17.0478
1862.56	17.9966
1862.81	19.8979
1863.06	19.8898
1863.31	17.9751
1863.56	20.8252
1863.81	18.9119
1864.06	17.0001
1864.32	22.702
1864.57	18.889
1864.82	19.8348
1865.07	18.8812
1865.32	18.8791
1865.57	21.7298
1865.82	15.0759
1866.07	19.8301
1866.32	17.9277
1866.57	16.0251
1866.82	19.8262
1867.07	16.9733
1867.32	20.7742
1867.57	18.8721
1867.83	17.9208
1868.08	16.9698
1868.33	15.0685
1868.58	18.868
1868.83	19.8156
1869.08	17.9118
1869.33	17.9099
1869.58	18.8575
1869.83	16.9542
1870.08	20.7484
1870.33	18.8473
1870.58	19.7958
1870.83	15.9968
1871.08	15.045
1871.33	15.0417
1871.58	16.9354
1871.84	17.8792
1872.08	18.8226
1872.33	17.8693
1872.59	20.7067
1872.84	18.8036
1873.09	18.7932
1873.34	18.787
1873.59	17.8353
1873.84	17.8313
1874.09	14.9903
1874.34	18.7623
1874.59	20.6375
1874.84	18.7339
1875.09	15.9291
1875.34	18.8167
1875.59	18.7828
1875.84	19.7257
1876.09	16.8893
1876.34	20.6935
1876.59	16.908
1876.84	15.0075
1877.09	22.5784
1877.34	15.9499
1877.59	18.7901
1877.84	17.8454
1878.09	15.0012
1878.34	19.732
1878.59	15.9381
1878.84	18.7671
1879.09	17.8122
1879.34	21.581
1879.59	20.6235
1879.84	17.7808
1880.1	15.8871
1880.34	17.7989
1880.59	20.7044
1880.84	17.7875
1881.1	18.6995
1881.34	18.7049
1881.59	15.8806
1881.84	19.6468
1882.1	17.7689
1882.34	19.6625
1882.59	17.7778
1882.85	18.7258
1883.1	18.7331
1883.34	15.9036
1883.59	18.7378
1883.85	20.6221
1884.09	15.8952
1884.34	18.7225
1884.59	20.6048
1884.84	18.713
1885.09	19.6509
1885.34	20.5871
1885.59	18.6945
1885.84	14.9199
1886.09	16.7983
1886.34	19.6181
1886.59	17.7331
1886.84	19.6145
1887.09	18.673
1887.34	17.734
1887.59	17.7382
1887.84	19.6246
1888.09	18.6832
1888.34	16.7979
1888.59	16.7968
1888.84	16.796
1889.09	17.7363
1889.34	17.7355
1889.59	17.7339
1889.84	16.7894
1890.09	17.7265
1890.34	16.7775
1890.59	20.5291
1890.84	17.7007
1891.09	17.7029
1891.34	16.7606
1891.59	16.7556
1891.84	20.5108
1892.09	13.9338
1892.34	18.6317
1892.59	19.5726
1892.83	15.8158
1893.08	20.5165
1893.33	16.7593
1893.58	21.4627
1893.83	21.4665
1894.08	14.8865
1894.33	20.5314
1894.58	18.6515
1894.83	18.6519
1895.08	17.7106
1895.33	17.709
1895.58	17.7063
1895.83	19.5833
1896.08	18.6382
1896.33	18.6335
1896.58	18.6306
1896.83	17.6888
1897.08	20.5043
1897.32	17.6842
1897.57	16.7444
1897.82	19.5634
1898.07	17.6864
1898.32	17.6897
1898.57	20.5126
1898.82	20.5166
1899.07	18.6397
1899.32	18.6446
1899.57	13.9435
1899.82	19.5866
1900.07	19.5848
1900.31	16.7608
1900.57	17.6991
1900.81	16.7573
1901.06	16.7561
1901.31	17.6954
1901.56	18.6349
1901.81	18.6339
1902.06	14.8722
1902.31	20.5121
1902.56	17.6913
1902.81	17.6896
1903.06	22.38
1903.31	18.6173
1903.55	14.8577
1903.8	17.6732
1904.05	18.6105
1904.3	19.5482
1904.55	15.7928
1904.8	16.7323
1905.05	19.5535
1905.3	14.8588
1905.55	17.6779
1905.79	13.9206
1906.04	16.7412
1906.29	18.6236
1906.54	21.4477
1906.79	18.6322
1907.04	18.6378
1907.29	18.6438
1907.54	15.8263
1907.79	19.5967
1908.04	18.6586
1908.28	16.7771
1908.53	17.7202
1908.78	16.7784
1909.03	19.6038
1909.28	18.6597
1909.53	18.6588
1909.78	16.7746
1910.03	18.6582
1910.27	20.5417
1910.52	17.7169
1910.77	16.7783
1911.02	20.5532
1911.27	17.731
1911.52	16.7913
1911.77	18.681
1912.02	18.6847
1912.26	20.575
1912.51	18.69
1912.76	19.6339
1913.01	18.6891
1913.26	16.8001
1913.51	19.6299
1913.76	18.6823
1914	16.7921
1914.25	18.6751
1914.5	18.6724
1914.75	15.8423
1915	19.6122
1915.25	17.7278
1915.49	17.7307
1915.74	18.6779
1915.99	15.8526
1916.24	15.8572
1916.49	22.4706
1916.74	16.8137
1916.99	19.6527
1917.23	18.7103
1917.48	16.8202
1917.73	20.5961
1917.98	16.8202
1918.23	19.6604
1918.48	16.8287
1918.72	19.6669
1918.97	15.8869
1919.22	18.7248
1919.47	19.6699
1919.72	16.8306
1919.97	19.664
1920.21	17.7706
1920.46	18.7142
1920.71	17.7673
1920.96	18.7105
1921.21	19.6523
1921.46	17.7588
1921.7	17.757
1921.95	18.7014
1922.2	22.4817
1922.45	19.6502
1922.7	20.5999
1922.94	16.8243
1923.19	16.8284
1923.44	20.6167
1923.69	18.7297
1923.94	19.6817
1924.19	20.6316
1924.43	16.8469
1924.68	19.69
1924.93	20.6393
1925.18	18.7469
1925.43	19.6959
1925.67	18.7498
1925.92	18.7523
1926.17	21.5976
1926.42	18.7577
1926.66	16.8659
1926.91	17.8193
1927.16	19.7209
1927.41	18.7777
1927.66	17.8327
1927.91	16.8871
1928.15	16.8875
1928.4	17.8368
1928.65	23.5309
1928.9	17.8321
1929.15	20.6769
1929.39	20.6738
1929.64	17.8241
1929.89	16.8729
1930.14	19.7179
1930.38	18.7671
1930.63	18.7696
1930.88	20.6743
1931.13	19.7359
1931.37	18.7995
1931.62	19.7673
1931.87	17.8792
1932.12	17.8914
1932.37	18.8545
1932.61	15.048
1932.86	16.9561
1933.11	20.7575
1933.36	16.9449
1933.61	18.8492
1933.85	13.1292
1934.1	19.7944
1934.35	15.9799
1934.6	18.8331
1934.84	22.6372
1935.09	16.9218
1935.34	18.8224
1935.59	19.776
1935.83	18.83
1936.08	16.9272
1936.33	19.7869
1936.58	23.5999
1936.82	17.8869
1937.07	15.9835
1937.32	16.9375
1937.57	21.7074
1937.81	20.7616
1938.06	18.8658
1938.31	19.8246
1938.56	17.9146
1938.8	20.773
1939.05	15.9955
1939.3	19.8033
1939.55	16.9537
1939.79	19.8316
1940.04	19.8337
1940.29	19.8315
1940.54	18.8682
1940.78	17.9062
1941.03	19.8131
1941.28	20.7786
1941.52	19.8275
1941.77	19.8316
1942.02	17.9259
1942.27	19.8407
1942.51	17.9343
1942.76	19.8498
1943.01	17.9418
1943.26	20.8132
1943.5	19.8595
1943.75	19.8612
1944	17.9488
1944.24	18.9042
1944.49	18.9022
1944.74	18.9005
1944.99	18.9
1945.23	18.8997
1945.48	18.8989
1945.73	16.9856
1945.97	17.9433
1946.22	17.9465
1946.47	19.8633
1946.71	21.7813
1946.96	18.9153
1947.21	18.921
1947.46	18.929
1947.7	17.0203
1947.95	17.9848
1948.2	19.9097
1948.44	17.0393
1948.69	18.9645
1948.94	20.8893
1949.19	15.1318
1949.43	16.0942
1949.68	18.0163
1949.93	18.9772
1950.17	14.1777
1950.42	18.0214
1950.67	21.8572
1950.91	18.9668
1951.16	17.9956
1951.41	16.0679
1951.65	19.8933
1951.9	17.9702
1952.15	19.8841
1952.39	13.1784
1952.64	17.9713
1952.89	21.8109
1953.14	19.9042
1953.38	17.9959
1953.63	18.0009
1953.88	18.0056
1954.12	19.9294
1954.37	18.9732
1954.62	17.0554
1954.86	18.9799
1955.11	20.9042
1955.36	21.867
1955.6	18.0235
1955.85	17.0622
1956.1	21.8652
1956.34	19.9397
1956.59	16.0947
1956.84	18.0147
1957.08	14.1693
1957.33	20.8902
1957.58	18.9661
1957.82	19.9227
1958.07	18.9589
1958.31	18.9555
1958.56	17.9931
1958.81	18.9517
1959.05	17.0329
1959.3	21.8323
1959.55	18.9536
1959.79	18.9542
1960.04	21.8344
1960.29	20.8752
1960.53	17.9958
1960.78	19.9164
1961.03	16.0774
1961.27	17.0393
1961.52	16.0798
1961.77	17.0392
1962.01	18.9587
1962.26	19.9187
1962.5	20.8783
1962.75	15.1177
1963	18.0007
1963.24	18.9647
1963.49	19.9296
1963.74	17.0503
1963.98	22.8195
1964.23	18.0147
1964.48	18.0142
1964.72	19.9373
1964.97	21.8612
1965.21	18.0162
1965.46	16.094
1965.71	18.977
1965.95	18.0133
1966.2	18.9705
1966.44	18.0044
1966.69	17.0378
1966.94	19.913
1967.18	12.2285
1967.43	18.9444
1967.68	17.9822
1967.92	17.0191
1968.17	17.976
1968.41	18.9332
1968.66	17.9721
1968.91	19.8893
1969.15	18.9322
1969.4	18.9335
1969.64	17.9746
1969.89	19.8924
1970.14	17.9714
1970.38	17.9678
1970.63	16.0459
1970.87	17.0018
1971.12	16.9997
1971.37	16.9983
1971.61	17.9562
1971.86	16.9978
1972.1	18.9156
1972.35	18.9173
1972.6	18.9198
1972.84	21.7993
1973.09	18.9246
1973.33	18.9261
1973.58	17.9676
1973.82	18.9271
1974.07	20.8453
1974.32	19.885
1974.56	20.8423
1974.81	17.0033
1975.05	21.7946
1975.3	22.7497
1975.55	17.9537
1975.79	16.0348
1976.04	18.9094
1976.28	18.9095
1976.53	18.9099
1976.77	19.8682
1977.02	18.9105
1977.26	19.8686
1977.51	19.8656
1977.76	18.9034
1978	17.9423
1978.25	19.8569
1978.49	16.9798
1978.74	20.8095
1978.98	19.8503
1979.23	19.8496
1979.48	17.9328
1979.72	17.9291
1979.97	18.8833
1980.21	20.7922
1980.46	18.8724
1980.7	19.8256
1980.95	17.9109
1981.19	19.8223
1981.44	21.7329
1981.69	19.8179
1981.93	17.9033
1982.18	18.8554
1982.42	21.7179
1982.67	19.8049
1982.91	16.938
1983.16	19.8069
1983.4	18.8538
1983.65	19.8127
1983.89	18.857
1984.14	20.7683
1984.38	24.5948
1984.63	20.7638
1984.88	18.8459
1985.12	18.8391
1985.37	18.8315
1985.61	19.7766
1985.86	17.8534
1986.1	20.7015
1986.35	16.879
1986.59	21.6309
1986.84	18.7692
1987.08	21.6211
1987.33	22.5729
1987.57	17.8167
1987.82	20.6819
1988.06	14.0184
1988.31	16.8805
1988.55	17.8392
1988.8	16.9104
1989.04	16.0153
1989.29	22.5132
1989.53	18.7557
1989.78	18.7855
1990.02	17.9626
1990.27	18.0083
1990.52	20.5513
1990.76	17.7965
1991.01	15.3017
1991.25	18.8341
1991.49	18.0404
1991.74	19.7844
1991.99	20.5837
1992.23	18.0505
1992.47	17.9851
1992.72	19.0034
1992.97	19.7558
1993.21	18.2705
1993.45	19.0039
1993.7	20.3557
1993.95	19.3488
1994.19	19.1241
1994.43	18.8428
1994.68	20.7097
1994.93	18.6849
1995.17	18.0282
1995.41	19.3039
1995.66	17.2489
1995.9	19.119
1996.15	18.5025
1996.39	19.7113
1996.64	20.422
1996.88	20.2762
1997.13	18.3219
1997.37	17.8794
1997.62	18.3242
1997.86	18.8767
1998.11	19.1347
1998.35	20.6527
1998.6	18.4344
1998.84	19.064
1999.09	17.4011
1999.33	17.8056
1999.57	18.7148
1999.82	18.8021
2000.06	20.1505
2000.31	19.6412
2000.55	18.6935
2000.8	19.1561
2001.04	21.5046
2001.29	19.5994
2001.53	20.5707
2001.78	18.3868
2002.02	17.3077
2002.27	20.8982
2002.51	19.0521
2002.75	18.0755
2003	19.7403
2003.24	17.3495
2003.49	19.9017
2003.73	19.4156
2003.98	18.3151
2004.22	18.6003
2004.47	18.7169
2004.71	18.7157
2004.95	17.4146
2005.2	18.3867
2005.44	21.2867
2005.69	18.9977
2005.93	18.7542
2006.18	19.9286
2006.42	18.5956
2006.66	18.2227
2006.91	18.2582
2007.15	18.1891
2007.4	20.0535
2007.64	19.5116
2007.89	19.968
2008.13	19.9186
2008.38	18.6728
2008.62	18.3025
2008.86	18.7882
2009.11	18.708
2009.35	18.1862
2009.6	17.1838
2009.84	19.3744
2010.08	18.6372
2010.33	17.9947
2010.57	18.7602
2010.82	19.0599
2011.06	20.0369
2011.3	19.2175
2011.55	19.4949
2011.79	20.1065
2012.04	19.9254
2012.18	20.5068
2012.43	22.3863
2012.68	17.6963
2012.93	18.6373
2013.17	20.514
2013.42	18.637
2013.67	15.8335
2013.91	19.5958
2014.16	17.715
2014.41	19.5918
2014.66	19.5872
2014.9	21.4597
2015.15	17.696
2015.4	21.4424
2015.64	15.8055
2015.89	19.5508
2016.14	16.7306
2016.38	18.5983
2016.63	20.4676
2016.88	18.5914
2017.13	20.4626
2017.37	19.5254
2017.62	19.5244
2017.87	17.6503
2018.11	20.4605
2018.36	18.5885
2018.61	16.7152
2018.86	18.5876
2019.1	16.7127
2019.35	19.5195
2019.6	17.6433
2019.84	22.319
2020.09	16.6981
2020.34	20.4363
2020.58	16.6904
2020.83	18.5568
2021.08	18.5526
2021.32	17.614
2021.57	17.6085
2021.82	17.6022
2022.06	17.5961
2022.31	20.3909
2022.56	19.4514
2022.8	19.4459
2023.05	17.5738
2023.3	20.3722
2023.54	17.5799
2023.79	19.4573
2024.04	20.406
2024.28	17.6179
2024.53	22.3061
2024.78	18.5625
2025.02	20.4219
2025.27	20.4037
2025.52	14.7616
2025.76	19.4579
2026.01	18.5918
2026.26	19.5005
2026.5	17.6421
2026.75	17.6147
2027	18.5286
2027.24	18.5056
2027.49	19.4379
2027.74	18.4872
2027.98	20.3647
2028.23	19.4456
2028.48	19.4422
2028.72	19.4422
2028.97	19.4418
2029.22	19.4472
2029.46	17.586
2029.71	23.1963
2029.96	19.4667
2030.2	18.5373
2030.45	21.345
2030.69	19.4808
2030.94	17.6152
2031.19	19.4753
2031.43	18.5296
2031.68	17.5758
2031.93	21.2999
2032.17	17.5764
2032.42	21.316
2032.66	20.393
2032.91	19.4734
2033.16	22.2897
2033.4	18.5501
2033.65	19.474
2033.9	21.3423
2034.14	18.5433
2034.39	18.543
2034.63	16.672
2034.88	20.41
2035.13	13.8636
2035.37	17.6002
2035.62	19.4664
2035.87	19.4631
2036.11	19.4598
2036.36	19.4563
2036.6	21.3206
2036.85	17.5811
2037.1	19.4429
2037.34	16.6377
2037.59	19.4321
2037.83	17.5617
2038.08	17.5578
2038.33	21.2839
2038.57	18.4848
2038.82	19.4159
2039.06	19.4133
2039.31	20.3425
2039.56	20.3385
2039.8	21.2677
2040.05	17.5407
2040.3	20.3371
2040.54	23.1379
2040.79	14.7554
2041.03	20.3579
2041.28	18.4959
2041.52	21.294
2041.77	21.2892
2042.02	19.4153
2042.26	19.3992
2042.51	21.2806
2042.75	20.3591
2043	18.5152
2043.25	17.61
2043.49	20.4069
2043.74	20.3858
2043.98	20.37
2044.23	18.5017
2044.47	19.4304
2044.72	20.3484
2044.97	16.6133
2045.21	21.2745
2045.46	21.2754
2045.7	20.3443
2045.95	20.3461
2046.19	22.2164
2046.44	18.4894
2046.69	21.2938
2046.93	16.6338
2047.18	18.5059
2047.42	19.4449
2047.67	16.6456
2047.91	19.4493
2048.16	17.5798
2048.41	14.7742
2048.65	16.6374
2048.9	20.3714
2049.14	18.5041
2049.39	19.4403
2049.63	22.2431
2049.88	20.3773
2050.12	21.3146
2050.37	17.581
2050.62	19.4544
2050.86	15.723
2051.11	20.4026
2051.35	21.3408
2051.6	17.5998
2051.84	21.3411
2052.09	17.5982
2052.33	17.5972
2052.58	18.5277
2052.82	16.6553
2053.07	18.5243
2053.31	20.3922
2053.56	18.5202
2053.8	17.584
2054.05	15.7142
2054.3	17.5842
2054.54	20.3898
2054.79	21.327
2055.03	19.46
2055.28	18.5273
2055.52	17.5963
2055.77	21.3429
2056.01	18.5397
2056.26	18.5427
2056.5	22.2882
2056.75	19.4807
2056.99	18.5452
2057.24	20.4149
2057.48	19.4759
2057.73	19.4729
2057.97	21.3469
2058.22	20.4138
2058.46	22.2883
2058.71	21.353
2058.95	18.5445
2059.2	17.6086
2059.45	21.3552
2059.69	18.5478
2059.94	18.5502
2060.18	19.4901
2060.43	19.4934
2060.67	21.3701
2060.92	20.4352
2061.16	18.5622
2061.4	19.501
2061.65	17.628
2061.9	20.4433
2062.14	20.4475
2062.39	17.6393
2062.63	17.6441
2062.88	18.587
2063.12	21.4071
2063.37	17.6542
2063.61	19.5331
2063.86	15.7782
2064.1	19.537
2064.34	20.4778
2064.59	20.4803
2064.83	17.6646
2065.08	19.5466
2065.32	18.6087
2065.57	17.6699
2065.81	19.5522
2066.06	19.5529
2066.3	17.6702
2066.55	19.5448
2066.79	18.5971
2067.04	16.7146
2067.28	17.6548
2067.53	21.4196
2067.77	18.6101
2068.02	21.4412
2068.26	21.4415
2068.51	16.7336
2068.75	17.6901
2069	18.6419
2069.24	17.6993
2069.48	19.5809
2069.73	20.5217
2069.97	21.4615
2070.22	18.6364
2070.46	20.5184
2070.71	19.5774
2070.95	17.6948
2071.2	20.5205
2071.44	22.4059
2071.69	19.5842
2071.93	20.5312
2072.18	19.5955
2072.42	20.5468
2072.66	20.5574
2072.91	17.7338
2073.15	18.6813
2073.4	21.5139
2073.64	17.7385
2073.89	21.5126
2074.13	21.5082
2074.38	17.7291
2074.62	19.6072
2074.87	21.49
2075.11	22.4351
2075.35	21.4966
2075.6	17.7249
2075.84	17.7262
2076.09	18.6721
2076.33	18.6758
2076.58	20.5737
2076.82	18.6887
2077.06	19.6365
2077.31	16.8051
2077.55	21.5322
2077.8	19.6427
2078.04	19.6405
2078.29	21.5285
2078.53	17.7484
2078.77	19.6378
2079.02	21.5261
2079.26	20.5828
2079.51	20.5843
2079.75	20.5854
2080	22.4758
2080.24	21.5304
2080.48	17.7495
2080.73	21.5282
2080.97	17.7483
2081.22	19.6384
2081.46	17.7481
2081.7	17.7481
2081.95	18.6935
2082.19	17.7486
2082.44	18.6933
2082.68	17.7484
2082.93	21.5292
2083.17	20.5891
2083.41	21.5412
2083.66	21.5466
2083.9	21.5486
2084.14	20.6049
2084.39	21.5544
2084.63	19.664
2084.88	19.664
2085.12	22.5034
2085.36	19.6645
2085.61	20.6117
2085.85	20.6127
2086.1	19.667
2086.34	21.563
2086.58	20.6197
2086.83	19.6776
2087.07	19.6799
2087.32	19.6808
2087.56	20.6294
2087.8	21.5786
2088.05	18.738
2088.29	19.6877
2088.54	20.6374
2088.78	15.9021
2089.02	18.7515
2089.27	18.7573
2089.51	20.6611
2089.75	19.7188
2090	21.6233
2090.24	20.6788
2090.48	17.8339
2090.73	21.6392
2090.97	18.7922
2091.22	21.6476
2091.46	20.6984
2091.7	20.6983
2091.95	17.8451
2092.19	16.8931
2092.43	19.7418
2092.68	20.6883
2092.92	22.5855
2093.17	17.8323
2093.41	19.7307
2093.65	16.8799
2093.9	19.7289
2094.14	16.8768
2094.38	16.8733
2094.63	21.6169
2094.87	17.8173
2095.11	17.8162
2095.36	19.7139
2095.6	19.7106
2095.84	19.7105
2096.09	18.7608
2096.33	19.7085
2096.57	23.5035
2096.82	17.8089
2097.06	22.5539
2097.3	17.8092
2097.55	19.7082
2097.79	18.7604
2098.03	17.8156
2098.28	18.7686
2098.52	20.6704
2098.76	17.8223
2099.01	19.7219
2099.25	17.8215
2099.5	20.671
2099.74	20.6698
2099.98	19.7169
2100.22	21.6114
2100.47	17.8113
2100.71	17.8107
2100.95	22.5555
2101.2	18.7587
2101.44	16.8613
2101.68	17.8132
2101.93	18.7654
2102.17	19.7176
2102.41	18.7709
2102.66	21.6253
2102.9	19.729
2103.14	21.6319
2103.39	18.7824
2103.63	19.7339
2103.87	20.6852
2104.12	17.8346
2104.36	17.8354
2104.6	19.7348
2104.85	17.8299
2105.09	19.7258
2105.33	19.7202
2105.57	18.7649
2105.82	22.5587
2106.06	15.9102
2106.3	17.8095
2106.55	18.7631
2106.79	17.8175
2107.03	18.7676
2107.27	17.8175
2107.52	18.7673
2107.76	16.8671
2108	17.8169
2108.25	20.6666
2108.49	23.515
2108.73	20.6623
2108.98	18.7604
2109.22	18.7591
2109.46	18.7587
2109.7	21.6093
2109.95	21.6116
2110.19	15.9142
2110.43	17.818
2110.68	21.6233
2110.92	21.6254
2111.16	16.8722
2111.4	19.7215
2111.65	20.6711
2111.89	19.7214
2112.13	17.821
2112.38	20.6711
2112.62	20.6692
2112.86	19.7172
2113.1	20.6655
2113.35	18.7616
2113.59	20.6572
2113.83	18.7556
2114.07	17.8048
2114.32	15.9046
2114.56	19.7035
2114.8	18.7521
2115.04	19.6985
2115.29	19.695
2115.53	16.8429
2115.77	16.8377
2116.01	18.7306
2116.26	21.5713
2116.5	20.6185
2116.74	20.6141
2116.99	19.6624
2117.23	19.6592
2117.47	21.5529
2117.71	17.763
2117.96	21.5564
2118.2	20.6106
2118.44	18.7187
2118.68	20.6196
2118.92	18.7272
2119.17	21.577
2119.41	16.8366
2119.65	18.7371
2119.9	19.6886
2120.14	21.5893
2120.38	18.743
2120.62	19.6931
2120.86	17.7929
2121.11	18.74
2121.35	20.635
2121.59	19.6808
2121.83	17.7761
2122.08	22.5075
2122.32	16.8116
2122.56	19.6474
2122.8	22.4821
2123.04	18.6885
2123.29	21.5226
2123.53	23.4103
2123.77	17.7291
2124.01	20.5626
2124.26	16.7754
2124.5	19.6102
2124.74	20.5545
2124.98	19.6078
2125.22	15.8242
2125.47	19.6039
2125.71	20.549
2125.95	20.549
2126.19	17.7124
2126.44	17.7108
2126.68	17.7094
2126.92	16.7633
2127.16	20.5424
2127.4	18.6511
2127.65	16.7597
2127.89	22.4268
2128.13	19.5898
2128.37	18.6422
2128.61	21.4724
2128.86	18.6363
2129.1	18.6342
2129.34	19.5761
2129.58	21.46
2129.82	17.6808
2130.06	20.5096
2130.31	18.6218
2130.55	17.6787
2130.79	20.5103
2131.03	17.6793
2131.27	20.511
2131.52	20.5117
2131.76	20.511
2132	19.5665
2132.24	22.3968
2132.48	18.621
2132.73	17.6754
2132.97	16.7289
2133.21	18.6101
2133.45	18.6042
2133.69	21.4291
2133.94	20.4867
2134.18	20.4876
2134.42	19.545
2134.66	16.7181
2134.9	17.6645
2135.14	22.379
2135.39	19.5441
2135.63	21.4248
2135.87	21.4275
2136.11	19.5483
2136.35	22.3827
2136.59	14.8304
2136.84	21.421
2137.08	17.6478
2137.32	17.6449
2137.56	18.5845
2137.8	18.5822
2138.04	17.6387
2138.28	18.5789
2138.53	17.637
2138.77	18.5753
2139.01	19.5123
2139.25	19.5101
2139.49	17.6272
2139.74	16.6887
2139.98	17.6329
2140.22	21.4153
2140.46	18.5833
2140.7	20.4198
2140.94	20.4135
2141.18	16.6586
2141.43	21.3646
2141.67	19.4909
2141.91	18.5543
2142.15	20.4252
2142.39	20.4251
2142.63	21.3665
2142.87	18.5446
2143.12	19.483
2143.36	18.5411
2143.6	18.5394
2143.84	22.2974
2144.08	20.4154
2144.32	18.533
2144.56	20.4094
2144.8	16.6488
2145.05	19.465
2145.29	19.4625
2145.53	19.4601
2145.77	20.3964
2146.01	19.4542
2146.25	20.3888
2146.49	17.5684
2146.73	21.3134
2146.98	20.3702
2147.22	17.5516
2147.46	20.36
2147.7	16.6083
2147.94	17.545
2148.18	21.2955
2148.42	16.6114
2148.66	23.1761
2148.9	18.4909
2149.15	19.4297
2149.39	20.3708
2149.63	21.3054
2149.87	22.24
2150.11	21.2982
2150.35	17.5447
2150.59	21.2922
2150.83	19.4158
2151.07	21.2865
2151.31	18.4708
2151.56	18.4644
2151.8	17.5201
2152.04	20.3204
2152.28	18.4401
2152.52	23.1091
2152.76	16.5588
2153	16.5542
2153.24	17.4851
2153.48	16.5488
2153.72	19.3503
2153.97	21.2179
2154.21	18.4152
2154.45	19.3505
2154.69	17.4843
2154.93	19.3563
2155.17	17.4901
2155.41	21.2296
2155.65	18.4252
2155.89	20.2936
2156.13	21.2263
2156.37	17.4856
2156.61	18.4169
2156.86	18.4131
2157.1	20.2762
2157.34	16.5361
2157.58	19.3327
2157.82	19.3286
2158.06	21.1925
2158.3	17.4587
2158.54	21.1891
2158.78	16.522
2159.02	19.3199
2159.26	18.3867
2159.5	19.3195
2159.74	17.4532
2159.98	18.3845
2160.22	18.3818
2160.47	20.2448
2160.71	21.175
2160.95	17.4429
2161.19	16.5083
2161.43	20.2333
2161.67	20.2276
2161.91	17.4289
2162.15	20.2241
2162.39	20.2262
2162.63	19.2945
2162.87	20.2264
2163.11	23.0221
2163.35	19.2924
2163.59	21.1534
2163.83	16.4924
2164.07	18.3517
2164.31	18.3487
2164.55	17.4134
2164.79	15.5466
2165.03	17.3996
2165.27	16.4617
2165.51	18.3179
2165.76	19.2468
2166	20.1773
2166.24	20.1798
2166.48	17.3936
2166.72	19.2587
2166.96	13.6815
2167.2	17.4104
2167.44	20.208
2167.68	18.3472
2167.92	19.2772
2168.16	18.3423
2168.4	18.3403
2168.64	17.4026
2168.88	14.6005
2169.12	19.2426
2169.36	18.3091
2169.6	20.1643
2169.84	17.3739
2170.08	16.444
2170.32	21.0889
2170.56	18.3012
2170.8	19.2314
2171.04	17.3751
2171.28	16.4472
2171.52	15.5185
2171.76	17.3773
2172	18.3064
2172.24	18.306
2172.48	20.1633
2172.72	22.0203
2172.96	19.2316
2173.2	21.0889
2173.44	22.0162
2173.68	18.2965
2173.92	18.2951
2174.16	19.2238
2174.4	19.2241
2174.64	17.3664
2174.88	17.3658
2175.12	17.3664
2175.36	21.0804
2175.6	19.2172
2175.84	17.356
2176.08	17.3552
2176.32	18.2843
2176.56	19.2129
2176.8	16.4274
2177.04	18.2842
2177.28	15.4984
2177.52	18.2832
2177.76	19.2103
2178	20.1372
2178.24	17.3515
2178.48	18.2786
2178.72	19.2044
2178.96	19.2019
2179.2	18.2728
2179.44	19.1981
2179.68	18.2682
2179.92	16.411
2180.16	19.1903
2180.4	19.1859
2180.64	20.1071
2180.88	21.0294
2181.12	20.0992
2181.35	17.3162
2181.59	18.2416
2181.83	16.3888
2182.07	18.2436
2182.31	17.3181
2182.55	18.246
2182.79	19.1749
2183.03	18.2508
2183.27	16.3996
2183.51	18.257
2183.75	18.2619
2183.99	20.1233
2184.23	23.8421
2184.47	17.3492
2184.71	19.2104
2184.95	18.2828
2185.19	20.1382
2185.43	20.1346
2185.67	16.417
2185.91	20.126
2186.15	18.2651
2186.38	15.4768
2186.62	18.2538
2186.86	18.2483
2187.1	20.0998
2187.34	18.2446
2187.58	19.1719
2187.82	16.3919
2188.06	19.1748
2188.3	21.956
2188.54	16.3938
2188.78	19.1769
2189.02	20.1059
2189.26	20.1075
2189.5	19.1814
2189.74	18.2554
2189.97	19.1859
2190.21	17.3333
2190.45	19.1921
2190.69	21.0529
2190.93	18.2752
2191.17	21.0716
2191.41	21.0785
2191.65	20.1526
2191.89	20.1518
2192.13	19.2196
2192.37	17.3586
2192.61	19.2144
2192.85	21.9975
2193.08	18.2758
2193.32	17.3408
2193.56	17.3349
2193.8	17.3304
2194.04	18.2547
2194.28	20.1068
2194.52	20.1036
2194.76	19.1758
2195	19.1762
2195.24	17.3227
2195.47	19.1823
2195.71	15.4746
2195.95	17.3358
2196.19	21.9851
2196.43	20.1336
2196.67	17.352
2196.91	18.2873
2197.15	17.3656
2197.39	21.0971
2197.63	20.176
2197.86	17.3899
2198.1	17.395
2198.34	20.195
2198.58	18.3243
2198.82	19.2365
2199.06	17.3394
2199.3	19.1679
2199.54	15.4662
2199.78	15.4929
2200.01	18.2969
2200.25	24.8014
2200.49	18.2875
2200.73	19.2286
2200.97	17.4298
2201.21	20.2044
2201.45	16.4724
2201.69	20.2064
2201.92	19.2609
2202.16	20.1745
2202.4	18.2974
2202.64	19.2163
2202.88	18.2834
2203.12	19.2131
2203.36	18.2874
2203.59	15.4987
2203.83	20.1404
2204.07	18.282
2204.31	20.1443
2204.55	16.4278
2204.79	19.2216
2205.03	16.4344
2205.27	18.299
2205.5	19.2334
2205.74	20.1678
2205.98	22.0329
2206.22	18.3102
2206.46	14.586
2206.7	19.2426
2206.93	20.1732
2207.17	19.2423
2207.41	17.3817
2207.65	17.3841
2207.89	20.182
2208.13	17.3894
2208.37	18.324
2208.6	19.2591
2208.84	20.1955
2209.08	17.402
2209.32	19.27
2209.56	18.3387
2209.8	20.2029
2210.03	14.6045
2210.27	17.4008
2210.51	19.263
2210.75	18.3269
2210.99	17.3952
2211.23	18.331
2211.47	19.2711
2211.7	21.1455
2211.94	21.1477
2212.18	16.4819
2212.42	20.2172
2212.66	18.3507
2212.89	18.3511
2213.13	16.4837
2213.37	18.3507
2213.61	18.3501
2213.85	21.1499
2214.09	20.2154
2214.32	16.4809
2214.56	19.2821
2214.8	18.3493
2215.04	14.6145
2215.28	17.4151
2215.51	20.2168
2215.75	20.2186
2215.99	17.4195
2216.23	16.4884
2216.47	17.4256
2216.71	19.2963
2216.94	19.2985
2217.18	17.4312
2217.42	17.4307
2217.66	15.5607
2217.9	17.429
2218.13	19.2961
2218.37	20.2258
2218.61	18.3522
2218.85	16.4804
2219.08	18.3443
2219.32	16.4748
2219.56	19.2745
2219.8	18.3422
2220.04	18.3447
2220.27	20.2149
2220.51	18.3502
2220.75	16.486
2220.99	18.3596
2221.23	18.3652
2221.46	16.5003
2221.7	14.6337
2221.94	19.3143
2222.18	18.3827
2222.42	16.5152
2222.65	16.5197
2222.89	18.3963
2223.13	19.3366
2223.37	18.4039
2223.6	17.4697
2223.84	21.2221
2224.08	18.4139
2224.32	16.5417
2224.55	20.2944
2224.79	16.5446
2225.03	18.4196
2225.27	17.4805
2225.5	19.3543
2225.74	18.4153
2225.98	20.2892
2226.22	18.413
2226.46	19.3503
2226.69	17.478
2226.93	17.4825
2227.17	15.6104
2227.41	16.5514
2227.64	20.3083
2227.88	16.5576
2228.12	18.4388
2228.36	18.443
2228.59	15.6293
2228.83	18.4509
2229.07	19.3942
2229.31	19.3979
2229.54	18.4615
2229.78	17.5245
2230.02	19.4087
2230.26	18.4715
2230.49	16.5931
2230.73	18.4781
2230.97	19.4218
2231.21	17.5414
2231.44	16.5992
2231.68	18.4801
2231.92	20.3599
2232.16	14.7108
2232.39	17.5273
2232.63	18.4629
2232.87	17.5226
2233.11	18.4637
2233.34	16.5836
2233.58	16.5845
2233.82	15.6444
2234.05	16.5858
2234.29	19.412
2234.53	17.5339
2234.77	15.6576
2235	19.4312
2235.24	16.612
2235.48	17.5591
2235.72	17.5636
2235.95	16.6258
2236.19	17.575
2236.43	18.5198
2236.66	17.5748
2236.9	16.6291
2237.14	16.6245
2237.37	15.6774
2237.61	17.5607
2237.85	18.5104
2238.09	18.518
2238.32	19.4626
2238.56	14.7459
2238.8	18.5215
2239.04	16.6352
2239.27	15.6927
2239.51	20.4138
2239.75	19.4722
2239.98	17.5845
2240.22	22.3039
2240.46	20.4132
2240.69	20.4099
2240.93	18.5208
2241.17	17.5764
2241.4	17.5768
2241.64	17.5793
2241.88	19.4726
2242.11	17.5912
2242.35	20.4323
2242.59	19.4921
2242.83	16.6598
2243.06	20.4453
2243.3	17.6123
2243.54	19.507
2243.77	16.6709
2244.01	17.6194
2244.25	20.4609
2244.48	16.6773
2244.72	18.5709
2244.96	16.6777
2245.19	15.7303
2245.43	17.6219
2245.67	19.5133
2245.91	17.6196
2246.14	17.6185
2246.38	19.51
2246.61	19.5131
2246.85	17.6226
2247.09	21.4083
2247.32	14.781
2247.56	20.4552
2247.8	20.4509
2248.03	18.5544
2248.27	18.5508
2248.51	21.3844
2248.74	18.5468
2248.98	17.6019
2249.22	16.6581
2249.45	18.552
2249.69	14.7719
2249.93	19.5076
2250.16	17.6244
2250.4	19.5255
2250.64	19.5312
2250.87	20.4834
2251.11	15.748
2251.35	16.699
2251.58	19.5457
2251.82	16.7014
2252.06	16.6998
2252.29	17.6485
2252.53	15.7522
2252.77	19.5455
2253	17.6497
2253.24	18.601
2253.48	16.7072
2253.71	21.4539
2253.95	20.5084
2254.18	17.6644
2254.42	18.6165
2254.66	19.5687
2254.89	18.6213
2255.13	16.7231
2255.37	18.623
2255.6	22.423
2255.84	13.8767
2256.08	18.6283
2256.31	19.5811
2256.55	16.7324
2256.78	16.7337
2257.02	17.6859
2257.26	17.6877
2257.49	20.5412
2257.73	15.7895
2257.96	17.6935
2258.2	17.699
2258.44	18.6541
2258.67	17.7035
2258.91	14.8499
2259.15	15.8026
2259.38	17.7073
2259.62	18.6615
2259.85	17.7132
2260.09	18.6693
2260.33	15.8167
2260.56	18.6799
2260.8	15.8268
2261.03	19.6471
2261.27	15.8389
2261.51	19.6613
2261.74	16.8033
2261.98	18.7169
2262.21	17.7657
2262.45	18.724
2262.69	15.8589
2262.92	18.7253
2263.16	18.7237
2263.39	18.7196
2263.63	16.8055
2263.87	15.8467
2264.1	19.6604
2264.34	17.7487
2264.57	15.8378
2264.81	13.9274
2265.05	19.6464
2265.28	14.8752
2265.52	18.6881
2265.75	18.6885
2265.99	16.7837
2266.22	17.741
2266.46	18.6997
2266.7	17.7505
2266.93	20.6199
2267.17	14.8967
2267.4	17.7675
2267.64	20.6374
2267.87	21.5956
2268.11	15.8649
2268.35	18.7359
2268.58	16.8258
2268.82	15.8717
2269.05	16.8312
2269.29	19.7028
2269.53	16.8331
2269.76	20.6607
2270	17.7914
2270.23	19.706
2270.47	18.7501
2270.7	18.751
2270.94	17.7949
2271.18	16.8387
2271.41	17.7965
2271.65	18.7545
2271.88	16.841
2272.12	15.8847
2272.35	18.7577
2272.59	17.8014
2272.82	18.7581
2273.06	17.8031
2273.3	16.8495
2273.53	19.7278
2273.77	16.8573
2274	18.7775
2274.24	15.9055
2274.47	17.8287
2274.71	17.8353
2274.94	16.8824
2275.18	17.8499
2275.41	16.8922
2275.65	16.8934
2275.88	16.8935
2276.12	17.8532
2276.36	18.8123
2276.59	17.8487
2276.83	21.6797
2277.06	21.6732
2277.3	17.8302
2277.53	17.8259
2277.77	14.9458
2278	17.8196
2278.24	15.9005
2278.47	17.8154
2278.71	16.855
2278.94	14.9398
2279.18	17.8165
2279.41	15.9015
2279.65	17.8224
2279.89	14.949
2280.12	17.8305
2280.36	15.9161
2280.59	19.7626
2280.83	18.8113
2281.06	18.8192
2281.3	17.8666
2281.53	16.9097
2281.77	20.7588
2282	15.9533
2282.24	16.9191
2282.47	18.845
2282.71	15.9584
2282.94	17.8794
2283.18	15.9486
2283.41	16.9098
2283.65	15.949
2283.88	14.9894
2284.12	18.8464
2284.35	21.7424
2284.59	17.8935
2284.82	18.8585
2285.06	15.9734
2285.29	15.0087
2285.53	19.8225
2285.76	19.8195
2286	16.927
2286.23	15.9591
2286.47	17.8775
2286.7	15.9474
2286.94	19.7868
2287.17	16.8996
2287.41	18.8204
2287.64	14.975
2287.88	14.9752
2288.11	18.8233
2288.35	19.7899
2288.58	18.8344
2288.82	19.801
2289.05	18.8419
2289.28	14.9943
2289.52	15.9599
2289.75	21.7423
2289.99	15.0037
2290.22	16.9333
2290.46	17.8994
2290.69	16.9376
2290.93	17.9024
2291.16	16.9371
2291.4	18.8623
2291.63	19.8229
2291.87	15.0022
2292.1	16.9264
2292.34	16.9239
2292.57	17.8843
2292.81	18.8445
2293.04	24.6185
2293.28	14.9877
2293.51	19.7919
2293.74	19.7906
2293.98	16.9057
2294.21	17.8703
2294.45	16.9111
2294.68	16.9148
2294.92	16.9195
2295.15	15.9619
2295.39	17.8924
2295.62	16.9312
2295.86	15.9705
2296.09	15.9745
2296.32	17.9066
2296.56	19.8388
2296.79	18.8761
2297.03	16.9464
2297.26	18.8757
2297.5	16.9458
2297.73	17.9125
2297.97	15.0207
2298.2	16.9526
2298.43	15.9893
2298.67	18.886
2298.9	16.9558
2299.14	16.9552
2299.37	16.9535
2299.61	17.9173
2299.84	18.8828
2300.07	15.9869
2300.31	15.9859
2300.54	17.9156
2300.78	18.8809
2301.01	17.9175
2301.25	17.9205
2301.48	21.7853
2301.71	16.9595
2301.95	15.0303
2302.18	18.8969
2302.42	16.9668
2302.65	18.8999
2302.89	19.8676
2303.12	16.0045
2303.35	21.8054
2303.59	17.9401
2303.82	16.9738
2304.05	15.0403
2304.29	15.0397
2304.52	17.9376
2304.76	16.0025
2304.99	15.0349
2305.23	15.9996
2305.46	16.9642
2305.69	17.9302
2305.93	15.0323
2306.16	18.8998
2306.4	17.9364
2306.63	18.9075
2306.86	16.0123
2307.1	16.9829
2307.33	18.9192
2307.57	16.9848
2307.8	18.919
2308.03	19.8842
2308.27	16.0112
2308.5	13.1023
2308.74	17.9231
2308.97	16.9511
2309.2	18.8773
2309.44	17.9092
2309.67	16.9409
2309.91	18.8683
2310.14	19.8328
2310.37	17.905
2310.61	16.9451
2310.84	17.9173
2311.07	18.8885
2311.31	17.9277
2311.54	17.9331
2311.78	17.9398
2312.01	17.9458
2312.24	18.9162
2312.48	15.0422
2312.71	18.9062
2312.94	16.0019
2313.18	15.9974
2313.41	16.9545
2313.65	18.881
2313.88	16.947
2314.11	17.912
2314.35	17.9129
2314.58	15.9824
2314.81	19.8504
2315.05	18.8877
2315.28	18.8811
2315.51	15.9809
2315.75	16.9441
2315.98	20.8028
2316.22	17.9035
2316.45	16.9357
2316.68	18.8636
2316.92	15.9674
2317.15	16.9322
2317.38	15.0026
2317.62	16.9323
2317.85	17.8989
2318.08	15.971
2318.32	14.0428
2318.55	18.8731
2318.78	18.8772
2319.02	18.8824
2319.25	18.8883
2319.48	17.9265
2319.72	17.9282
2319.95	18.8939
2320.19	17.9279
2320.42	19.8628
2320.65	17.9301
2320.89	18.8982
2321.12	20.8326
2321.35	20.8316
2321.58	16.9629
2321.82	19.8586
2322.05	19.8523
2322.28	15.9808
2322.52	20.806
2322.75	17.9049
2322.98	18.8666
2323.22	16.9321
2323.45	18.8583
2323.68	19.8189
2323.92	22.7083
2324.15	17.8811
2324.38	20.7695
2324.62	21.7303
2324.85	16.907
2325.08	21.7239
2325.32	22.6887
2325.55	25.5803
2325.78	22.6892
2326.02	22.6844
2326.25	25.5704
2326.48	27.4899
2326.71	32.3031
2326.95	38.0804
2327.18	52.5343
2327.41	65.0521
2327.65	79.4936
2327.88	73.7081
2328.11	66.0015
2328.35	46.7446
2328.58	39.0457
2328.81	30.3817
2329.05	29.4254
2329.28	25.5636
2329.51	26.5216
2329.75	20.7393
2329.98	24.588
2330.21	17.8451
2330.44	20.7306
2330.68	15.9154
2330.91	18.8011
2331.14	18.7983
2331.38	16.8706
2331.61	16.866
2331.84	18.7869
2332.07	18.7848
2332.31	17.8224
2332.54	18.7828
2332.77	18.7834
2333	16.8612
2333.24	17.8221
2333.47	16.8585
2333.7	19.7419
2333.94	17.8179
2334.17	18.7785
2334.4	13.9702
2334.63	20.6992
2334.87	19.736
2335.1	17.812
2335.33	15.8886
2335.56	16.8488
2335.8	15.887
2336.03	15.8875
2336.26	17.8101
2336.5	19.7323
2336.73	15.8868
2336.96	19.7298
2337.19	21.6492
2337.43	17.802
2337.66	17.7988
2337.89	15.8737
2338.12	16.8293
2338.36	16.8236
2338.59	15.8575
2338.82	19.6897
2339.05	18.7269
2339.29	16.8058
2339.52	19.6794
2339.75	21.5943
2339.98	19.6757
2340.22	15.8408
2340.45	16.7994
2340.68	18.7156
2340.91	16.7976
2341.15	17.7562
2341.38	19.6746
2341.61	16.7991
2341.84	16.7985
2342.08	15.8386
2342.31	17.7537
2342.54	17.7507
2342.77	18.7039
2343.01	16.7845
2343.24	17.7389
2343.47	16.7798
2343.7	15.8211
2343.93	17.7353
2344.17	15.8185
2344.4	17.732
2344.63	18.6888
2344.86	14.8595
2345.1	16.7752
2345.33	18.6923
2345.56	17.736
2345.79	18.6934
2346.03	19.6491
2346.26	18.6882
2346.49	15.8089
2346.72	18.6717
2346.95	14.8376
2347.19	18.6507
2347.42	17.682
2347.65	18.6121
2347.88	16.6689
2348.12	17.6495
2348.35	18.6672
2348.58	15.8135
2348.81	18.6463
2349.04	17.6712
2349.28	16.7184
2349.51	18.6296
2349.74	14.8017
2349.97	16.6942
2350.2	17.6345
2350.44	17.6393
2350.67	17.6374
2350.9	17.6338
2351.13	15.7291
2351.36	20.4904
2351.6	16.6849
2351.83	17.6415
2352.06	18.5937
2352.29	17.6395
2352.52	18.5905
2352.76	16.6833
2352.99	16.6811
2353.22	16.678
2353.45	17.6245
2353.68	17.6159
2353.92	17.6091
2354.15	15.7032
2354.38	17.6021
2354.61	15.6975
2354.84	16.6456
2355.07	18.5441
2355.31	19.4924
2355.54	17.59
2355.77	16.6359
2356	16.6341
2356.23	22.3325
2356.46	16.6316
2356.7	15.6796
2356.93	16.6263
2357.16	18.5214
2357.39	16.6185
2357.62	15.6654
2357.86	16.6104
2358.09	18.5034
2358.32	17.5503
2358.55	15.6496
2358.78	15.6455
2359.01	16.5888
2359.25	15.6366
2359.48	14.6851
2359.71	18.4691
2359.94	18.4652
2360.17	17.5152
2360.4	16.566
2360.63	19.4026
2360.87	18.4541
2361.1	16.5596
2361.33	16.5571
2361.56	19.3917
2361.79	17.4974
2362.02	18.4409
2362.26	14.6558
2362.49	14.6526
2362.72	15.5902
2362.95	16.5246
2363.18	17.4603
2363.41	16.5143
2363.64	17.4569
2363.88	17.4581
2364.11	17.4656
2364.34	14.6422
2364.57	19.3738
2364.8	16.537
