#Acq. time (s)=	30
#Accumulations=	2
#Range (cm-¹)=	1200...2365
#Windows=	3
#Auto scanning=	Off
#Autofocus=	Off
#Macrospot=	Off
#AutoExposure=	Off
#Spike filter=	Multiple accum.
#Delay time (s)=	2
#Binning=	1
#Readout mode=	Signal
#DeNoise=	Off
#ICS correction=	On
#Dark correction=	Off
#Inst. Process=	Off
#Detector Gain=	Best Dynamic
#Detector ADC=	50 kHz HS
#Detector temperature (°C)=	-60.09
#Instrument=	LabRAM HR Evol
#Detector=	SIN-EM FIVIS
#Objective=	x100_VIS_LWD
#Grating=	1800 (450-850nm)
#ND Filter=	100%
#Laser=	532nm_Edge
#Hole=	49.98
#Temperature=	0
#Range=	Visible
#StageXY=	75x50mm Scan+
#StageZ=	Z motor
#X (µm)=	0
#Y (µm)=	0
#Z (µm)=	12.2
#Full time(mm:ss)=	3:18
#Project=	21_11_22
#Sample=	BU19w
#Site=	
#Title=	BU19w-D-FF2-FI08-V_1800 (450-850nm)_532nm_Edge_100%_x100_VIS_LWD_H50um_30sX2
#Remark=	
#Date=	22.11.2021 13:45
#Acquired=	22.11.2021 13:45:11
1202.84	31.6723
1203.12	29.5106
1203.4	27.3513
1203.67	27.3384
1203.95	27.3254
1204.23	23.0296
1204.51	26.2358
1204.78	32.6532
1205.06	28.3655
1205.34	27.2897
1205.62	25.1419
1205.9	27.274
1206.17	28.3362
1206.45	28.3319
1206.73	29.3996
1207.01	28.328
1207.29	27.2538
1207.56	30.4485
1207.84	29.368
1208.12	27.2228
1208.39	27.2127
1208.67	26.1372
1208.95	26.1271
1209.23	26.1168
1209.51	27.1749
1209.78	28.2325
1210.06	25.0284
1210.34	29.2827
1210.62	29.2786
1210.89	26.0787
1211.17	26.079
1211.45	31.4031
1211.72	25.0156
1212	23.9507
1212.28	26.0789
1212.56	26.0775
1212.84	27.1404
1213.11	25.0052
1213.39	22.8688
1213.67	22.8588
1213.94	24.9752
1214.22	26.03
1214.5	31.3343
1214.78	28.1387
1215.05	29.1937
1215.33	26.0025
1215.61	27.0578
1215.89	24.9319
1216.16	21.7468
1216.44	23.8666
1216.72	23.864
1216.99	20.677
1217.27	28.1004
1217.55	24.9188
1217.83	27.0385
1218.1	21.7336
1218.38	23.8501
1218.66	23.846
1218.93	21.7197
1219.21	29.1275
1219.49	24.8784
1219.77	21.6905
1220.04	22.7377
1220.32	23.7849
1220.6	24.8313
1220.88	21.6529
1221.15	26.9261
1221.43	24.807
1221.71	24.8022
1221.98	25.8539
1222.26	25.8527
1222.54	25.855
1222.81	22.6907
1223.09	24.8052
1223.37	25.8603
1223.64	27.9699
1223.92	22.6868
1224.2	23.7382
1224.48	21.6171
1224.75	27.9217
1225.03	30.0098
1225.31	25.7815
1225.58	24.7065
1225.86	28.8906
1226.14	26.7839
1226.41	24.7347
1226.69	31.1218
1226.97	27.9394
1227.24	28.966
1227.52	26.8468
1227.8	33.1695
1228.07	29.9968
1228.35	29.9351
1228.63	27.8355
1228.9	32.0384
1229.18	34.1392
1229.46	33.0839
1229.73	37.2857
1230.01	41.4861
1230.29	40.4311
1230.56	39.379
1230.84	41.4817
1231.12	42.5359
1231.39	39.3877
1231.67	44.6472
1231.95	46.7572
1232.22	48.863
1232.5	46.7647
1232.78	49.9245
1233.05	46.7747
1233.33	50.9804
1233.61	52.0255
1233.88	44.6593
1234.16	46.7522
1234.43	46.7365
1234.71	47.7699
1234.99	44.6033
1235.26	42.4883
1235.54	45.6198
1235.82	43.5086
1236.09	43.5006
1236.37	42.446
1236.65	36.1513
1236.92	30.9075
1237.2	37.1954
1237.47	36.1467
1237.75	31.9546
1238.03	36.1491
1238.3	28.8125
1238.58	31.9553
1238.85	36.1414
1239.13	27.7533
1239.41	30.8968
1239.68	29.8509
1239.96	27.7579
1240.24	31.9553
1240.51	34.0518
1240.79	31.9548
1241.06	27.7635
1241.34	30.9086
1241.62	27.7616
1241.89	28.8071
1242.17	26.7054
1242.45	26.6984
1242.72	30.879
1243	26.6802
1243.27	27.7223
1243.55	28.7668
1243.83	29.813
1244.1	32.9529
1244.38	28.7636
1244.65	32.9489
1244.93	33.9925
1245.2	33.9811
1245.48	30.8351
1245.76	32.9248
1246.03	25.6049
1246.31	30.8366
1246.59	28.7432
1246.86	30.8336
1247.14	29.7878
1247.41	39.194
1247.69	32.911
1247.96	31.8581
1248.24	31.8517
1248.51	38.1147
1248.79	40.1973
1249.07	32.8788
1249.34	34.9611
1249.62	39.1306
1249.89	39.1224
1250.17	41.202
1250.45	37.0232
1250.72	38.0662
1251	37.0278
1251.27	42.2537
1251.55	38.0863
1251.82	38.0901
1252.1	39.1346
1252.38	40.1815
1252.65	38.0932
1252.93	37.0471
1253.2	33.9155
1253.48	36.0065
1253.75	29.7448
1254.03	31.8356
1254.3	31.8343
1254.58	32.8739
1254.86	31.8265
1255.13	31.824
1255.41	31.8212
1255.68	30.7742
1255.96	29.7223
1256.23	28.677
1256.51	27.6367
1256.78	27.6387
1257.06	29.742
1257.33	30.778
1257.61	27.6395
1257.88	26.5854
1258.16	27.6217
1258.44	27.6169
1258.71	27.6174
1258.99	29.7287
1259.26	23.4933
1259.54	30.844
1259.81	24.523
1260.09	27.6237
1260.36	26.56
1260.64	26.5868
1260.91	29.7408
1261.19	25.5849
1261.46	25.6046
1261.74	29.7688
1262.01	27.6698
1262.29	29.7595
1262.56	30.8032
1262.84	30.7966
1263.11	24.5268
1263.39	32.8876
1263.66	32.8917
1263.94	37.0785
1264.21	28.7229
1264.49	30.822
1264.76	28.7386
1265.04	28.7477
1265.31	26.6662
1265.59	26.6767
1265.86	21.4446
1266.14	21.448
1266.41	21.4508
1266.69	17.2591
1266.96	23.5405
1267.24	22.4863
1267.51	23.5279
1267.79	22.4756
1268.06	21.4248
1268.34	20.3764
1268.61	20.3739
1268.89	22.4674
1269.16	21.4255
1269.44	25.619
1269.71	18.2972
1269.99	23.5402
1270.26	20.4026
1270.54	21.4561
1270.81	24.6069
1271.09	23.5646
1271.36	19.3732
1271.64	23.5701
1271.91	21.4714
1272.18	20.4223
1272.46	23.5712
1272.74	17.2798
1273.01	23.5788
1273.28	19.3858
1273.56	25.6882
1273.83	17.293
1274.11	24.6465
1274.38	21.5009
1274.66	21.5061
1274.93	23.613
1275.21	23.6177
1275.48	20.4679
1275.76	20.4738
1276.03	20.477
1276.3	20.4808
1276.58	20.4797
1276.85	23.6337
1277.13	21.5271
1277.4	22.5775
1277.68	23.631
1277.95	23.6326
1278.23	18.3776
1278.5	27.8557
1278.77	24.7023
1279.05	24.7013
1279.32	18.3871
1279.6	21.5483
1279.87	23.6506
1280.15	22.5885
1280.42	23.6186
1280.69	22.5572
1280.97	25.7104
1281.24	30.9688
1281.52	32.0965
1281.79	36.3169
1282.07	45.8032
1282.34	54.2068
1282.61	71.0313
1282.89	84.7164
1283.16	115.275
1283.44	159.511
1283.71	196.327
1283.99	199.484
1284.26	161.572
1284.53	108.916
1284.81	71.0063
1285.08	47.8455
1285.36	38.3734
1285.63	31.0077
1285.9	23.6423
1286.18	27.856
1286.45	24.7026
1286.73	26.8129
1287	23.6588
1287.28	21.5563
1287.55	18.3965
1287.82	21.5542
1288.1	23.6592
1288.37	21.5523
1288.64	19.4455
1288.92	21.5512
1289.19	21.551
1289.47	17.3393
1289.74	22.6047
1290.01	19.4432
1290.29	19.4437
1290.56	22.6096
1290.84	18.4034
1291.11	20.5197
1291.38	19.4687
1291.66	19.4684
1291.93	21.5763
1292.21	21.579
1292.48	22.6426
1292.75	17.3766
1293.03	18.4449
1293.3	21.6241
1293.57	16.342
1293.85	16.3423
1294.12	20.5685
1294.4	19.5082
1294.67	17.3911
1294.94	20.5561
1295.22	21.6067
1295.49	18.4396
1295.76	20.551
1296.04	19.4917
1296.31	19.4888
1296.58	19.4857
1296.86	17.3739
1297.13	23.7108
1297.4	18.4343
1297.68	17.379
1297.95	17.3782
1298.22	19.489
1298.5	20.5456
1298.77	20.5487
1299.04	18.4395
1299.32	18.4412
1299.59	16.3291
1299.87	21.6105
1300.14	19.4966
1300.41	19.4945
1300.69	19.491
1300.96	19.4899
1301.23	18.4342
1301.51	23.714
1301.78	18.434
1302.05	15.2644
1302.33	20.54
1302.6	20.5353
1302.87	20.5307
1303.15	18.4157
1303.42	17.3571
1303.69	17.3553
1303.97	19.4641
1304.24	14.1923
1304.51	19.4664
1304.79	16.3019
1305.06	18.4109
1305.33	23.6861
1305.6	20.5202
1305.88	18.4114
1306.15	20.5241
1306.42	18.4168
1306.7	18.4194
1306.97	19.4767
1307.24	17.3656
1307.52	19.4748
1307.79	16.3088
1308.06	16.3094
1308.34	15.2548
1308.61	17.3663
1308.88	18.4229
1309.15	16.3146
1309.43	21.5963
1309.7	16.3182
1309.97	17.3738
1310.25	17.3708
1310.52	18.4255
1310.79	21.5908
1311.06	18.4225
1311.34	16.3112
1311.61	19.4787
1311.88	17.3691
1312.16	17.3711
1312.43	18.4291
1312.7	18.4314
1312.98	17.3775
1313.25	20.5457
1313.52	17.3759
1313.79	18.4311
1314.07	17.3744
1314.34	18.4303
1314.61	18.4326
1314.89	20.547
1315.16	19.4919
1315.43	18.4363
1315.7	16.3237
1315.98	17.3802
1316.25	14.2104
1316.52	21.6045
1316.79	15.2654
1317.07	18.4355
1317.34	15.2664
1317.61	20.5477
1317.88	19.4886
1318.16	19.4843
1318.43	15.2558
1318.7	20.5279
1318.97	21.5794
1319.25	21.573
1319.52	18.4056
1319.79	17.3483
1320.06	16.2913
1320.34	20.5044
1320.61	19.4525
1320.88	17.3445
1321.16	20.5082
1321.43	17.344
1321.7	18.3989
1321.97	16.289
1322.25	17.3451
1322.52	18.3953
1322.79	19.4409
1323.06	19.4303
1323.33	17.3105
1323.61	18.3571
1323.88	20.4589
1324.15	17.3075
1324.42	18.3727
1324.7	17.3256
1324.97	18.3853
1325.24	18.3923
1325.51	19.4541
1325.79	17.3505
1326.06	15.2428
1326.33	19.4598
1326.6	16.297
1326.87	17.3513
1327.15	14.1851
1327.42	17.3477
1327.69	16.2899
1327.96	17.3404
1328.23	18.3893
1328.51	20.4898
1328.78	18.3741
1329.05	17.3146
1329.32	18.3623
1329.6	16.2521
1329.87	15.1946
1330.14	17.2922
1330.41	17.2864
1330.68	16.2301
1330.96	18.3265
1331.23	20.4218
1331.5	18.3164
1331.77	19.3615
1332.04	18.3077
1332.32	17.2548
1332.59	18.3005
1332.86	17.2482
1333.13	19.3428
1333.4	18.2912
1333.67	17.2401
1333.95	20.383
1334.22	18.2845
1334.49	19.331
1334.76	19.3288
1335.03	19.3244
1335.3	15.1292
1335.58	21.4113
1335.85	19.3133
1336.12	20.358
1336.39	17.2159
1336.66	17.2163
1336.94	18.2644
1337.21	18.2648
1337.48	17.218
1337.75	18.2658
1338.02	19.3128
1338.29	22.4535
1338.57	20.3576
1338.84	18.2612
1339.11	19.3052
1339.38	17.2077
1339.65	17.2031
1339.93	18.2446
1340.2	11.9659
1340.47	17.1943
1340.74	16.1477
1341.01	17.1932
1341.28	22.4226
1341.55	17.1933
1341.82	16.1461
1342.1	17.1891
1342.37	21.3667
1342.64	20.315
1342.91	17.1752
1343.18	19.2584
1343.45	18.2051
1343.73	17.1552
1344	18.1932
1344.27	19.2305
1344.54	18.1823
1344.81	19.2211
1345.08	16.0914
1345.35	19.2166
1345.63	18.1729
1345.9	15.0441
1346.17	17.1249
1346.44	13.9965
1346.71	17.1182
1346.98	18.1562
1347.25	18.1529
1347.52	19.1904
1347.8	13.9825
1348.07	16.0596
1348.34	18.1372
1348.61	16.0526
1348.88	16.051
1349.15	20.2098
1349.42	17.092
1349.69	18.1355
1349.96	16.0601
1350.24	21.2649
1350.51	19.199
1350.78	21.3048
1351.05	18.1617
1351.32	20.214
1351.59	16.0352
1351.86	16.0368
1352.13	18.117
1352.41	19.1497
1352.68	17.0678
1352.95	18.1118
1353.22	16.0365
1353.49	20.1878
1353.76	19.147
1354.03	19.1452
1354.3	20.1818
1354.57	17.064
1354.84	17.0612
1355.11	21.2104
1355.39	16.0172
1355.66	18.0897
1355.93	20.161
1356.2	18.0823
1356.47	18.0796
1356.74	17.0401
1357.01	20.1463
1357.28	15.9943
1357.55	18.0621
1357.82	18.0583
1358.09	14.949
1358.36	15.9844
1358.63	18.0554
1358.9	18.0543
1359.18	14.9453
1359.45	14.9435
1359.72	18.0482
1359.99	19.0827
1360.26	15.9773
1360.53	19.0866
1360.8	17.0176
1361.07	18.0554
1361.34	22.199
1361.61	19.09
1361.88	18.0522
1362.15	17.0135
1362.42	17.0097
1362.69	21.1458
1362.97	15.9667
1363.24	20.1014
1363.51	15.9592
1363.78	18.0227
1364.05	16.9828
1364.32	16.9796
1364.59	20.0781
1364.86	20.0801
1365.13	15.9472
1365.4	18.0155
1365.67	16.9828
1365.94	16.9837
1366.21	16.9849
1366.48	18.02
1366.75	16.9842
1367.02	13.8808
1367.29	19.0474
1367.56	19.0426
1367.83	15.94
1368.1	19.0363
1368.37	21.0967
1368.64	21.0896
1368.91	23.1455
1369.18	28.2949
1369.45	25.1909
1369.72	20.0288
1369.99	15.9017
1370.26	17.9609
1370.54	17.9585
1370.81	17.9565
1371.08	15.8941
1371.34	17.9535
1371.62	18.9824
1371.89	17.9507
1372.16	18.9783
1372.43	20.0088
1372.7	16.9207
1372.97	21.0409
1373.24	16.9214
1373.51	16.9171
1373.78	15.8832
1374.05	21.0252
1374.32	21.0153
1374.59	21.0176
1374.86	19.9933
1375.13	18.9711
1375.4	21.0406
1375.67	18.9913
1375.94	22.0878
1376.21	20.0251
1376.48	23.115
1376.75	24.1425
1377.02	21.0461
1377.29	22.0681
1377.56	21.0201
1377.83	19.9817
1378.09	18.9443
1378.36	24.0911
1378.64	21.0003
1378.91	25.102
1379.18	17.8978
1379.44	23.0247
1379.71	25.0694
1379.98	24.0332
1380.25	21.9748
1380.52	22.9935
1380.79	22.9895
1381.06	24.0108
1381.33	22.9863
1381.6	21.9626
1381.87	25.043
1382.14	25.0492
1382.41	24.0331
1382.68	27.1187
1382.95	25.0717
1383.22	27.1282
1383.49	21.9987
1383.76	28.1638
1384.03	28.1637
1384.3	28.1459
1384.57	29.1157
1384.84	36.2246
1385.11	39.2621
1385.38	39.3048
1385.65	49.6142
1385.92	61.9864
1386.19	87.6998
1386.45	135.961
1386.72	226.352
1386.99	357.692
1387.26	431.289
1387.53	301.883
1387.8	163.47
1388.07	91.6497
1388.34	57.8199
1388.61	45.5181
1388.88	41.4097
1389.15	30.1315
1389.42	26.0283
1389.69	24.9999
1389.96	21.925
1390.23	26.017
1390.49	19.873
1390.76	23.9649
1391.03	22.9395
1391.3	20.8912
1391.57	22.9362
1391.84	20.8888
1392.11	17.8207
1392.38	18.8471
1392.65	21.9201
1392.92	18.8503
1393.19	17.8262
1393.46	20.8953
1393.73	17.8225
1393.99	17.8201
1394.26	18.8399
1394.53	17.8134
1394.8	17.8115
1395.07	19.8567
1395.34	15.7663
1395.61	16.791
1395.88	20.8845
1396.15	16.793
1396.42	15.7723
1396.68	20.8911
1396.95	18.846
1397.22	16.7989
1397.49	17.8246
1397.76	21.9245
1398.03	15.783
1398.3	17.8306
1398.57	18.8566
1398.84	18.8565
1399.11	14.7645
1399.38	15.7975
1399.64	15.8071
1399.91	19.9186
1400.18	18.8987
1400.45	20.955
1400.72	18.9022
1400.99	20.9517
1401.26	16.836
1401.53	17.8641
1401.79	16.8367
1402.06	17.8606
1402.33	18.883
1402.6	16.8285
1402.87	16.8255
1403.14	18.8729
1403.41	18.8708
1403.68	17.8441
1403.94	17.8448
1404.21	17.846
1404.48	18.8727
1404.75	15.7981
1405.02	17.8495
1405.29	18.8758
1405.56	19.9022
1405.82	22.9801
1406.09	18.8798
1406.36	20.9327
1406.63	19.9086
1406.9	24.0129
1407.17	22.9875
1407.44	25.0344
1407.7	27.0784
1407.97	31.17
1408.24	31.1626
1408.51	34.2311
1408.78	38.3245
1409.05	32.1758
1409.31	29.1063
1409.58	25.0146
1409.85	21.9523
1410.12	19.9255
1410.39	24.0496
1410.66	18.8998
1410.92	17.8469
1411.19	19.901
1411.46	17.8618
1411.73	16.8445
1412	16.8432
1412.27	14.7905
1412.53	18.8972
1412.8	14.7908
1413.07	18.8991
1413.34	15.8201
1413.61	15.8216
1413.88	16.8503
1414.14	12.7433
1414.41	17.8816
1414.68	16.8561
1414.95	15.8295
1415.22	16.8574
1415.48	16.8579
1415.75	17.8865
1416.02	14.8035
1416.29	13.7762
1416.56	18.9129
1416.82	14.7997
1417.09	13.7694
1417.36	18.9021
1417.63	14.7908
1417.9	17.8675
1418.17	14.7847
1418.43	18.8886
1418.7	15.8103
1418.97	16.8407
1419.24	15.8196
1419.5	15.8246
1419.77	15.8329
1420.04	13.7883
1420.31	14.8307
1420.58	16.858
1420.84	17.839
1421.11	16.8214
1421.38	19.879
1421.65	16.8029
1421.92	15.7845
1422.18	18.8692
1422.45	14.7727
1422.72	17.8447
1422.99	13.7484
1423.26	14.7732
1423.52	13.7451
1423.79	12.7161
1424.06	15.788
1424.33	9.63423
1424.59	16.8015
1424.86	17.8198
1425.13	16.7928
1425.4	14.7438
1425.66	17.8156
1425.93	12.6968
1426.2	15.7699
1426.47	15.7717
1426.73	14.7497
1427	18.851
1427.27	15.7814
1427.54	14.7599
1427.81	18.8655
1428.07	14.7704
1428.34	16.828
1428.61	15.8047
1428.88	15.8049
1429.14	14.776
1429.41	15.7985
1429.68	14.7701
1429.94	14.7659
1430.21	16.8106
1430.48	16.8035
1430.75	16.7968
1431.02	15.7684
1431.28	16.7906
1431.55	14.7486
1431.82	15.777
1432.08	14.7529
1432.35	13.7283
1432.62	18.8516
1432.89	15.7767
1433.15	14.751
1433.42	15.7746
1433.69	14.7486
1433.96	15.7715
1434.22	13.7215
1434.49	15.7696
1434.76	13.7196
1435.02	14.7429
1435.29	14.7435
1435.56	15.7699
1435.83	14.747
1436.09	14.7475
1436.36	12.6991
1436.63	12.701
1436.89	15.7785
1437.16	13.7325
1437.43	17.8357
1437.7	16.8114
1437.96	13.7354
1438.23	16.8126
1438.5	16.8114
1438.77	12.7075
1439.03	16.807
1439.3	18.8611
1439.57	15.7853
1439.83	16.8141
1440.1	17.8378
1440.37	13.7332
1440.63	16.8068
1440.9	16.8051
1441.17	16.8043
1441.43	11.6793
1441.7	15.7844
1441.97	15.7881
1442.24	14.7676
1442.5	15.7923
1442.77	15.7907
1443.03	13.7378
1443.3	14.7623
1443.57	14.7611
1443.84	13.7344
1444.1	13.7332
1444.37	14.7572
1444.64	12.7047
1444.9	15.7789
1445.17	16.8037
1445.44	17.8319
1445.7	17.8361
1445.97	16.8115
1446.24	17.837
1446.5	14.7588
1446.77	14.7569
1447.04	13.7291
1447.3	15.777
1447.57	14.7505
1447.84	15.7743
1448.1	16.7979
1448.37	15.7717
1448.64	9.62167
1448.9	15.7684
1449.17	12.6935
1449.44	16.7909
1449.7	14.742
1449.97	14.7426
1450.24	12.6948
1450.5	15.7705
1450.77	13.721
1451.04	12.6952
1451.3	15.7685
1451.57	14.7437
1451.83	13.719
1452.1	15.768
1452.37	15.7669
1452.63	15.767
1452.9	15.7697
1453.17	13.7214
1453.43	16.7962
1453.7	14.7451
1453.97	18.8414
1454.23	14.7401
1454.5	14.7389
1454.77	15.7623
1455.03	15.7615
1455.3	14.7372
1455.56	13.713
1455.83	16.7872
1456.1	16.788
1456.36	16.7885
1456.63	14.7397
1456.9	16.7882
1457.16	12.6891
1457.43	13.7125
1457.69	12.687
1457.96	13.7098
1458.23	14.7321
1458.49	15.7542
1458.76	13.7041
1459.02	15.7492
1459.29	13.6992
1459.56	14.7197
1459.82	15.7396
1460.09	16.7588
1460.36	16.7547
1460.62	12.6614
1460.89	15.7277
1461.15	15.7322
1461.42	16.7627
1461.69	12.6746
1461.95	13.7042
1462.22	14.7197
1462.48	12.6486
1462.75	15.6997
1463.02	12.6358
1463.28	14.6814
1463.55	14.6804
1463.81	14.6739
1464.08	13.6512
1464.35	13.6527
1464.61	16.7123
1464.88	14.6708
1465.14	16.7102
1465.41	10.5895
1465.67	15.6893
1465.94	15.6884
1466.21	14.6669
1466.47	12.6255
1466.74	14.6622
1467	14.6587
1467.27	12.6175
1467.54	13.6346
1467.8	11.5952
1468.07	15.6695
1468.33	11.5926
1468.6	14.6457
1468.86	14.6436
1469.13	14.6424
1469.39	12.6052
1469.66	13.623
1469.93	15.6589
1470.19	14.6396
1470.46	14.6375
1470.72	15.653
1470.99	14.6333
1471.25	15.6497
1471.52	16.6672
1471.79	14.6331
1472.05	15.6518
1472.32	11.5807
1472.58	13.6158
1472.85	12.5969
1473.11	16.6654
1473.38	16.6637
1473.64	14.6273
1473.91	14.625
1474.17	13.6054
1474.44	13.6041
1474.71	13.6035
1474.97	13.6031
1475.24	14.6183
1475.5	13.5988
1475.77	13.5967
1476.03	14.6109
1476.3	10.5436
1476.56	13.5895
1476.83	14.6023
1477.09	14.5992
1477.36	15.6092
1477.62	13.5747
1477.89	11.5424
1478.15	14.585
1478.42	12.5536
1478.68	15.5981
1478.95	15.6005
1479.22	15.6032
1479.48	14.5912
1479.75	17.6392
1480.01	13.5781
1480.28	16.6258
1480.54	14.5959
1480.81	14.5959
1481.07	12.5645
1481.34	15.6047
1481.6	14.5817
1481.87	16.5933
1482.13	14.5464
1482.4	12.516
1482.66	12.5049
1482.93	14.5602
1483.19	15.5779
1483.46	14.571
1483.72	13.5418
1483.99	11.5223
1484.25	14.5645
1484.52	15.5731
1484.78	12.5307
1485.05	10.5034
1485.31	14.552
1485.58	14.5487
1485.84	14.545
1486.11	16.566
1486.37	15.5523
1486.64	14.5391
1486.9	12.5146
1487.17	17.5727
1487.43	14.5375
1487.7	14.5357
1487.96	14.5327
1488.22	15.5408
1488.49	15.5392
1488.75	14.5274
1489.02	14.5272
1489.28	14.5278
1489.55	13.5162
1489.81	13.5154
1490.08	14.5257
1490.34	14.5256
1490.61	12.5028
1490.87	15.5346
1491.14	15.5347
1491.4	14.5247
1491.67	13.5149
1491.93	13.5143
1492.19	15.5338
1492.46	11.4871
1492.72	16.5336
1492.99	15.5188
1493.25	12.4868
1493.52	12.485
1493.78	13.4928
1494.05	13.4907
1494.31	13.4905
1494.58	12.481
1494.84	14.4986
1495.1	12.4798
1495.37	15.5074
1495.63	12.4799
1495.9	13.4895
1496.16	10.462
1496.43	17.5282
1496.69	17.5296
1496.96	15.512
1497.22	15.5125
1497.48	13.4931
1497.75	12.483
1498.01	16.5206
1498.28	13.4906
1498.54	14.497
1498.81	13.4868
1499.07	15.5046
1499.34	14.4948
1499.6	14.4934
1499.86	15.499
1500.13	15.4957
1500.39	15.4939
1500.66	12.466
1500.92	14.4823
1501.18	11.4585
1501.45	17.5096
1501.71	14.4843
1501.98	11.4583
1502.24	13.4737
1502.5	13.4715
1502.77	16.4915
1503.03	12.4551
1503.3	14.4691
1503.56	13.4611
1503.83	13.4614
1504.09	13.4634
1504.35	15.4791
1504.62	14.472
1504.88	14.4718
1505.15	13.4631
1505.41	13.4622
1505.67	14.4699
1505.94	12.4551
1506.2	15.4782
1506.47	13.4626
1506.73	15.4776
1506.99	16.4869
1507.26	13.4647
1507.52	16.4849
1507.78	15.4742
1508.05	15.4705
1508.31	12.4453
1508.58	17.4731
1508.84	12.4337
1509.1	15.4435
1509.37	13.4258
1509.63	14.4245
1509.9	15.4249
1510.16	14.4172
1510.42	17.426
1510.69	12.4052
1510.95	14.4158
1511.21	18.4392
1511.48	13.4184
1511.74	14.4213
1512.01	11.4053
1512.27	15.4179
1512.53	15.4139
1512.8	14.4058
1513.06	18.4138
1513.32	13.3952
1513.59	11.3882
1513.85	14.3953
1514.11	15.3969
1514.38	14.3937
1514.64	14.3938
1514.9	17.4028
1515.17	13.3943
1515.43	13.395
1515.7	13.3958
1515.96	16.4058
1516.22	13.3976
1516.49	14.4018
1516.75	12.3958
1517.01	14.402
1517.28	13.3975
1517.54	13.3964
1517.8	16.4066
1518.07	14.4015
1518.33	15.4061
1518.59	17.4134
1518.86	15.4059
1519.12	15.4044
1519.38	15.4026
1519.65	13.3945
1519.91	13.393
1520.17	11.3851
1520.44	13.3867
1520.7	12.3792
1520.96	16.3831
1521.23	13.3746
1521.49	11.3692
1521.75	15.3725
1522.02	14.3726
1522.28	13.3718
1522.54	15.3752
1522.81	14.3756
1523.07	13.3763
1523.33	14.3819
1523.59	15.3871
1523.86	13.3835
1524.12	15.3879
1524.38	14.3834
1524.65	13.3802
1524.91	14.381
1525.17	13.3777
1525.44	16.3817
1525.7	14.3763
1525.96	14.3749
1526.23	17.379
1526.49	12.3704
1526.75	14.3727
1527.02	14.3702
1527.28	16.3721
1527.54	13.3691
1527.8	14.3734
1528.07	14.3762
1528.33	14.3784
1528.59	13.3766
1528.86	13.3756
1529.12	14.3779
1529.38	15.3777
1529.64	14.3773
1529.91	12.3765
1530.17	15.3887
1530.43	13.3876
1530.69	15.3956
1530.96	12.3873
1531.22	12.3871
1531.48	14.3925
1531.75	12.3853
1532.01	13.3868
1532.27	14.3883
1532.53	16.391
1532.8	13.3761
1533.06	17.3793
1533.32	15.3721
1533.59	13.3641
1533.85	13.359
1534.11	14.355
1534.37	18.3549
1534.64	14.3494
1534.9	18.3506
1535.16	16.3467
1535.42	14.3419
1535.69	12.3411
1535.95	14.3387
1536.21	13.3425
1536.48	12.3497
1536.74	14.3608
1537	14.3681
1537.26	14.374
1537.53	13.3778
1537.79	14.3841
1538.05	13.3831
1538.31	14.3797
1538.58	16.3838
1538.84	12.3707
1539.1	14.3713
1539.36	17.3724
1539.62	12.3611
1539.89	15.3615
1540.15	12.3552
1540.41	16.3548
1540.67	14.3487
1540.94	12.3434
1541.2	13.344
1541.46	11.3443
1541.72	17.3486
1541.98	13.3512
1542.25	17.3574
1542.51	10.3555
1542.77	16.3666
1543.03	16.3686
1543.3	13.3652
1543.56	12.3626
1543.82	15.3682
1544.08	13.3662
1544.35	14.3696
1544.61	15.3732
1544.87	13.3663
1545.13	14.3603
1545.39	14.3602
1545.66	12.3578
1545.92	13.3636
1546.18	15.3528
1546.44	15.3365
1546.71	15.3326
1546.97	16.341
1547.23	13.3544
1547.49	13.3748
1547.75	15.3965
1548.02	12.3984
1548.28	15.4015
1548.54	15.403
1548.8	14.3961
1549.06	15.3947
1549.33	16.4054
1549.59	14.4035
1549.85	13.3971
1550.11	14.3975
1550.37	16.3933
1550.64	14.3842
1550.9	15.386
1551.16	13.377
1551.42	13.3731
1551.68	14.3708
1551.94	15.3674
1552.21	15.3653
1552.47	15.3642
1552.73	14.3622
1552.99	13.3612
1553.25	16.3668
1553.52	15.3624
1553.78	18.3674
1554.04	14.3616
1554.3	15.3642
1554.56	14.3625
1554.82	13.3599
1555.09	16.3621
1555.35	18.3593
1555.61	14.3507
1555.87	14.3457
1556.13	12.3404
1556.39	16.3374
1556.65	10.3343
1556.92	14.3312
1557.18	11.3303
1557.44	14.3274
1557.7	11.328
1557.96	15.3245
1558.22	17.3228
1558.49	13.3263
1558.75	12.3291
1559.01	15.3318
1559.27	13.3362
1559.53	16.3366
1559.79	15.3356
1560.05	15.3342
1560.32	14.3348
1560.58	11.3334
1560.84	16.332
1561.1	15.3373
1561.36	12.3414
1561.62	14.3444
1561.88	14.3434
1562.15	13.3355
1562.41	14.3105
1562.67	12.2833
1562.93	16.2447
1563.19	14.3149
1563.45	13.3327
1563.71	15.3249
1563.98	15.3142
1564.24	14.3267
1564.5	16.3409
1564.76	14.3366
1565.02	17.325
1565.28	14.3277
1565.54	14.3296
1565.8	15.3305
1566.07	15.3291
1566.33	13.3242
1566.59	17.3183
1566.85	13.3211
1567.11	15.3209
1567.37	18.3193
1567.63	13.3224
1567.89	13.322
1568.15	14.3206
1568.42	13.32
1568.68	14.3169
1568.94	16.312
1569.2	10.318
1569.46	17.308
1569.72	10.3144
1569.98	15.305
1570.24	15.3027
1570.5	14.3019
1570.77	14.2997
1571.03	15.2979
1571.29	15.3005
1571.55	13.307
1571.81	16.3061
1572.07	14.3123
1572.33	13.3165
1572.59	14.3182
1572.85	14.3188
1573.11	14.3176
1573.37	16.3158
1573.64	15.3147
1573.9	15.3098
1574.16	13.3068
1574.42	12.3037
1574.68	15.2927
1574.94	15.2877
1575.2	14.2858
1575.46	17.2739
1575.72	15.2789
1575.98	16.2755
1576.24	14.2814
1576.5	12.2876
1576.76	14.2821
1577.03	12.2898
1577.29	14.285
1577.55	15.2824
1577.81	11.2929
1578.07	14.2827
1578.33	14.2803
1578.59	14.2783
1578.85	11.2855
1579.11	17.2612
1579.37	15.2672
1579.63	14.2698
1579.89	15.2647
1580.15	16.2597
1580.41	14.267
1580.67	13.2705
1580.93	14.2649
1581.19	13.2688
1581.46	16.2579
1581.72	15.2628
1581.98	14.2672
1582.24	13.2708
1582.5	18.2502
1582.76	16.2576
1583.02	16.2559
1583.28	15.2563
1583.54	13.2614
1583.8	15.2495
1584.06	15.2473
1584.32	14.2505
1584.58	14.2491
1584.84	15.2432
1585.1	14.2482
1585.36	15.2442
1585.62	18.2312
1585.88	15.248
1586.14	15.2497
1586.4	16.247
1586.66	14.2572
1586.92	15.2533
1587.18	14.2574
1587.44	12.267
1587.7	13.2642
1587.96	14.2612
1588.22	16.2525
1588.48	14.2605
1588.74	12.2677
1589	14.2578
1589.26	15.25
1589.52	13.2546
1589.78	13.2514
1590.04	11.2596
1590.3	12.2498
1590.56	13.2388
1590.82	15.2204
1591.08	13.2296
1591.34	15.2141
1591.6	15.214
1591.86	15.2156
1592.12	17.2057
1592.38	15.2205
1592.64	14.2268
1592.9	13.2268
1593.16	15.2129
1593.42	15.2127
1593.68	14.2195
1593.94	15.2131
1594.2	13.2274
1594.46	16.2087
1594.72	14.223
1594.98	14.2225
1595.24	13.2276
1595.5	15.2115
1595.76	16.2002
1596.02	14.2107
1596.28	15.2004
1596.54	13.213
1596.8	13.2106
1597.06	13.2082
1597.32	13.2059
1597.58	17.1698
1597.84	16.1741
1598.1	14.1867
1598.36	14.1818
1598.62	14.1771
1598.88	15.1633
1599.14	14.17
1599.4	13.1773
1599.66	15.1535
1599.92	19.1071
1600.18	16.1353
1600.44	13.1653
1600.7	15.1411
1600.96	13.1622
1601.22	13.1618
1601.48	14.1506
1601.73	15.1396
1601.99	18.106
1602.25	13.1623
1602.51	15.1403
1602.77	16.1303
1603.03	12.1759
1603.29	14.1557
1603.55	16.136
1603.81	15.1482
1604.07	13.1704
1604.33	15.1496
1604.59	15.1493
1604.85	12.1803
1605.11	16.1377
1605.37	16.1373
1605.63	13.1687
1605.89	15.1462
1606.14	14.1531
1606.4	15.1373
1606.66	13.1564
1606.92	15.1289
1607.18	15.1221
1607.44	15.0695
1607.7	11.2585
1607.96	14.1162
1608.22	15.0037
1608.48	16.936
1608.74	15.145
1609	13.343
1609.26	15.0903
1609.51	12.5853
1609.77	16.8599
1610.03	14.4043
1610.29	12.969
1610.55	13.0326
1610.81	16.5417
1611.07	15.8388
1611.33	14.2309
1611.59	14.901
1611.85	14.3405
1612.11	14.4568
1612.36	14.9324
1612.62	14.037
1612.88	14.9481
1613.14	16.1551
1613.4	13.7695
1613.66	14.4758
1613.92	14.9949
1614.18	15.1081
1614.44	13.9357
1614.7	14.6431
1614.95	14.5167
1615.21	13.8054
1615.47	14.2476
1615.73	16.5628
1615.99	15.22
1616.25	14.219
1616.51	12.7892
1616.77	15.7487
1617.03	14.744
1617.28	15.6975
1617.54	14.8342
1617.8	12.9872
1618.06	14.4088
1618.32	15.9104
1618.58	13.6305
1618.84	15.4281
1619.1	15.5117
1619.35	14.1123
1619.61	14.5963
1619.87	13.234
1620.13	14.7875
1620.39	14.6449
1620.65	14.8378
1620.91	14.2316
1621.17	15.4671
1621.42	13.9755
1621.68	13.0411
1621.94	14.597
1622.2	15.692
1622.46	14.3416
1622.72	13.664
1622.98	14.7013
1623.23	14.1289
1623.49	15.6932
1623.75	14.8382
1624.01	15.1853
1624.27	16.1218
1624.53	15.2119
1624.79	12.8793
1625.04	15.2756
1625.3	13.9907
1625.56	14.9637
1625.82	16.1016
1626.08	16.7144
1626.34	15.5768
1626.59	15.5055
1626.85	14.1154
1627.11	17.1727
1627.37	15.7272
1627.63	14.0897
1627.89	14.7588
1628.14	13.9241
1628.4	13.7725
1628.66	17.2135
1628.92	15.738
1629.18	16.2995
1629.44	13.9876
1629.69	14.6663
1629.95	11.3275
1630.21	13.4716
1630.47	15.4683
1630.73	13.2492
1630.99	15.2494
1631.24	14.8734
1631.29	14.7181
1631.55	13.7326
1631.81	15.7037
1632.07	14.7173
1632.33	12.7449
1632.59	14.7147
1632.86	15.6985
1633.12	14.7109
1633.38	14.7087
1633.64	15.6915
1633.9	15.6888
1634.16	13.716
1634.42	14.6981
1634.68	15.6811
1634.95	13.7107
1635.21	15.6779
1635.47	13.7071
1635.73	12.7216
1635.99	15.6743
1636.25	17.6425
1636.51	14.6889
1636.77	16.657
1637.03	16.6561
1637.3	14.6865
1637.56	17.6404
1637.82	13.7048
1638.08	17.6447
1638.34	15.675
1638.6	16.6578
1638.86	15.6712
1639.12	14.6852
1639.39	15.6684
1639.65	16.6516
1639.91	14.6818
1640.17	15.6651
1640.43	15.6644
1640.69	11.7262
1640.95	14.6772
1641.21	16.6432
1641.47	13.6882
1641.73	13.6864
1641.99	16.6368
1642.25	16.6386
1642.52	15.6557
1642.78	14.6725
1643.04	15.6556
1643.3	12.7015
1643.56	16.635
1643.82	13.6816
1644.08	14.6641
1644.34	15.6453
1644.6	15.6434
1644.86	16.6248
1645.12	15.6412
1645.38	14.6578
1645.65	14.6604
1645.91	16.6305
1646.17	12.7024
1646.43	12.7016
1646.69	15.6534
1646.95	16.6351
1647.21	14.6668
1647.47	12.7024
1647.73	12.704
1647.99	15.6615
1648.25	15.6638
1648.51	13.6943
1648.77	13.6943
1649.03	16.6501
1649.29	16.6497
1649.55	14.6791
1649.82	16.6471
1650.08	13.6891
1650.34	19.5995
1650.6	18.6141
1650.86	15.6587
1651.12	16.6454
1651.38	13.6894
1651.64	16.646
1651.9	13.69
1652.16	12.7057
1652.42	15.666
1652.68	14.684
1652.94	15.6754
1653.2	14.6913
1653.46	15.6798
1653.72	14.6934
1653.98	14.6934
1654.24	15.6794
1654.5	13.7034
1654.76	10.7408
1655.02	16.6607
1655.28	14.6853
1655.54	15.6698
1655.81	13.6941
1656.07	13.6916
1656.33	16.6478
1656.58	12.7006
1656.84	15.6557
1657.11	12.6957
1657.37	13.6823
1657.63	14.6696
1657.89	15.6577
1658.15	13.6873
1658.41	18.6222
1658.67	15.6647
1658.93	14.6793
1659.19	14.6746
1659.45	15.6591
1659.71	15.6852
1659.97	11.7385
1660.23	16.6746
1660.49	15.6855
1660.75	12.7074
1661.01	15.6526
1661.27	12.7036
1661.53	12.7052
1661.79	16.6574
1662.05	13.7011
1662.31	14.6872
1662.57	14.665
1662.83	16.6453
1663.09	14.698
1663.35	14.6978
1663.61	13.7104
1663.87	14.6531
1664.13	14.6467
1664.39	16.6464
1664.65	15.6554
1664.91	16.6398
1665.17	15.6503
1665.43	12.6881
1665.69	15.6489
1665.95	15.6577
1666.21	16.6511
1666.47	16.6518
1666.72	15.664
1666.99	15.6641
1667.25	14.6731
1667.51	15.6629
1667.76	16.6601
1668.02	13.6963
1668.28	12.7059
1668.54	15.6698
1668.8	15.6686
1669.06	14.6811
1669.32	12.7045
1669.58	14.6815
1669.84	14.6807
1670.1	16.6574
1670.36	14.6803
1670.62	12.7033
1670.88	18.6359
1671.14	14.6823
1671.4	14.6839
1671.66	17.6523
1671.92	12.7082
1672.18	14.6892
1672.44	13.701
1672.7	13.7016
1672.96	15.6802
1673.22	14.6899
1673.48	14.6902
1673.74	13.7007
1674	16.6697
1674.25	14.6893
1674.51	13.6982
1674.77	13.6964
1675.03	14.6832
1675.29	13.6905
1675.55	13.687
1675.81	15.6619
1676.07	15.6594
1676.33	14.6685
1676.59	15.6554
1676.85	16.6417
1677.11	13.6746
1677.37	14.6613
1677.63	11.6949
1677.89	13.6693
1678.15	12.6798
1678.4	14.6546
1678.66	13.666
1678.92	13.6654
1679.18	18.6045
1679.44	15.6404
1679.7	15.6401
1679.96	14.651
1680.22	15.6381
1680.48	16.6253
1680.74	12.6732
1681	14.6479
1681.25	12.6707
1681.51	14.6437
1681.77	12.667
1682.03	13.6534
1682.29	14.64
1682.55	15.6267
1682.81	15.6262
1683.07	14.6384
1683.33	14.6384
1683.59	13.652
1683.84	12.6661
1684.1	13.6545
1684.36	13.654
1684.62	13.6523
1684.88	16.6133
1685.14	12.6606
1685.4	16.6089
1685.66	13.6444
1685.92	12.6543
1686.18	12.6513
1686.43	13.6355
1686.69	12.646
1686.95	14.6158
1687.21	15.5984
1687.47	13.6264
1687.73	14.6149
1687.99	11.6562
1688.25	13.63
1688.51	15.6036
1688.76	15.6053
1689.02	16.5926
1689.28	15.6049
1689.54	15.6034
1689.8	13.6267
1690.06	15.5967
1690.32	15.5924
1690.58	15.5876
1690.84	14.5967
1691.09	16.5649
1691.35	15.5756
1691.61	13.6017
1691.87	14.5845
1692.13	14.5843
1692.39	14.5848
1692.64	14.585
1692.9	14.5854
1693.16	12.6154
1693.42	16.5587
1693.68	12.6172
1693.94	13.6017
1694.2	14.5851
1694.46	16.5518
1694.71	14.5771
1694.97	16.5422
1695.23	13.5851
1695.49	16.5352
1695.75	13.5796
1696.01	14.5615
1696.26	14.5602
1696.52	13.5756
1696.78	14.5599
1697.04	13.5754
1697.3	13.5746
1697.56	16.5232
1697.81	13.5708
1698.07	14.5534
1698.33	14.552
1698.59	11.5992
1698.85	13.5635
1699.11	15.5268
1699.37	13.5574
1699.62	15.5199
1699.88	12.569
1700.14	15.5158
1700.4	12.5669
1700.66	14.5306
1700.91	11.5814
1701.17	15.5105
1701.43	15.5116
1701.69	15.5127
1701.95	10.599
1702.21	13.5457
1702.46	10.5969
1702.72	15.5093
1702.98	13.5431
1703.24	16.4873
1703.5	15.5011
1703.75	13.5331
1704.01	14.5108
1704.27	14.5069
1704.53	16.4655
1704.79	11.5558
1705.04	13.5129
1705.3	12.5278
1705.56	13.5031
1705.82	14.4775
1706.08	12.514
1706.33	11.5318
1706.59	13.4879
1706.85	13.4866
1707.11	13.486
1707.37	14.4648
1707.62	12.5068
1707.88	15.445
1708.14	15.4465
1708.4	14.4681
1708.66	12.51
1708.91	13.4898
1709.17	13.489
1709.43	12.5072
1709.69	11.5235
1709.95	14.4541
1710.2	16.4036
1710.46	13.4639
1710.72	13.4579
1710.98	14.4304
1711.23	13.4506
1711.49	13.4485
1711.75	14.4236
1712.01	13.4456
1712.27	13.4451
1712.52	13.4481
1712.78	13.4494
1713.04	13.4484
1713.3	13.4466
1713.55	15.3975
1713.81	12.4637
1714.07	15.3884
1714.33	13.4303
1714.58	13.4239
1714.84	15.3666
1715.1	13.4108
1715.36	16.3277
1715.61	13.4007
1715.87	15.345
1716.13	16.3166
1716.39	13.3953
1716.64	13.3944
1716.9	15.3401
1717.16	12.4206
1717.42	13.3936
1717.68	13.3914
1717.93	14.3616
1718.19	12.4107
1718.45	13.381
1718.71	15.3229
1718.96	11.429
1719.22	13.3701
1719.48	13.3661
1719.74	14.334
1719.99	15.3017
1720.25	13.3554
1720.51	12.3817
1720.76	16.2641
1721.02	11.4085
1721.28	15.2905
1721.54	15.2894
1721.79	14.3151
1722.05	14.3104
1722.31	13.334
1722.56	15.2683
1722.82	13.3235
1723.08	16.2276
1723.34	14.2878
1723.59	12.3501
1723.85	11.3792
1724.11	13.3142
1724.37	13.3094
1724.62	13.3098
1724.88	16.2183
1725.14	14.2786
1725.39	15.2434
1725.65	15.2337
1725.91	13.2779
1726.17	12.2949
1726.42	11.3265
1726.68	13.2636
1726.94	12.3035
1727.19	14.2367
1727.45	12.2975
1727.71	13.2596
1727.96	12.2968
1728.22	14.2392
1728.48	13.2731
1728.74	12.3062
1728.99	12.3053
1729.25	11.3375
1729.51	12.3022
1729.76	12.3002
1730.02	12.2976
1730.28	13.26
1730.53	14.2206
1730.79	13.2491
1731.05	13.2436
1731.3	13.2391
1731.56	12.2704
1731.82	13.2297
1732.08	13.2249
1732.33	13.2202
1732.59	13.2163
1732.85	14.1759
1733.1	14.1736
1733.36	15.1343
1733.62	14.1696
1733.87	16.0918
1734.13	10.3163
1734.39	14.1622
1734.64	13.1981
1734.9	15.1192
1735.16	13.1927
1735.41	13.1894
1735.67	14.1473
1735.93	9.33916
1736.18	14.1397
1736.44	14.1349
1736.7	13.1687
1736.95	13.1622
1737.21	14.1155
1737.47	14.1098
1737.72	15.0638
1737.98	16.0181
1738.24	12.1816
1738.49	13.1364
1738.75	13.1332
1739.01	14.0883
1739.26	12.1716
1739.52	14.0854
1739.78	13.1261
1740.03	12.1671
1740.29	10.2517
1740.54	14.0796
1740.8	12.1631
1741.06	10.2462
1741.31	12.1576
1741.57	15.0247
1741.83	14.0673
1742.08	15.0233
1742.34	13.1101
1742.6	14.0659
1742.85	14.0645
1743.11	14.0619
1743.36	12.1461
1743.62	15.9656
1743.88	13.0935
1744.13	14.0458
1744.39	13.0857
1744.65	14.0376
1744.9	11.1697
1745.16	13.0777
1745.42	12.1225
1745.67	14.0314
1745.93	13.0769
1746.18	12.1227
1746.44	14.0334
1746.7	13.0804
1746.95	13.0826
1747.21	13.0851
1747.46	14.0433
1747.72	13.0897
1747.98	12.134
1748.23	13.091
1748.49	13.0903
1748.74	12.1317
1749	14.0385
1749.26	14.9892
1749.51	11.1652
1749.77	15.9365
1750.02	10.2046
1750.28	15.9285
1750.54	13.0623
1750.79	14.0137
1751.05	11.149
1751.31	14.0071
1751.56	12.0967
1751.82	13.0478
1752.07	13.0456
1752.33	13.9967
1752.59	14.9473
1752.84	13.0384
1753.1	13.9876
1753.35	13.9836
1753.61	13.027
1753.86	13.0223
1754.12	13.0178
1754.38	12.0628
1754.63	13.9632
1754.89	11.1084
1755.14	13.9631
1755.4	12.063
1755.66	12.0633
1755.91	13.9662
1756.17	13.0143
1756.42	14.9173
1756.68	13.014
1756.93	11.1099
1757.19	14.9146
1757.44	16.8157
1757.7	13.9595
1757.96	14.9084
1758.21	14.9053
1758.47	13.0002
1758.72	10.1454
1758.98	12.9957
1759.23	14.8952
1759.49	13.9447
1759.75	13.9464
1760	14.8979
1760.26	12.9957
1760.51	14.8965
1760.77	12.0441
1761.02	13.9465
1761.28	11.0945
1761.53	13.9512
1761.79	10.1484
1762.05	14.9083
1762.3	15.8615
1762.56	13.9584
1762.81	13.0067
1763.07	12.0545
1763.32	13.9581
1763.58	13.9569
1763.83	14.9071
1764.09	12.0504
1764.34	13.0013
1764.6	13.9513
1764.85	12.997
1765.11	12.0434
1765.37	13.944
1765.62	13.9432
1765.88	13.9403
1766.13	12.982
1766.39	12.0246
1766.64	13.917
1766.9	11.0654
1767.15	12.9647
1767.41	12.9686
1767.66	11.0696
1767.92	12.9696
1768.17	12.9704
1768.43	14.8756
1768.68	12.0273
1768.94	15.8309
1769.19	12.9789
1769.45	12.9809
1769.7	13.9345
1769.96	14.8874
1770.21	12.0338
1770.47	12.9865
1770.72	14.8909
1770.98	13.9399
1771.23	12.9885
1771.49	12.9887
1771.74	13.9411
1772	12.0382
1772.26	14.8957
1772.51	14.8988
1772.76	13.9522
1773.02	13.9545
1773.27	13.0022
1773.53	14.9085
1773.78	13.0004
1774.04	16.8106
1774.29	12.9955
1774.55	12.0406
1774.8	15.8486
1775.06	14.8928
1775.31	12.9848
1775.57	12.0297
1775.82	12.9785
1776.08	13.9262
1776.33	12.9707
1776.59	12.9687
1776.84	12.9691
1777.1	12.02
1777.35	12.0203
1777.61	12.9726
1777.86	12.9733
1778.12	12.9738
1778.37	13.9257
1778.63	12.974
1778.88	13.927
1779.13	12.0239
1779.39	15.8357
1779.65	15.8386
1779.9	14.8875
1780.15	14.8888
1780.41	11.0777
1780.66	13.9383
1780.92	12.9864
1781.17	14.8949
1781.43	14.8975
1781.68	11.0848
1781.94	15.8561
1782.19	12.04
1782.45	13.9476
1782.7	13.9462
1782.95	12.9902
1783.21	12.0349
1783.46	12.0349
1783.72	14.8978
1783.97	14.9
1784.23	13.9486
1784.48	11.0881
1784.74	13.9582
1784.99	13.9663
1785.24	13.975
1785.5	13.0258
1785.75	13.9869
1786.01	13.0315
1786.26	13.9927
1786.52	11.1227
1786.77	12.0828
1787.03	12.0839
1787.28	13.0437
1787.54	9.20977
1787.79	14.0024
1788.04	13.0429
1788.3	13.0363
1788.55	12.0729
1788.81	13.0289
1789.06	11.1123
1789.31	12.0698
1789.57	14.9429
1789.82	13.0282
1790.08	13.0292
1790.33	14.9458
1790.59	13.029
1790.84	13.9879
1791.09	13.9885
1791.35	13.9889
1791.6	13.9869
1791.86	13.9849
1792.11	13.9923
1792.36	13.0425
1792.62	13.0477
1792.87	12.09
1793.13	14.0118
1793.38	13.0536
1793.64	13.0557
1793.89	12.0972
1794.14	14.0209
1794.4	15.945
1794.65	13.0635
1794.9	14.0259
1795.16	13.0656
1795.41	14.0278
1795.67	15.9511
1795.92	12.1042
1796.17	11.1413
1796.43	14.985
1796.68	14.982
1796.94	14.0174
1797.19	13.0537
1797.44	13.0514
1797.7	13.0495
1797.95	14.9691
1798.21	12.0863
1798.46	13.046
1798.71	14.0062
1798.97	12.0852
1799.22	13.0463
1799.47	12.0865
1799.73	14.9704
1799.98	13.0505
1800.24	14.9753
1800.49	13.0552
1800.74	12.095
1801	13.0571
1801.25	13.0573
1801.5	13.059
1801.76	14.0232
1802.01	13.063
1802.27	10.1781
1802.52	13.0686
1802.77	13.0713
1803.03	13.0735
1803.28	15.002
1803.53	14.0403
1803.79	13.078
1804.04	14.0422
1804.29	15.0058
1804.55	12.114
1804.8	15.005
1805.05	14.0409
1805.31	12.113
1805.56	14.0406
1805.81	11.1488
1806.07	15.0046
1806.32	12.1127
1806.58	9.22056
1806.83	12.1128
1807.08	14.041
1807.34	14.041
1807.59	13.0763
1807.84	13.075
1808.1	13.074
1808.35	13.0734
1808.6	13.0726
1808.86	14.0361
1809.11	14.0359
1809.36	14.0364
1809.62	12.109
1809.87	12.1105
1810.12	14.0413
1810.38	12.1129
1810.63	12.1135
1810.88	15.9748
1811.14	12.1175
1811.39	12.1202
1811.64	14.0552
1811.9	14.0586
1812.15	13.0946
1812.4	14.0622
1812.65	15.9956
1812.91	11.1635
1813.16	13.0967
1813.41	11.1636
1813.67	16.9645
1813.92	15.0306
1814.17	14.063
1814.43	14.0585
1814.68	12.1192
1814.93	13.0823
1815.19	15.0148
1815.44	15.0175
1815.69	14.0552
1815.95	13.0886
1816.2	12.1218
1816.45	13.0888
1816.7	14.0567
1816.96	12.1242
1817.21	12.1249
1817.46	15.9938
1817.72	12.1272
1817.97	14.0622
1818.22	15.9978
1818.47	15.9997
1818.73	13.099
1818.98	14.0681
1819.23	13.1013
1819.49	14.0699
1819.74	14.0702
1819.99	12.1345
1820.24	13.1026
1820.5	13.1014
1820.75	13.0997
1821	12.13
1821.26	13.0977
1821.51	13.0984
1821.76	14.0671
1822.01	14.0679
1822.27	13.1007
1822.52	14.07
1822.77	14.0703
1823.03	14.0699
1823.28	12.1324
1823.53	14.0693
1823.78	12.1321
1824.04	12.132
1824.29	12.1325
1824.54	14.0706
1824.79	11.1653
1825.05	13.1037
1825.3	11.1649
1825.55	11.164
1825.8	12.1308
1826.06	12.1285
1826.31	11.1587
1826.56	13.0949
1826.81	14.0623
1827.07	12.1241
1827.32	13.0901
1827.57	13.0884
1827.82	11.1502
1828.08	11.1504
1828.33	14.0563
1828.58	13.0893
1828.83	14.0592
1829.09	13.0917
1829.34	15.0306
1829.59	13.0944
1829.84	15.0353
1830.1	13.0978
1830.35	15.0357
1830.6	16.9744
1830.85	16.0064
1831.11	14.0674
1831.36	12.1288
1831.61	11.1544
1831.86	14.0532
1832.12	14.0461
1832.37	15.9748
1832.62	13.0679
1832.87	12.0968
1833.13	14.0313
1833.38	15.0004
1833.63	13.1272
1833.88	12.1344
1834.13	11.1507
1834.39	13.0844
1834.64	13.0734
1834.89	13.0645
1835.14	13.0504
1835.39	13.0441
1835.65	14.9797
1835.9	13.0704
1836.15	14.0442
1836.4	13.0793
1836.65	14.0492
1836.91	13.0819
1837.16	12.1125
1837.41	13.0677
1837.66	13.059
1837.92	14.018
1838.17	13.0441
1838.42	13.0375
1838.67	14.9627
1838.92	12.0603
1839.18	13.9854
1839.43	12.0509
1839.68	13.9769
1839.93	13.9784
1840.18	9.15423
1840.43	13.9778
1840.69	14.9417
1840.94	15.9053
1841.19	11.0809
1841.44	12.0454
1841.7	9.15209
1841.95	13.0097
1842.2	13.0078
1842.45	13.0078
1842.7	13.9737
1842.95	11.0839
1843.2	13.0192
1843.46	14.9572
1843.71	12.0623
1843.96	13.9826
1844.21	13.9606
1844.46	12.9798
1844.72	13.939
1844.97	12.9783
1845.22	12.0212
1845.47	12.9857
1845.72	12.0165
1845.97	13.9397
1846.23	12.9758
1846.48	12.0098
1846.73	13.9302
1846.98	13.9255
1847.23	12.9585
1847.48	13.9149
1847.74	14.8715
1847.99	13.9065
1848.24	12.9424
1848.49	13.9001
1848.74	10.0564
1848.99	14.8563
1849.25	14.8554
1849.5	12.9344
1849.75	12.9339
1850	11.0128
1850.25	11.972
1850.5	12.9308
1850.75	12.9286
1851.01	13.8848
1851.26	14.8397
1851.51	13.875
1851.76	12.9122
1852.01	11.9513
1852.26	11.9485
1852.51	12.9021
1852.76	13.8559
1853.02	13.8535
1853.27	12.894
1853.52	11.9353
1853.77	12.8927
1854.02	13.8497
1854.27	14.8063
1854.52	14.8041
1854.78	12.8868
1855.03	14.7995
1855.28	13.8392
1855.53	12.8786
1855.78	15.7456
1856.03	12.8716
1856.28	13.8242
1856.53	13.8201
1856.79	10.9498
1857.04	14.7737
1857.29	13.8169
1857.54	12.8619
1857.79	11.9079
1858.04	11.9091
1858.29	12.8671
1858.54	13.8261
1858.79	13.8275
1859.04	14.7842
1859.3	13.8255
1859.55	11.909
1859.8	11.9058
1860.05	14.7712
1860.3	12.8551
1860.55	11.8958
1860.8	12.8484
1861.05	12.8455
1861.3	15.7085
1861.56	13.795
1861.81	11.882
1862.06	10.9241
1862.31	11.8751
1862.56	15.6876
1862.81	13.7739
1863.06	12.8143
1863.31	14.7145
1863.56	14.7076
1863.81	11.8442
1864.06	11.8386
1864.32	10.8818
1864.57	12.7795
1864.82	10.8739
1865.07	12.7735
1865.32	12.7716
1865.57	14.6717
1865.82	9.91854
1866.07	12.7708
1866.32	13.7205
1866.57	11.8179
1866.82	12.7672
1867.07	13.7165
1867.32	10.8638
1867.57	13.7141
1867.83	14.6635
1868.08	14.6627
1868.33	12.7612
1868.58	13.7098
1868.83	13.7075
1869.08	14.6545
1869.33	13.7026
1869.58	11.801
1869.83	12.7476
1870.08	14.6434
1870.33	14.6414
1870.58	11.7925
1870.83	11.7908
1871.08	12.7374
1871.33	13.6832
1871.58	13.6795
1871.84	14.6238
1872.08	8.93055
1872.33	11.7712
1872.59	14.61
1872.84	13.6562
1873.09	14.5948
1873.34	12.6968
1873.59	12.6926
1873.84	12.6894
1874.09	11.7405
1874.34	12.6783
1874.59	12.6684
1874.84	12.6579
1875.09	12.6793
1875.34	11.7665
1875.59	12.6908
1875.84	14.5805
1876.09	13.6358
1876.34	13.6482
1876.59	11.7558
1876.84	11.7509
1877.09	14.5881
1877.34	13.6403
1877.59	12.6931
1877.84	13.6412
1878.09	11.7443
1878.34	11.7422
1878.59	13.6285
1878.84	14.5667
1879.09	14.5587
1879.34	17.3841
1879.59	13.5964
1879.84	14.5315
1880.1	11.6956
1880.34	13.6015
1880.59	15.5454
1880.84	9.81604
1881.1	13.5678
1881.34	14.5142
1881.59	12.6316
1881.84	12.6277
1882.1	11.6897
1882.34	13.5807
1882.59	15.4692
1882.85	9.80989
1883.1	13.5901
1883.34	13.5925
1883.59	12.6486
1883.85	11.7011
1884.09	11.6964
1884.34	12.6369
1884.59	13.5768
1884.84	12.6296
1885.09	13.5688
1885.34	13.5638
1885.59	14.5004
1885.84	10.7269
1886.09	12.6063
1886.34	14.4853
1886.59	12.6006
1886.84	12.5993
1887.09	12.5988
1887.34	11.6587
1887.59	15.428
1887.84	11.6627
1888.09	11.6626
1888.34	11.6612
1888.59	11.6601
1888.84	15.4261
1889.09	9.77444
1889.34	14.482
1889.59	13.5387
1889.84	12.5945
1890.09	13.5322
1890.34	12.5847
1890.59	11.6368
1890.84	11.6313
1891.09	13.5125
1891.34	12.5704
1891.59	14.4454
1891.84	11.6243
1892.09	14.4418
1892.34	15.3815
1892.59	13.5032
1892.83	13.5042
1893.08	13.5053
1893.33	12.5668
1893.58	14.4488
1893.83	10.69
1894.08	12.572
1894.33	12.5731
1894.58	15.3955
1894.83	10.6921
1895.08	11.632
1895.33	14.4523
1895.58	16.3307
1895.83	12.566
1896.08	12.5623
1896.33	13.4985
1896.58	14.4357
1896.83	11.6149
1897.08	11.6126
1897.32	12.5504
1897.57	15.3678
1897.82	10.6712
1898.07	11.6115
1898.32	11.6134
1898.57	14.4349
1898.82	15.3775
1899.07	14.4398
1899.32	11.6217
1899.57	11.6228
1899.82	11.6218
1900.07	13.5015
1900.31	10.6779
1900.57	12.557
1900.81	13.4958
1901.06	12.5542
1901.31	12.5532
1901.56	14.4327
1901.81	15.3718
1902.06	10.6699
1902.31	12.5493
1902.56	12.5486
1902.81	11.607
1903.06	12.5412
1903.31	11.5984
1903.55	13.4749
1903.8	12.5337
1904.05	15.3493
1904.3	9.71372
1904.55	15.3483
1904.8	12.531
1905.05	11.5939
1905.3	12.5345
1905.55	12.5348
1905.79	13.4747
1906.04	15.3554
1906.29	13.4779
1906.54	12.5403
1906.79	9.72226
1907.04	10.6655
1907.29	15.3735
1907.54	13.496
1907.79	11.6162
1908.04	14.4433
1908.28	11.6192
1908.53	12.5616
1908.78	16.3293
1909.03	11.6186
1909.28	10.6751
1909.53	10.6741
1909.78	12.5572
1910.03	12.5567
1910.27	11.6144
1910.52	11.6146
1910.77	12.5587
1911.02	14.4472
1911.27	10.6803
1911.52	13.5106
1911.77	13.5132
1912.02	13.5157
1912.26	14.4613
1912.51	11.6317
1912.76	13.5188
1913.01	11.6304
1913.26	10.6852
1913.51	13.515
1913.76	14.4548
1914	13.5082
1914.25	12.5626
1914.5	12.5603
1914.75	12.5587
1915	13.5003
1915.25	11.6153
1915.49	13.5028
1915.74	12.5625
1915.99	13.509
1916.24	10.6816
1916.49	12.5728
1916.74	13.5228
1916.99	12.5815
1917.23	12.5828
1917.48	12.5823
1917.73	12.5795
1917.98	13.5266
1918.23	10.6943
1918.48	14.4785
1918.72	11.6428
1918.97	12.5899
1919.22	13.5359
1919.47	12.5893
1919.72	11.6417
1919.97	12.5847
1920.21	13.5279
1920.46	13.5263
1920.71	12.5795
1920.96	13.5228
1921.21	12.5751
1921.46	10.6826
1921.7	13.5154
1921.95	13.5148
1922.2	12.5704
1922.45	13.517
1922.7	12.5746
1922.94	10.6873
1923.19	13.5269
1923.44	11.638
1923.69	11.641
1923.94	15.4304
1924.19	10.6989
1924.43	13.5406
1924.68	13.542
1924.93	13.5432
1925.18	14.4916
1925.43	13.5452
1925.67	12.5984
1925.92	10.7046
1926.17	9.75785
1926.42	13.5507
1926.66	14.5017
1926.91	13.5575
1927.16	11.6632
1927.41	12.6152
1927.66	12.6178
1927.91	13.5697
1928.15	11.6708
1928.4	12.6198
1928.65	17.3647
1928.9	12.6157
1929.15	11.6644
1929.39	10.7132
1929.64	13.5577
1929.89	13.5554
1930.14	13.5543
1930.38	14.5009
1930.63	13.5539
1930.88	12.6094
1931.13	12.616
1931.37	12.6248
1931.62	13.5872
1931.87	11.6941
1932.12	10.7493
1932.37	12.6615
1932.61	12.6666
1932.86	12.667
1933.11	13.6114
1933.36	11.7047
1933.61	13.6091
1933.85	14.5593
1934.1	11.6976
1934.35	12.6467
1934.6	13.5958
1934.84	13.5925
1935.09	12.6376
1935.34	12.6351
1935.59	12.636
1935.83	11.6875
1936.08	9.78384
1936.33	11.6897
1936.58	14.5487
1936.82	12.645
1937.07	16.4574
1937.32	12.6468
1937.57	13.6029
1937.81	14.5609
1938.06	12.6614
1938.31	13.6184
1938.56	11.7085
1938.8	12.6597
1939.05	14.5608
1939.3	13.602
1939.55	16.4721
1939.79	12.6666
1940.04	14.5773
1940.29	11.7111
1940.54	11.7052
1940.78	11.6997
1941.03	13.6065
1941.28	12.6595
1941.52	11.7068
1941.77	12.6638
1942.02	12.6663
1942.27	12.6691
1942.51	13.6273
1942.76	13.6301
1943.01	15.5446
1943.26	13.6345
1943.5	14.5923
1943.75	14.5932
1944	13.6368
1944.24	12.6793
1944.49	11.7213
1944.74	15.5448
1944.99	14.5878
1945.23	11.7186
1945.48	12.6739
1945.73	13.6291
1945.97	10.7611
1946.22	11.7192
1946.47	14.5912
1946.71	12.6803
1946.96	13.6403
1947.21	11.7294
1947.46	16.5234
1947.7	11.7388
1947.95	14.6185
1948.2	12.706
1948.44	12.7107
1948.69	13.6746
1948.94	13.6778
1949.19	13.6799
1949.43	11.7609
1949.68	15.6032
1949.93	13.6824
1950.17	12.7242
1950.42	10.8031
1950.67	11.7595
1950.91	13.6733
1951.16	10.786
1951.41	12.6971
1951.65	10.7734
1951.9	10.7691
1952.15	12.6834
1952.39	10.7672
1952.64	10.7687
1952.89	14.6058
1953.14	14.6133
1953.38	13.6615
1953.63	13.6651
1953.88	13.6684
1954.12	12.7104
1954.37	13.6734
1954.62	11.7543
1954.86	10.7951
1955.11	13.679
1955.36	12.7187
1955.6	13.6803
1955.85	9.83513
1956.1	12.7166
1956.34	12.714
1956.59	12.7125
1956.84	12.711
1957.08	13.6691
1957.33	13.6665
1957.58	12.7034
1957.82	14.621
1958.07	13.6578
1958.31	11.7353
1958.56	13.6526
1958.81	11.7321
1959.05	14.6112
1959.3	13.6517
1959.55	13.6518
1959.79	11.7323
1960.04	12.6922
1960.29	9.81241
1960.53	14.6121
1960.78	9.81219
1961.03	15.573
1961.27	14.6143
1961.52	13.6544
1961.77	12.6931
1962.01	14.6125
1962.26	14.612
1962.5	10.7705
1962.75	13.6513
1963	12.6924
1963.24	10.7734
1963.49	13.6578
1963.74	13.6601
1963.98	11.7394
1964.23	13.6621
1964.48	10.7778
1964.72	12.7003
1964.97	14.6235
1965.21	11.7393
1965.46	13.6622
1965.71	11.7382
1965.95	12.6975
1966.2	13.6554
1966.44	13.6511
1966.69	11.7251
1966.94	11.7209
1967.18	12.6776
1967.43	13.6344
1967.68	10.7532
1967.92	12.6695
1968.17	12.6673
1968.41	11.7062
1968.66	13.623
1968.91	13.6218
1969.15	11.7045
1969.4	11.705
1969.64	12.6643
1969.89	11.7039
1970.14	10.7428
1970.38	12.6583
1970.63	9.77838
1970.87	13.6109
1971.12	11.6917
1971.37	9.7734
1971.61	12.6482
1971.86	12.6479
1972.1	13.6066
1972.35	11.6902
1972.6	11.6915
1972.84	11.6928
1973.09	13.612
1973.33	13.6128
1973.58	13.613
1973.82	14.5721
1974.07	13.6123
1974.32	11.6928
1974.56	14.5687
1974.81	13.6073
1975.05	12.6456
1975.3	13.6018
1975.55	11.6824
1975.79	12.6392
1976.04	13.5967
1976.28	12.638
1976.53	15.5135
1976.77	14.5545
1977.02	11.679
1977.26	14.5541
1977.51	12.6347
1977.76	15.5065
1978	15.5037
1978.25	12.6278
1978.49	13.5832
1978.74	12.6237
1978.98	11.6647
1979.23	11.6638
1979.48	13.578
1979.72	10.7023
1979.97	12.6146
1980.21	13.5678
1980.46	13.5632
1980.7	13.5603
1980.95	12.6023
1981.19	11.6443
1981.44	12.5989
1981.69	12.5972
1981.93	11.6392
1982.18	11.6362
1982.42	13.5443
1982.67	13.543
1982.91	13.543
1983.16	13.5437
1983.4	11.6333
1983.65	14.5033
1983.89	15.4596
1984.14	14.5022
1984.38	13.5466
1984.63	13.5422
1984.88	13.5375
1985.12	11.6214
1985.37	11.6162
1985.61	11.6097
1985.86	13.5075
1986.1	11.5918
1986.35	12.5371
1986.59	9.67349
1986.84	13.4779
1987.08	11.5716
1987.33	13.4747
1987.57	13.4764
1987.82	13.4825
1988.06	14.4377
1988.31	12.5356
1988.55	10.6332
1988.8	12.5462
1989.04	8.81011
1989.29	12.5759
1989.53	13.4914
1989.78	12.5792
1990.02	13.4538
1990.27	11.6705
1990.52	12.5552
1990.76	13.3385
1991.01	11.6441
1991.25	12.5037
1991.49	14.9939
1991.74	11.7232
1991.99	13.3495
1992.23	10.9976
1992.47	14.3323
1992.72	14.3857
1992.97	12.6224
1993.21	13.396
1993.45	13.9419
1993.7	12.9287
1993.95	14.7263
1994.19	13.32
1994.43	13.2327
1994.68	11.9036
1994.93	13.8338
1995.17	13.2697
1995.41	13.5837
1995.66	13.5206
1995.9	11.9178
1996.15	13.5338
1996.39	13.1853
1996.64	12.2864
1996.88	11.768
1997.13	12.9835
1997.37	11.8382
1997.62	12.6281
1997.86	13.8502
1998.11	14.4319
1998.35	10.8045
1998.6	14.2453
1998.84	13.8103
1999.09	12.547
1999.33	13.2847
1999.57	11.9032
1999.82	13.2224
2000.06	13.313
2000.31	11.8973
2000.55	13.766
2000.8	11.9164
2001.04	12.8668
2001.29	12.0294
2001.53	13.3005
2001.78	13.3445
2002.02	11.9081
2002.27	12.9638
2002.51	13.2683
2002.75	11.935
2003	12.0731
2003.24	13.6136
2003.49	12.7444
2003.73	12.6461
2003.98	13.1443
2004.22	13.2489
2004.47	13.6396
2004.71	13.8199
2004.95	14.7513
2005.2	13.4361
2005.44	12.9546
2005.69	11.9528
2005.93	12.0783
2006.18	12.7474
2006.42	12.2271
2006.66	12.9574
2006.91	12.9814
2007.15	13.677
2007.4	12.7723
2007.64	12.2366
2007.89	12.7495
2008.13	12.709
2008.38	12.3809
2008.62	11.753
2008.86	12.1626
2009.11	12.1051
2009.35	12.7864
2009.6	12.5062
2009.84	12.6576
2010.08	12.3661
2010.33	11.0566
2010.57	12.7357
2010.82	14.9053
2011.06	14.021
2011.3	12.7542
2011.55	11.729
2011.79	12.0408
2012.04	13.0574
2012.18	13.1007
2012.43	14.0406
2012.68	13.1041
2012.93	14.0444
2013.17	13.1047
2013.42	14.0439
2013.67	11.2363
2013.91	14.0577
2014.16	12.1771
2014.41	13.1149
2014.66	12.1722
2014.9	15.9254
2015.15	12.1637
2015.4	13.097
2015.64	13.0919
2015.89	12.1492
2016.14	13.0816
2016.38	14.0136
2016.63	13.0734
2016.88	14.0082
2017.13	12.1333
2017.37	12.1328
2017.62	16.8149
2017.87	14.0043
2018.11	11.1949
2018.36	12.132
2018.61	12.1319
2018.86	14.0044
2019.1	12.1299
2019.35	11.1916
2019.6	14.9343
2019.84	10.2504
2020.09	12.1189
2020.34	13.987
2020.58	14.9192
2020.83	13.0454
2021.08	13.0423
2021.32	13.0395
2021.57	12.1009
2021.82	9.29412
2022.06	10.2246
2022.31	13.0217
2022.56	13.0177
2022.8	13.9469
2023.05	13.0093
2023.3	13.9421
2023.54	13.0135
2023.79	11.1537
2024.04	12.0959
2024.28	13.9759
2024.53	11.1766
2024.78	14.9183
2025.02	13.0395
2025.27	11.1595
2025.52	12.9959
2025.76	12.0863
2026.01	14.0039
2026.26	13.0478
2026.5	11.1843
2026.75	13.9722
2027	12.0884
2027.24	13.9391
2027.49	12.0731
2027.74	12.0614
2027.98	12.0692
2028.23	12.0773
2028.48	13.9411
2028.72	13.008
2028.97	12.0745
2029.22	10.211
2029.46	13.9485
2029.71	18.6232
2029.96	13.9577
2030.2	13.0266
2030.45	12.0941
2030.69	13.9672
2030.94	13.9706
2031.19	13.0283
2031.43	12.0864
2031.68	12.073
2031.93	13.9336
2032.17	13.0064
2032.42	13.0102
2032.66	14.8847
2032.91	16.7651
2033.16	13.0327
2033.4	11.163
2033.65	10.2215
2033.9	13.025
2034.14	12.0935
2034.39	12.0932
2034.63	13.0274
2034.88	13.026
2035.13	13.0241
2035.37	12.0874
2035.62	13.9544
2035.87	12.0831
2036.11	13.9494
2036.36	14.8809
2036.6	13.9442
2036.85	11.1399
2037.1	13.0035
2037.34	13.9329
2037.59	13.929
2037.83	13.9254
2038.08	12.9897
2038.33	13.9195
2038.57	14.8502
2038.82	12.0524
2039.06	15.7791
2039.31	12.9809
2039.56	12.0464
2039.8	13.9082
2040.05	12.9762
2040.3	12.9768
2040.54	12.9797
2040.79	13.9168
2041.03	11.1239
2041.28	12.9918
2041.52	12.0582
2041.77	12.0554
2042.02	12.0501
2042.26	12.9717
2042.51	11.1177
2042.75	12.0563
2043	13.0042
2043.25	11.1539
2043.49	15.8241
2043.74	12.0711
2043.98	11.1283
2044.23	13.9275
2044.47	12.9909
2044.72	12.0487
2044.97	14.8415
2045.21	13.9093
2045.46	14.842
2045.7	13.9103
2045.95	12.0466
2046.19	12.982
2046.44	12.0515
2046.69	15.7871
2046.93	13.9254
2047.18	11.1279
2047.42	12.9987
2047.67	13.0007
2047.91	13.0013
2048.16	13.0004
2048.41	12.0637
2048.65	12.9939
2048.9	12.993
2049.14	12.993
2049.39	12.9945
2049.63	12.0611
2049.88	12.0621
2050.12	11.1295
2050.37	12.0658
2050.62	12.0684
2050.86	13.9438
2051.11	11.1407
2051.35	13.9483
2051.6	13.0132
2051.84	13.9482
2052.09	13.0118
2052.33	12.0756
2052.58	13.0075
2052.82	13.0056
2053.07	10.1999
2053.31	13.0034
2053.56	13.0017
2053.8	12.0658
2054.05	13.0001
2054.3	13.0004
2054.54	14.8708
2054.79	14.8722
2055.03	13.9392
2055.28	12.0704
2055.52	13.0086
2055.77	14.8827
2056.01	12.0779
2056.26	13.0157
2056.5	12.0802
2056.75	13.9529
2056.99	13.0171
2057.24	13.0152
2057.48	11.1412
2057.73	12.0752
2057.97	13.9482
2058.22	13.95
2058.46	12.0789
2058.71	13.9517
2058.95	13.0155
2059.2	13.952
2059.45	13.9527
2059.69	13.9538
2059.94	13.0189
2060.18	13.9577
2060.43	13.0229
2060.67	12.0873
2060.92	12.0885
2061.16	10.2147
2061.4	11.1526
2061.65	12.091
2061.9	13.9678
2062.14	13.0326
2062.39	15.8507
2062.63	12.1013
2062.88	12.104
2063.12	12.1062
2063.37	13.0467
2063.61	14.9253
2063.86	13.9872
2064.1	12.1102
2064.34	12.111
2064.59	13.9912
2064.83	13.0536
2065.08	14.9347
2065.32	13.9962
2065.57	11.1771
2065.81	12.1184
2066.06	9.29834
2066.3	10.2368
2066.55	13.0531
2066.79	13.9868
2067.04	12.1053
2067.28	13.0451
2067.53	13.9893
2067.77	13.996
2068.02	13.0624
2068.26	12.1218
2068.51	13.0584
2068.75	13.0701
2069	14.9608
2069.24	9.30966
2069.48	14.9585
2069.73	14.0161
2069.97	14.9563
2070.22	11.1898
2070.46	12.1305
2070.71	11.1891
2070.95	13.0724
2071.2	13.0728
2071.44	15.8991
2071.69	13.076
2071.93	14.9634
2072.18	13.0832
2072.42	12.1457
2072.66	12.1517
2072.91	12.156
2073.15	14.0462
2073.4	14.0465
2073.64	13.1028
2073.89	13.1014
2074.13	13.0986
2074.38	13.0955
2074.62	14.0326
2074.87	13.0872
2075.11	14.9744
2075.35	13.0908
2075.6	14.9786
2075.84	14.0362
2076.09	11.207
2076.33	14.9842
2076.58	13.1029
2076.82	13.1053
2077.06	14.9967
2077.31	13.1092
2077.55	15.0008
2077.8	13.1109
2078.04	12.1644
2078.29	14.053
2078.53	13.1074
2078.77	14.9968
2079.02	12.1614
2079.26	12.1621
2079.51	13.1077
2079.75	14.9983
2080	14.0534
2080.24	14.0529
2080.48	11.2172
2080.73	12.1614
2080.97	12.1611
2081.22	13.1061
2081.46	14.9955
2081.7	11.2156
2081.95	13.1057
2082.19	14.0507
2082.44	13.1053
2082.68	13.1052
2082.93	12.1604
2083.17	11.2178
2083.41	12.1667
2083.66	15.0072
2083.9	12.1705
2084.14	11.2256
2084.39	13.1196
2084.63	13.1209
2084.88	10.2816
2085.12	13.1207
2085.36	14.0672
2085.61	12.1747
2085.85	15.0146
2086.1	14.0685
2086.34	15.9637
2086.58	13.1255
2086.83	15.0228
2087.07	11.2354
2087.32	14.0776
2087.56	14.0784
2087.8	13.1319
2088.05	14.0807
2088.29	12.1866
2088.54	12.1877
2088.78	13.1383
2089.02	13.1419
2089.27	15.043
2089.51	15.0476
2089.75	13.1539
2090	12.2078
2090.24	15.06
2090.48	13.1635
2090.73	13.1665
2090.97	12.2185
2091.22	12.2205
2091.46	13.1719
2091.7	12.221
2091.95	13.1709
2092.19	14.1204
2092.43	12.217
2092.68	15.0655
2092.92	15.0631
2093.17	15.061
2093.41	13.1596
2093.65	12.2089
2093.9	13.1581
2094.14	13.1562
2094.38	13.1534
2094.63	14.1
2094.87	12.1997
2095.11	13.1481
2095.36	12.1981
2095.6	12.1959
2095.84	14.0939
2096.09	13.1443
2096.33	12.1942
2096.57	14.0914
2096.82	13.1419
2097.06	15.0397
2097.3	14.0909
2097.55	14.0914
2097.79	11.2447
2098.03	11.2473
2098.28	15.0477
2098.52	11.2505
2098.76	15.0503
2099.01	13.1504
2099.25	14.0996
2099.5	12.1999
2099.74	14.0986
2099.98	13.1466
2100.22	13.1436
2100.47	13.1417
2100.71	12.1919
2100.95	11.2416
2101.2	15.9877
2101.44	14.09
2101.68	14.0919
2101.93	13.1442
2102.17	14.0955
2102.41	11.2478
2102.66	13.1503
2102.9	12.2024
2103.14	13.154
2103.39	14.1056
2103.63	15.0568
2103.87	12.2052
2104.12	13.1568
2104.36	13.1572
2104.6	15.057
2104.85	13.1529
2105.09	14.0997
2105.33	13.1455
2105.57	14.0916
2105.82	12.189
2106.06	12.1877
2106.3	13.1373
2106.55	15.9892
2106.79	14.0928
2107.03	13.1428
2107.27	14.0926
2107.52	13.1423
2107.76	11.2421
2108	12.1918
2108.25	12.1915
2108.49	14.0903
2108.73	12.1886
2108.98	15.0361
2109.22	12.1861
2109.46	12.1856
2109.7	13.1362
2109.95	16.9367
2110.19	15.0384
2110.43	14.0915
2110.68	12.1935
2110.92	12.1945
2111.16	12.1938
2111.4	13.1428
2111.65	14.0925
2111.89	10.2913
2112.13	13.1426
2112.38	13.1417
2112.62	15.0409
2112.86	12.1888
2113.1	12.1876
2113.35	15.035
2113.59	15.0318
2113.83	13.1306
2114.07	14.0793
2114.32	14.0785
2114.56	13.129
2114.8	12.1781
2115.04	12.176
2115.29	11.2245
2115.53	13.1195
2115.77	13.1154
2116.01	15.0091
2116.26	12.1608
2116.5	13.1061
2116.74	14.0511
2116.99	14.9959
2117.23	11.2031
2117.47	14.0448
2117.71	11.2022
2117.96	13.099
2118.2	14.9957
2118.44	13.1025
2118.68	13.1054
2118.92	13.1081
2119.17	14.0592
2119.41	14.0616
2119.65	12.1655
2119.9	12.1669
2120.14	15.0159
2120.38	12.1689
2120.62	14.0679
2120.86	13.1174
2121.11	13.1157
2121.35	12.1643
2121.59	14.0587
2121.83	14.0531
2122.08	13.0981
2122.32	12.1444
2122.56	12.14
2122.8	14.03
2123.04	13.079
2123.29	14.9681
2123.53	12.126
2123.77	13.0693
2124.01	12.1204
2124.26	12.1175
2124.5	12.1161
2124.74	13.0607
2124.98	11.1689
2125.22	14.0034
2125.47	14.9474
2125.71	14.0019
2125.95	13.0565
2126.19	14.0011
2126.44	13.9997
2126.68	12.1082
2126.92	13.9976
2127.16	11.1616
2127.4	13.0506
2127.65	12.1045
2127.89	13.0479
2128.13	13.0461
2128.37	12.0993
2128.61	13.986
2128.86	13.0395
2129.1	12.0937
2129.34	13.9804
2129.58	13.9775
2129.82	13.0308
2130.06	12.0856
2130.31	14.9159
2130.55	12.0853
2130.79	11.1418
2131.03	14.9165
2131.27	12.0856
2131.52	13.9733
2131.76	15.8602
2132	12.0846
2132.24	13.9714
2132.48	13.9705
2132.73	12.0818
2132.97	13.023
2133.21	16.7915
2133.45	13.9575
2133.69	13.0123
2133.94	13.9551
2134.18	11.1273
2134.42	13.0128
2134.66	13.0138
2134.9	12.0731
2135.14	12.0724
2135.39	13.0116
2135.63	13.951
2135.87	13.9527
2136.11	13.0139
2136.35	13.9601
2136.59	13.0113
2136.84	14.8903
2137.08	13.0028
2137.32	14.8849
2137.56	13.9407
2137.8	12.997
2138.04	13.9375
2138.28	11.1108
2138.53	12.0524
2138.77	13.9333
2139.01	12.9884
2139.25	13.9282
2139.49	14.8692
2139.74	11.1056
2139.98	12.0488
2140.22	12.0574
2140.46	12.9962
2140.7	12.0262
2140.94	12.962
2141.18	13.9045
2141.43	13.9087
2141.67	12.9728
2141.91	12.9753
2142.15	12.0283
2142.39	12.9684
2142.63	14.8495
2142.87	11.0876
2143.12	12.0265
2143.36	12.0253
2143.6	12.964
2143.84	14.8426
2144.08	11.0815
2144.32	11.0797
2144.56	12.0176
2144.8	12.9553
2145.05	12.9537
2145.29	12.0126
2145.53	13.8893
2145.77	14.8263
2146.01	12.946
2146.25	15.7592
2146.49	11.0629
2146.73	16.6867
2146.98	13.8689
2147.22	11.9896
2147.46	16.6739
2147.7	11.9853
2147.94	14.7965
2148.18	14.7974
2148.42	11.0496
2148.66	10.1128
2148.9	13.8652
2149.15	11.9901
2149.39	13.8678
2149.63	13.8655
2149.87	12.9256
2150.11	14.7981
2150.35	14.7953
2150.59	16.6683
2150.83	11.9805
2151.07	12.9154
2151.31	15.7227
2151.56	14.7806
2151.8	11.9656
2152.04	13.8323
2152.28	14.761
2152.52	13.821
2152.76	14.7513
2153	11.9437
2153.24	12.8754
2153.48	12.8738
2153.72	12.8729
2153.97	13.8064
2154.21	12.872
2154.45	11.0042
2154.69	12.8741
2154.93	14.7452
2155.17	11.9434
2155.41	14.7479
2155.65	13.8128
2155.89	11.9426
2156.13	11.9413
2156.37	11.0051
2156.61	11.9374
2156.86	14.7373
2157.1	12.8656
2157.34	13.7958
2157.58	14.726
2157.82	12.8562
2158.06	13.7876
2158.3	11.9203
2158.54	12.852
2158.78	11.9175
2159.02	11.9168
2159.26	12.8494
2159.5	14.715
2159.74	12.8487
2159.98	13.7803
2160.22	12.8454
2160.47	14.709
2160.71	12.8422
2160.95	13.7729
2161.19	12.8387
2161.43	14.7001
2161.67	14.6959
2161.91	11.898
2162.15	15.6249
2162.39	11.899
2162.63	13.7626
2162.87	14.6944
2163.11	12.8306
2163.35	13.7607
2163.59	11.8956
2163.83	13.7567
2164.07	13.7537
2164.31	13.7513
2164.55	13.748
2164.79	11.8823
2165.03	11.8765
2165.27	15.5903
2165.51	13.7279
2165.76	12.7975
2166	16.5167
2166.24	13.7291
2166.48	13.7316
2166.72	14.6653
2166.96	13.7394
2167.2	10.9515
2167.44	11.885
2167.68	10.9546
2167.92	13.7474
2168.16	14.6757
2168.4	14.674
2168.64	12.8069
2168.88	12.798
2169.12	12.7927
2169.36	12.7899
2169.6	13.7166
2169.84	11.8562
2170.08	12.7846
2170.32	14.6423
2170.56	13.7128
2170.8	15.5717
2171.04	13.7149
2171.28	13.7159
2171.52	12.7869
2171.76	11.8574
2172	12.7865
2172.24	12.786
2172.48	13.7143
2172.72	12.7838
2172.96	15.5709
2173.2	14.6406
2173.44	12.781
2173.68	12.7786
2173.92	14.6353
2174.16	15.564
2174.4	12.7773
2174.64	14.6353
2174.88	14.6346
2175.12	11.8481
2175.36	12.7757
2175.6	12.772
2175.84	14.626
2176.08	12.7684
2176.32	12.7687
2176.56	12.7686
2176.8	13.697
2177.04	14.6252
2177.28	13.6964
2177.52	11.8388
2177.76	13.6946
2178	14.6218
2178.24	14.6212
2178.48	12.7635
2178.72	15.5462
2178.96	13.688
2179.2	11.831
2179.44	10.9013
2179.68	14.6112
2179.92	9.97107
2180.16	13.6791
2180.4	11.8212
2180.64	14.5987
2180.88	15.5221
2181.12	14.5927
2181.35	13.6636
2181.59	12.7361
2181.83	15.5159
2182.07	14.5905
2182.31	12.7379
2182.55	11.8118
2182.79	13.6668
2183.03	13.6687
2183.27	15.5256
2183.51	13.6731
2183.75	13.6766
2183.99	11.8245
2184.23	14.6125
2184.47	13.688
2184.71	13.6908
2184.95	12.7627
2185.19	15.5473
2185.43	12.7587
2185.67	13.6844
2185.91	11.8248
2186.15	12.7497
2186.38	14.6015
2186.62	11.8143
2186.86	13.6649
2187.1	12.7358
2187.34	12.7349
2187.58	13.6619
2187.82	13.6627
2188.06	12.7366
2188.3	14.5906
2188.54	13.6639
2188.78	18.3013
2189.02	12.7384
2189.26	14.5942
2189.5	15.5227
2189.74	13.6686
2189.97	15.5261
2190.21	13.6727
2190.45	15.5309
2190.69	14.6057
2190.93	16.4688
2191.17	13.6892
2191.41	12.764
2191.65	14.6255
2191.89	16.484
2192.13	15.5522
2192.37	13.6915
2192.61	13.6892
2192.85	14.6152
2193.08	12.7532
2193.32	14.6056
2193.56	15.5288
2193.8	14.5967
2194.04	12.738
2194.28	14.5909
2194.52	12.7335
2194.76	13.6606
2195	16.4435
2195.24	14.5896
2195.47	10.8812
2195.71	14.5962
2195.95	14.6002
2196.19	14.605
2196.43	14.6091
2196.67	14.6135
2196.91	14.6181
2197.15	11.8345
2197.39	14.6323
2197.63	12.7769
2197.86	13.7133
2198.1	14.6489
2198.34	15.5842
2198.58	13.7152
2198.82	14.632
2199.06	11.8157
2199.3	15.5072
2199.54	11.8035
2199.78	15.5414
2200.01	13.6941
2200.25	17.4099
2200.49	13.6868
2200.73	15.5554
2200.97	12.8093
2201.21	15.59
2201.45	9.99365
2201.69	15.5913
2201.92	16.5128
2202.16	13.7043
2202.4	12.7627
2202.64	14.6148
2202.88	14.6122
2203.12	14.6121
2203.36	13.6852
2203.59	15.5461
2203.83	12.7507
2204.07	12.7511
2204.31	14.6124
2204.55	12.7549
2204.79	16.4781
2205.03	16.4814
2205.27	17.4153
2205.5	12.7646
2205.74	14.6286
2205.98	14.6306
2206.22	13.7006
2206.46	11.8387
2206.7	14.6325
2206.93	13.7006
2207.17	13.7007
2207.41	13.7022
2207.65	13.7039
2207.89	13.7059
2208.13	14.6398
2208.37	15.5738
2208.6	15.5762
2208.84	15.5793
2209.08	12.7846
2209.32	14.6518
2209.56	11.8543
2209.8	13.7189
2210.03	14.65
2210.27	12.7831
2210.51	15.5785
2210.75	14.643
2210.99	13.7111
2211.23	14.646
2211.47	15.5845
2211.7	16.524
2211.94	14.6587
2212.18	15.5933
2212.42	13.727
2212.66	13.7274
2212.89	14.6612
2213.13	14.661
2213.37	13.727
2213.61	12.7927
2213.85	12.7919
2214.09	15.5919
2214.32	14.658
2214.56	12.7911
2214.8	12.7915
2215.04	12.7913
2215.28	14.6582
2215.51	14.6585
2215.75	16.5273
2215.99	12.7937
2216.23	10.9275
2216.47	11.8636
2216.71	14.6679
2216.94	13.7349
2217.18	13.7362
2217.42	14.6703
2217.66	12.8003
2217.9	11.8651
2218.13	13.7326
2218.37	13.7292
2218.61	12.7913
2218.85	15.5896
2219.08	13.7192
2219.32	15.5842
2219.56	13.7165
2219.8	11.8502
2220.04	13.7189
2220.27	14.6546
2220.51	14.6568
2220.75	13.7258
2220.99	18.402
2221.23	14.6684
2221.46	14.6724
2221.7	12.8052
2221.94	14.6789
2222.18	10.9389
2222.42	15.6211
2222.65	12.8166
2222.89	12.8193
2223.13	11.8851
2223.37	14.6981
2223.6	14.7002
2223.84	13.7658
2224.08	12.8309
2224.32	11.8952
2224.55	9.08329
2224.79	15.6481
2225.03	15.6476
2225.27	13.7708
2225.5	12.832
2225.74	11.8933
2225.98	11.8924
2226.22	10.0166
2226.46	16.5787
2226.69	14.7058
2226.93	15.6473
2227.17	15.6509
2227.41	13.777
2227.64	15.6563
2227.88	15.6593
2228.12	12.8458
2228.36	13.7877
2228.59	12.8514
2228.83	16.6119
2229.07	14.7355
2229.31	13.7983
2229.54	14.7409
2229.78	12.8628
2230.02	12.865
2230.26	15.6892
2230.49	16.6327
2230.73	15.6946
2230.97	11.9319
2231.21	11.9331
2231.44	13.8148
2231.68	12.8723
2231.92	14.7527
2232.16	12.8681
2232.39	12.8634
2232.63	14.7405
2232.87	15.6808
2233.11	11.9197
2233.34	13.801
2233.58	14.7421
2233.82	10.9803
2234.05	12.8618
2234.29	12.8646
2234.53	14.7492
2234.77	13.8131
2235	14.7604
2235.24	14.7659
2235.48	14.7698
2235.72	12.8881
2235.95	13.8348
2236.19	12.8962
2236.43	14.7839
2236.66	12.8958
2236.9	14.7803
2237.14	11.0042
2237.37	15.715
2237.61	13.8276
2237.85	16.6618
2238.09	12.8948
2238.32	14.7824
2238.56	14.7832
2238.8	12.8968
2239.04	13.8412
2239.27	11.9545
2239.51	11.9556
2239.75	12.9009
2239.98	13.8451
2240.22	12.9003
2240.46	13.8424
2240.69	13.8401
2240.93	13.8388
2241.17	11.9508
2241.4	14.7821
2241.64	12.8963
2241.88	11.9557
2242.11	14.7939
2242.35	14.7991
2242.59	13.8574
2242.83	13.8599
2243.06	16.6992
2243.3	11.9737
2243.54	14.8133
2243.77	11.9766
2244.01	13.8704
2244.25	14.8186
2244.48	13.8736
2244.72	12.9276
2244.96	13.8737
2245.19	13.8728
2245.43	13.8717
2245.67	11.978
2245.91	13.8697
2246.14	12.9225
2246.38	14.8141
2246.61	13.87
2246.85	14.818
2247.09	11.9783
2247.32	13.8694
2247.56	15.7589
2247.8	12.9175
2248.03	14.8058
2248.27	14.8028
2248.51	11.964
2248.74	13.854
2248.98	15.7452
2249.22	13.8555
2249.45	15.7489
2249.69	11.9682
2249.93	12.9179
2250.16	13.8713
2250.4	12.9294
2250.64	11.9856
2250.87	12.9359
2251.11	13.886
2251.35	14.8365
2251.58	15.7865
2251.82	13.8903
2252.06	15.785
2252.29	15.7855
2252.53	17.6818
2252.77	14.8376
2253	12.9415
2253.24	11.0466
2253.48	15.7915
2253.71	12.9477
2253.95	13.8986
2254.18	14.8498
2254.42	12.0042
2254.66	16.753
2254.89	13.9061
2255.13	14.8563
2255.37	14.8568
2255.6	12.9581
2255.84	12.9591
2256.08	15.8106
2256.31	14.8627
2256.55	16.7644
2256.78	14.865
2257.02	13.9161
2257.26	13.9174
2257.49	15.8198
2257.73	12.969
2257.96	12.9707
2258.2	12.9746
2258.44	15.8313
2258.67	14.8805
2258.91	13.9297
2259.15	13.9307
2259.38	12.98
2259.62	12.0298
2259.85	13.9361
2260.09	13.939
2260.33	13.9425
2260.56	11.0881
2260.8	14.9044
2261.03	12.0495
2261.27	13.0077
2261.51	16.8291
2261.74	13.0156
2261.98	14.9282
2262.21	11.1111
2262.45	13.9784
2262.69	13.0235
2262.92	12.0686
2263.16	14.933
2263.39	11.1096
2263.63	13.9712
2263.87	14.922
2264.1	12.0555
2264.34	14.9159
2264.57	13.0054
2264.81	14.9109
2265.05	13
2265.28	12.0441
2265.52	12.9966
2265.75	15.8573
2265.99	11.091
2266.22	13.9547
2266.46	14.9124
2266.7	11.0988
2266.93	13.0113
2267.17	14.9256
2267.4	13.9749
2267.64	12.0663
2267.87	15.8903
2268.11	13.0259
2268.35	12.072
2268.58	12.0733
2268.82	16.8565
2269.05	13.0334
2269.29	13.9912
2269.53	13.0347
2269.76	12.0783
2270	15.9059
2270.23	9.20874
2270.47	12.0797
2270.7	14.9511
2270.94	12.0806
2271.18	13.9952
2271.41	13.9956
2271.65	13.9962
2271.88	15.9112
2272.12	13.0402
2272.35	13.9981
2272.59	14.9564
2272.82	13.0408
2273.06	14
2273.3	15.9188
2273.53	11.1323
2273.77	14.0094
2274	14.012
2274.24	15.9324
2274.47	13.0603
2274.71	12.1056
2274.94	13.0699
2275.18	12.1152
2275.41	13.0772
2275.65	11.1571
2275.88	13.078
2276.12	13.0773
2276.36	12.1159
2276.59	14.9942
2276.83	12.1079
2277.06	14.9827
2277.3	14.9784
2277.53	13.0566
2277.77	11.1362
2278	13.0518
2278.24	14.9675
2278.47	13.0484
2278.71	13.0469
2278.94	14.0067
2279.18	12.0903
2279.41	12.0918
2279.65	13.0529
2279.89	13.0558
2280.12	14.9774
2280.36	14.9815
2280.59	14.0271
2280.83	14.0335
2281.06	14.0392
2281.3	13.0842
2281.53	14.0493
2281.77	12.1271
2282	12.1297
2282.24	14.0568
2282.47	10.2083
2282.71	13.0956
2282.94	12.1304
2283.18	12.1255
2283.41	14.0485
2283.65	11.1637
2283.88	13.0894
2284.12	15.0203
2284.35	11.1745
2284.59	14.0651
2284.82	11.1769
2285.06	13.1067
2285.29	13.1056
2285.53	12.1402
2285.76	14.0643
2286	14.0616
2286.23	13.0945
2286.47	12.1271
2286.7	13.0847
2286.94	15.0021
2287.17	13.0769
2287.41	14.0367
2287.64	14.9979
2287.88	15.9594
2288.11	15
2288.35	14.042
2288.58	11.1602
2288.82	15.0119
2289.05	13.0893
2289.28	13.0913
2289.52	12.1308
2289.75	14.0597
2289.99	15.026
2290.22	14.0649
2290.46	14.0668
2290.69	12.1406
2290.93	13.105
2291.16	11.1763
2291.4	13.1021
2291.63	11.1728
2291.87	15.0239
2292.1	12.1318
2292.34	14.0561
2292.57	12.128
2292.81	12.1261
2293.04	19.8262
2293.28	13.0839
2293.51	14.0404
2293.74	14.0394
2293.98	15.9646
2294.21	12.1175
2294.45	13.0821
2294.68	16.9356
2294.92	14.0513
2295.15	13.0926
2295.39	14.0588
2295.62	13.097
2295.86	13.0994
2296.09	13.1025
2296.32	12.1408
2296.56	15.0364
2296.79	11.1791
2297.03	13.108
2297.26	12.1432
2297.5	13.1073
2297.73	15.0381
2297.97	15.0406
2298.2	13.1122
2298.43	14.0787
2298.67	15.0447
2298.9	13.1143
2299.14	16.0094
2299.37	14.0775
2299.61	12.1461
2299.84	14.0764
2300.07	11.1805
2300.31	16.9701
2300.54	15.0395
2300.78	13.1094
2301.01	13.1105
2301.25	14.0779
2301.48	14.08
2301.71	17.9439
2301.95	13.1174
2302.18	15.0516
2302.42	15.0532
2302.65	13.1214
2302.89	14.0886
2303.12	16.0229
2303.35	13.1252
2303.59	13.1256
2303.82	14.0922
2304.05	16.025
2304.29	11.1915
2304.52	14.0897
2304.76	12.155
2304.99	13.1201
2305.23	13.1187
2305.46	12.1513
2305.69	12.151
2305.93	13.1175
2306.16	15.052
2306.4	11.1884
2306.63	11.1909
2306.86	15.0625
2307.1	13.131
2307.33	14.0995
2307.57	15.0671
2307.8	13.1317
2308.03	13.1301
2308.27	12.1597
2308.5	12.1526
2308.74	16.0081
2308.97	11.1744
2309.2	14.0673
2309.44	14.065
2309.67	14.0623
2309.91	13.0953
2310.14	14.0598
2310.37	11.1662
2310.61	13.1
2310.84	12.1392
2311.07	14.0746
2311.31	13.1123
2311.54	14.0827
2311.78	14.0878
2312.01	14.0923
2312.24	13.1271
2312.48	14.0906
2312.71	14.0869
2312.94	16.0174
2313.18	12.1467
2313.41	12.1399
2313.65	13.1019
2313.88	12.1342
2314.11	15.0304
2314.35	10.2029
2314.58	13.1003
2314.81	13.1036
2315.05	14.0719
2315.28	14.0668
2315.51	12.133
2315.75	14.0622
2315.98	13.0943
2316.22	15.0224
2316.45	13.0897
2316.68	11.1581
2316.92	13.0869
2317.15	15.0166
2317.38	14.0518
2317.62	15.9814
2317.85	13.0876
2318.08	11.1589
2318.32	14.0567
2318.55	11.1624
2318.78	13.0962
2319.02	14.0658
2319.25	13.1036
2319.48	12.1402
2319.72	13.108
2319.95	12.1404
2320.19	15.041
2320.42	13.1083
2320.65	14.0757
2320.89	13.1095
2321.12	12.1427
2321.35	14.0759
2321.58	14.075
2321.82	12.1379
2322.05	15.9995
2322.28	14.0614
2322.52	12.1263
2322.75	13.0893
2322.98	12.121
2323.22	13.0835
2323.45	12.1154
2323.68	14.0422
2323.92	15.0035
2324.15	15
2324.38	15.9606
2324.62	15.958
2324.85	17.8828
2325.08	15.953
2325.32	16.9174
2325.55	17.8812
2325.78	15.9536
2326.02	17.8775
2326.25	17.8738
2326.48	21.7218
2326.71	20.7564
2326.95	23.6447
2327.18	25.5742
2327.41	38.0937
2327.65	40.0167
2327.88	53.4953
2328.11	52.5304
2328.35	36.1617
2328.58	31.3507
2328.81	23.6487
2329.05	21.7271
2329.28	20.7574
2329.51	19.7899
2329.75	15.9346
2329.98	17.858
2330.21	14.9671
2330.44	13.0396
2330.68	14.963
2330.91	13.0364
2331.14	13.9967
2331.38	13.9941
2331.61	13.0282
2331.84	11.1025
2332.07	16.8712
2332.31	15.9088
2332.54	11.0995
2332.77	13.9847
2333	12.062
2333.24	13.9848
2333.47	13.0214
2333.7	12.0588
2333.94	14.9426
2334.17	13.0188
2334.4	14.9408
2334.63	13.0171
2334.87	12.0545
2335.1	13.0146
2335.33	13.975
2335.56	13.9741
2335.8	14.9346
2336.03	12.0514
2336.26	15.8963
2336.5	10.1287
2336.73	13.0117
2336.96	14.9326
2337.19	13.9695
2337.43	13.006
2337.66	13.9642
2337.89	14.9213
2338.12	12.0363
2338.36	12.992
2338.59	12.9868
2338.82	13.9421
2339.05	12.0212
2339.29	15.8545
2339.52	13.9343
2339.75	15.8499
2339.98	12.9728
2340.22	13.9309
2340.45	12.9723
2340.68	14.8885
2340.91	13.9292
2341.15	12.9706
2341.38	12.9712
2341.61	13.9301
2341.84	13.9295
2342.08	13.9283
2342.31	12.9681
2342.54	12.9657
2342.77	14.8782
2343.01	13.9173
2343.24	14.8722
2343.47	13.9132
2343.7	10.0818
2343.93	12.9537
2344.17	13.9098
2344.4	14.8659
2344.63	12.9506
2344.86	13.908
2345.1	11.9937
2345.33	13.9101
2345.56	11.9957
2345.79	15.8261
2346.03	13.9091
2346.26	12.9491
2346.49	12.9433
2346.72	13.8941
2346.95	14.843
2347.19	12.9227
2347.42	13.8678
2347.65	13.8493
2347.88	13.8193
2348.12	12.8888
2348.35	13.8898
2348.58	13.9035
2348.81	14.8294
2349.04	13.8585
2349.28	11.9508
2349.51	14.8158
2349.74	11.9443
2349.97	12.8862
2350.2	14.7816
2350.44	10.9746
2350.67	12.8786
2350.9	11.9234
2351.13	10.9709
2351.36	12.8751
2351.6	13.8308
2351.83	12.8809
2352.06	12.8803
2352.29	12.8792
2352.52	13.8305
2352.76	12.8763
2352.99	15.7322
2353.22	10.9673
2353.45	12.8676
2353.68	15.716
2353.92	14.7586
2354.15	12.8532
2354.38	14.7525
2354.61	12.8484
2354.84	13.7968
2355.07	11.8936
2355.31	14.7433
2355.54	11.8909
2355.77	12.8382
2356	16.6367
2356.23	12.8355
2356.46	12.8345
2356.7	13.7825
2356.93	9.98133
2357.16	13.7766
2357.39	14.7223
2357.62	13.7697
2357.86	11.8687
2358.09	10.9171
2358.32	11.8624
2358.55	11.8592
2358.78	11.856
2359.01	11.8526
2359.25	13.7436
2359.48	10.8985
2359.71	12.7895
2359.94	13.7333
2360.17	13.7306
2360.4	12.7819
2360.63	11.8338
2360.87	14.6707
2361.1	13.7227
2361.33	13.7204
2361.56	10.8808
2361.79	10.8789
2362.02	12.7686
2362.26	11.8205
2362.49	11.8178
2362.72	12.7567
2362.95	11.8045
2363.18	12.7424
2363.41	13.6841
2363.64	12.7396
2363.88	14.6276
2364.11	15.5778
2364.34	12.7532
2364.57	12.7587
2364.8	12.7572
