#Acq. time (s)=	30
#Accumulations=	2
#Range (cm-¹)=	1200...2365
#Windows=	3
#Auto scanning=	Off
#Autofocus=	Off
#Macrospot=	Off
#AutoExposure=	Off
#Spike filter=	Multiple accum.
#Delay time (s)=	2
#Binning=	1
#Readout mode=	Signal
#DeNoise=	Off
#ICS correction=	On
#Dark correction=	Off
#Inst. Process=	Off
#Detector Gain=	Best Dynamic
#Detector ADC=	50 kHz HS
#Detector temperature (°C)=	-60.28
#Instrument=	LabRAM HR Evol
#Detector=	SIN-EM FIVIS
#Objective=	x100_VIS
#Grating=	1800 (450-850nm)
#ND Filter=	100%
#Laser=	532nm_Edge
#Hole=	49.98
#Temperature=	0
#Range=	Visible
#StageXY=	75x50mm Scan+
#StageZ=	Z motor
#X (µm)=	0
#Y (µm)=	0
#Z (µm)=	-263.7
#Full time(mm:ss)=	3:18
#Project=	21_11_04
#Sample=	BU19w
#Site=	
#Title=	BU19w-E-FF11b-FI05-V_1800 (450-850nm)_532nm_Edge_100%_x100_VIS_H50um_30sX2
#Remark=	
#Date=	04.11.2021 18:58
#Acquired=	04.11.2021 18:58:56
1202.73	20.9987
1203.01	19.9125
1203.29	23.121
1203.57	22.0416
1203.85	20.9583
1204.12	20.9654
1204.4	20.9629
1204.68	18.8073
1204.96	20.9476
1205.24	20.9388
1205.51	22.0017
1205.79	18.7731
1206.07	18.7644
1206.35	23.0425
1206.63	20.8899
1206.9	19.8124
1207.18	19.8079
1207.46	19.8038
1207.74	20.8707
1208.01	19.7953
1208.29	20.8591
1208.57	22.9925
1208.85	22.9882
1209.13	17.6409
1209.4	17.6399
1209.68	19.775
1209.96	18.7001
1210.23	19.7604
1210.51	20.8211
1210.79	22.9486
1211.07	22.9409
1211.35	18.6662
1211.62	19.7251
1211.9	18.6529
1212.18	21.8444
1212.46	21.838
1212.73	23.9627
1213.01	21.8293
1213.29	19.696
1213.57	25.0178
1213.84	18.6311
1214.12	23.9548
1214.4	21.8255
1214.68	16.5018
1214.95	19.6948
1215.23	17.5646
1215.51	19.69
1215.78	23.9398
1216.06	20.7393
1216.34	24.9831
1216.62	18.5981
1216.9	22.8424
1217.17	20.7114
1217.45	18.5825
1217.73	19.64
1218	22.8196
1218.28	21.7549
1218.56	20.6921
1218.84	22.8123
1219.11	19.6275
1219.39	18.5627
1219.67	19.6219
1219.94	19.6223
1220.22	22.8032
1220.5	20.6809
1220.77	20.677
1221.05	24.9149
1221.33	23.8489
1221.61	21.7213
1221.88	17.4754
1222.16	22.7599
1222.44	23.8062
1222.72	24.8537
1222.99	23.7844
1223.27	20.6067
1223.55	21.6549
1223.82	23.7606
1224.1	25.8679
1224.38	24.8074
1224.65	26.917
1224.93	21.6399
1225.21	21.6434
1225.49	21.6457
1225.76	25.8702
1226.04	23.7565
1226.32	25.8647
1226.59	26.9155
1226.87	24.7956
1227.15	24.7764
1227.42	26.8642
1227.7	20.5313
1227.98	22.6193
1228.25	25.7536
1228.53	25.7442
1228.81	22.6237
1229.08	23.7307
1229.36	21.6277
1229.64	24.7689
1229.91	23.7007
1230.19	22.6462
1230.47	28.9591
1230.74	25.7594
1231.02	23.6425
1231.3	23.6437
1231.57	23.6432
1231.85	25.7423
1232.13	21.5383
1232.4	22.588
1232.68	24.687
1232.96	26.7865
1233.23	23.6357
1233.51	24.6881
1233.79	23.6397
1234.06	23.6427
1234.34	23.6469
1234.62	21.5471
1234.89	24.7024
1235.17	21.5515
1235.45	22.6052
1235.72	22.6059
1236	21.5525
1236.27	21.5493
1236.55	20.4947
1236.83	21.539
1237.1	24.6823
1237.38	20.4737
1237.66	22.5656
1237.93	25.7047
1238.21	22.5496
1238.49	23.5938
1238.76	22.5419
1239.04	25.6842
1239.31	19.3926
1239.59	20.4399
1239.87	21.4877
1240.14	19.3917
1240.42	20.4408
1240.7	24.6352
1240.97	21.4902
1241.25	21.486
1241.52	24.6264
1241.8	20.4337
1242.08	20.4355
1242.35	21.4847
1242.63	22.5375
1242.91	21.4899
1243.18	21.489
1243.46	22.5387
1243.74	23.5881
1244.01	23.5865
1244.29	20.4401
1244.56	21.4851
1244.84	21.4793
1245.11	22.5209
1245.39	24.6064
1245.67	20.4133
1245.94	20.4119
1246.22	21.4575
1246.49	25.6449
1246.77	22.5033
1247.05	23.5484
1247.32	18.3147
1247.6	22.4954
1247.87	23.5337
1248.15	21.4401
1248.43	28.7614
1248.7	21.4421
1248.98	21.4422
1249.25	20.3948
1249.53	22.4865
1249.8	19.3471
1250.08	25.6152
1250.36	22.4732
1250.63	23.5136
1250.91	22.4644
1251.18	19.3265
1251.46	23.5011
1251.74	18.2752
1252.01	22.4482
1252.29	24.5316
1252.56	22.4393
1252.84	23.4797
1253.11	20.3483
1253.39	23.481
1253.66	19.31
1253.94	24.534
1254.22	24.5375
1254.49	22.45
1254.77	20.3626
1255.04	21.4075
1255.32	23.4953
1255.59	23.4955
1255.87	22.4526
1256.14	20.3666
1256.42	23.502
1256.7	27.6799
1256.97	24.5435
1257.25	24.5408
1257.52	26.6273
1257.8	25.581
1258.07	25.5789
1258.35	25.5732
1258.62	24.5267
1258.9	25.5726
1259.18	22.4426
1259.45	22.4532
1259.73	24.5396
1260	26.6224
1260.28	29.7439
1260.55	27.6486
1260.83	26.6001
1261.1	29.726
1261.38	32.8771
1261.65	32.9123
1261.93	35.0607
1262.2	36.0544
1262.48	37.0531
1262.75	42.2197
1263.03	42.2571
1263.31	42.2918
1263.58	44.4121
1263.85	40.284
1264.13	39.2094
1264.41	33.9682
1264.68	30.8311
1264.96	28.7425
1265.23	27.6895
1265.51	31.8678
1265.78	27.6896
1266.06	25.6027
1266.33	26.6522
1266.61	29.794
1266.88	22.482
1267.16	26.6723
1267.43	22.4952
1267.71	27.7371
1267.98	24.609
1268.26	27.7567
1268.53	27.7614
1268.81	25.67
1269.08	30.9104
1269.36	22.5236
1269.63	24.6122
1269.91	26.6996
1270.18	25.6472
1270.46	24.5951
1270.73	24.5924
1271.01	28.7757
1271.28	22.4966
1271.56	24.5936
1271.83	30.8811
1272.1	26.7029
1272.38	24.6165
1272.65	23.575
1272.93	25.6774
1273.2	26.7325
1273.48	26.7396
1273.75	26.7452
1274.03	25.6989
1274.3	28.8455
1274.58	27.7961
1274.85	27.798
1275.13	23.6054
1275.4	26.7574
1275.68	28.8622
1275.95	27.8185
1276.22	23.6239
1276.5	26.7781
1276.78	28.8842
1277.05	28.8913
1277.32	28.8983
1277.6	29.9556
1277.87	32.0638
1278.15	32.0721
1278.42	29.9751
1278.7	29.9806
1278.97	31.0332
1279.24	34.1869
1279.52	31.0277
1279.79	34.1804
1280.07	37.3371
1280.34	42.5989
1280.62	44.7111
1280.89	52.0918
1281.17	73.1549
1281.44	81.5762
1281.71	93.1591
1281.99	135.286
1282.26	178.442
1282.54	223.644
1282.81	296.004
1283.09	383.049
1283.36	440.851
1283.63	389.241
1283.91	295.399
1284.18	200.719
1284.46	139.635
1284.73	95.3333
1285.01	66.8603
1285.28	52.1125
1285.55	39.4882
1285.83	40.5476
1286.1	37.3782
1286.38	34.2188
1286.65	32.1122
1286.93	31.0559
1287.2	29.9976
1287.47	28.9405
1287.75	28.9394
1288.02	28.9403
1288.3	26.8364
1288.57	22.6297
1288.84	30.0029
1289.12	24.7437
1289.39	23.6954
1289.67	24.7539
1289.94	21.5961
1290.21	24.7534
1290.49	27.9111
1290.76	22.6444
1291.04	22.6443
1291.31	23.6971
1291.58	23.6961
1291.86	25.8041
1292.13	24.7517
1292.4	22.6423
1292.68	24.7485
1292.95	23.6996
1293.23	23.7103
1293.5	22.6654
1293.77	25.8368
1294.05	26.8901
1294.32	25.8357
1294.59	24.7809
1294.87	22.6803
1295.14	26.9132
1295.42	24.8183
1295.69	23.777
1295.96	22.7248
1296.24	22.7256
1296.51	22.7249
1296.79	25.8917
1297.06	23.7736
1297.33	24.8249
1297.61	24.8188
1297.88	24.8166
1298.15	18.482
1298.43	23.7588
1298.7	25.8668
1298.97	26.9187
1299.25	23.7498
1299.52	21.6409
1299.79	25.8675
1300.07	25.869
1300.34	21.6452
1300.61	24.8117
1300.89	22.7003
1301.16	20.5912
1301.44	22.707
1301.71	22.7096
1301.98	22.7109
1302.26	21.6547
1302.53	21.6538
1302.8	19.5395
1303.08	21.6487
1303.35	22.7025
1303.62	20.5907
1303.9	21.6469
1304.17	22.7028
1304.44	21.6453
1304.72	23.7534
1304.99	20.5821
1305.26	23.7433
1305.54	18.4627
1305.81	24.7874
1306.08	22.6748
1306.36	21.6194
1306.63	21.6207
1306.9	21.6219
1307.18	23.7315
1307.45	23.7311
1307.72	22.6775
1307.99	22.6768
1308.27	21.6222
1308.54	22.6799
1308.81	21.6282
1309.09	21.6315
1309.36	21.6342
1309.63	22.69
1309.91	21.6333
1310.18	23.7434
1310.45	21.6335
1310.73	22.6901
1311	20.5804
1311.27	19.526
1311.54	21.6403
1311.82	25.8672
1312.09	21.6462
1312.36	23.7589
1312.64	22.6994
1312.91	21.6417
1313.18	22.6963
1313.45	21.6388
1313.73	21.6381
1314	21.6389
1314.27	22.6964
1314.55	20.5876
1314.82	22.7019
1315.09	24.8169
1315.36	20.5955
1315.64	21.6525
1315.91	23.7636
1316.18	19.538
1316.46	20.5934
1316.73	19.5371
1317	20.5949
1317.28	19.5412
1317.55	20.5991
1317.82	22.713
1318.09	19.5444
1318.37	21.6576
1318.64	20.6008
1318.91	22.713
1319.18	21.6558
1319.46	23.7692
1319.73	21.6572
1320	22.7131
1320.27	23.7671
1320.55	18.482
1320.82	18.4773
1321.09	16.3606
1321.36	18.4675
1321.64	21.628
1321.91	21.624
1322.18	20.5663
1322.45	20.5636
1322.73	22.668
1323	21.6142
1323.27	23.7245
1323.54	19.5075
1323.82	20.5615
1324.09	21.6163
1324.36	19.5067
1324.63	22.6718
1324.91	23.7232
1325.18	19.4982
1325.45	19.4886
1325.72	24.7374
1325.99	20.5181
1326.27	21.5662
1326.54	22.6213
1326.81	23.6891
1327.08	21.5925
1327.36	18.439
1327.63	22.6621
1327.9	25.8347
1328.17	17.405
1328.45	22.6852
1328.72	21.6258
1328.99	20.5735
1329.26	21.6283
1329.53	22.682
1329.81	19.515
1330.08	20.5666
1330.35	18.4533
1330.62	23.7193
1330.9	23.7114
1331.17	21.5939
1331.44	21.5854
1331.71	22.6322
1331.98	22.6257
1332.26	17.3583
1332.53	24.7134
1332.8	19.4488
1333.07	19.4427
1333.34	18.3865
1333.62	20.482
1333.89	20.4767
1334.16	19.4216
1334.43	21.5165
1334.7	20.463
1334.98	22.5574
1335.25	23.6024
1335.52	18.3544
1335.79	21.4975
1336.06	22.5431
1336.34	22.5402
1336.61	19.3932
1336.88	21.4879
1337.15	23.5822
1337.42	22.5304
1337.69	22.5237
1337.96	22.5202
1338.24	20.4224
1338.51	19.372
1338.78	20.4182
1339.05	21.4654
1339.32	22.514
1339.6	22.5149
1339.87	21.4681
1340.14	23.5636
1340.41	20.422
1340.68	21.4684
1340.95	20.42
1341.23	21.4652
1341.5	20.4153
1341.77	19.3647
1342.04	23.546
1342.31	22.4935
1342.58	21.4429
1342.86	19.3492
1343.13	19.3483
1343.4	24.5772
1343.67	18.3023
1343.94	24.5777
1344.21	22.485
1344.48	22.4819
1344.76	20.3865
1345.03	19.3358
1345.3	20.3751
1345.57	19.3246
1345.84	22.4488
1346.11	17.221
1346.39	22.433
1346.66	21.383
1346.93	20.334
1347.2	18.2444
1347.47	22.4113
1347.74	20.3245
1348.01	24.4917
1348.28	19.2785
1348.55	20.317
1348.83	24.48
1349.1	25.5169
1349.37	24.471
1349.64	23.4255
1349.91	21.3394
1350.18	23.4163
1350.45	17.1677
1350.73	19.2448
1351	23.4007
1351.27	23.3973
1351.54	20.2768
1351.81	21.3179
1352.08	22.3617
1352.35	23.4084
1352.62	20.291
1352.89	25.5086
1353.17	21.3653
1353.44	25.5282
1353.71	21.3322
1353.98	22.3443
1354.25	21.2993
1354.52	20.2629
1354.79	24.4148
1355.06	20.2511
1355.33	24.4095
1355.6	19.2243
1355.88	19.2185
1356.15	24.4101
1356.42	24.408
1356.69	19.2132
1356.96	21.2878
1357.23	25.4378
1357.5	25.4336
1357.77	22.3153
1358.04	20.2359
1358.31	25.4203
1358.58	22.3027
1358.86	24.3736
1359.13	21.2593
1359.4	23.3294
1359.67	26.4316
1359.94	24.3519
1360.21	20.2019
1360.48	24.3431
1360.75	21.2347
1361.02	22.2703
1361.29	25.3763
1361.56	25.3743
1361.83	23.2999
1362.1	22.2624
1362.37	22.2607
1362.65	24.3321
1362.92	25.3707
1363.19	21.2322
1363.46	21.2345
1363.73	23.3078
1364	25.378
1364.27	25.3759
1364.54	27.4434
1364.81	27.4377
1365.08	25.3611
1365.35	28.4599
1365.62	22.2456
1365.89	21.2061
1366.16	24.3031
1366.43	28.4306
1366.7	19.1212
1366.97	23.2531
1367.24	23.2536
1367.52	23.2565
1367.79	27.3927
1368.06	26.3607
1368.33	36.7004
1368.6	41.8726
1368.87	37.7399
1369.14	36.7048
1369.41	31.5311
1369.68	28.4265
1369.95	27.3876
1370.22	25.3157
1370.49	28.4113
1370.76	22.2072
1371.03	28.3957
1371.3	26.321
1371.57	23.2154
1371.84	26.3013
1372.11	28.3558
1372.38	26.2881
1372.65	26.2843
1372.92	29.3728
1373.19	28.3391
1373.46	31.4278
1373.73	26.2737
1374	31.4233
1374.27	29.3607
1374.54	30.3876
1374.81	30.3868
1375.08	32.4501
1375.35	28.3303
1375.62	32.4525
1375.89	29.3576
1376.16	31.4102
1376.43	36.5488
1376.7	32.4171
1376.97	34.473
1377.24	31.3922
1377.51	31.4029
1377.78	34.5072
1378.05	36.5882
1378.32	36.5995
1378.59	33.5079
1378.86	35.5664
1379.13	37.6232
1379.4	40.7087
1379.67	37.6058
1379.94	37.5776
1380.21	40.6442
1380.48	38.5666
1380.75	43.7129
1381.02	42.6798
1381.29	42.6627
1381.56	46.7515
1381.83	43.6493
1382.1	44.6602
1382.37	46.6946
1382.64	47.7073
1382.91	47.6919
1383.18	45.6319
1383.45	51.7743
1383.72	61.0012
1383.99	54.8525
1384.26	67.1667
1384.53	70.2569
1384.8	80.5475
1385.07	93.9123
1385.34	129.872
1385.61	169.928
1385.87	246.993
1386.14	407.258
1386.41	620.932
1386.68	917.688
1386.95	913.906
1387.22	592.976
1387.49	343.817
1387.76	180.476
1388.03	123.426
1388.3	93.8403
1388.57	70.332
1388.84	54.9258
1389.11	53.916
1389.38	44.666
1389.65	45.666
1389.92	40.4958
1390.19	37.4353
1390.46	32.2882
1390.73	36.3826
1390.99	31.2581
1391.26	33.3012
1391.53	31.2438
1391.8	30.2119
1392.07	27.1346
1392.34	26.1069
1392.61	29.1747
1392.88	31.2189
1393.15	28.1456
1393.42	30.19
1393.69	27.1179
1393.96	25.0697
1394.23	28.138
1394.5	26.092
1394.76	27.1205
1395.03	25.0771
1395.3	26.1029
1395.57	28.1502
1395.84	25.0776
1396.11	27.122
1396.38	25.0719
1396.65	28.1378
1396.92	24.0402
1397.19	28.1285
1397.46	24.0361
1397.73	21.9913
1397.99	25.0624
1398.26	23.0187
1398.53	26.0894
1398.8	24.046
1399.07	25.0728
1399.34	19.958
1399.61	20.9822
1399.88	22.0074
1400.14	28.1549
1400.41	25.0879
1400.68	24.0646
1400.95	27.1382
1401.22	28.1637
1401.49	26.1206
1401.76	25.1081
1402.03	18.9705
1402.3	26.1619
1402.57	22.0662
1402.83	25.1509
1403.1	25.1527
1403.37	28.2295
1403.64	28.2171
1403.91	25.1361
1404.18	23.0843
1404.45	28.2113
1404.72	24.1042
1404.99	24.0999
1405.25	30.2477
1405.52	32.2931
1405.79	30.239
1406.06	30.2362
1406.33	29.2114
1406.6	34.3384
1406.87	39.467
1407.13	37.4194
1407.4	40.4975
1407.67	53.8292
1407.94	56.9085
1408.21	64.0907
1408.48	67.173
1408.75	57.9483
1409.01	48.7218
1409.28	34.364
1409.55	36.4174
1409.82	30.2585
1410.09	31.2767
1410.36	23.066
1410.62	23.06
1410.89	26.1298
1411.16	26.1259
1411.43	24.0748
1411.7	26.1258
1411.97	26.1316
1412.23	25.1168
1412.5	25.1451
1412.77	22.0882
1413.04	22.084
1413.31	21.0235
1413.58	19.9939
1413.84	21.0313
1414.11	22.0725
1414.38	24.1256
1414.65	21.0465
1414.92	23.1001
1415.19	23.1004
1415.45	24.1289
1415.72	22.0774
1415.99	21.0527
1416.26	20.0278
1416.53	21.0574
1416.8	21.06
1417.06	20.0352
1417.33	20.0369
1417.6	19.0099
1417.87	20.0379
1418.14	20.0397
1418.4	25.1778
1418.67	19.0132
1418.94	19.0121
1419.21	17.9815
1419.48	21.0597
1419.74	20.029
1420.01	24.133
1420.28	21.0476
1420.55	17.9639
1420.82	22.0668
1421.08	21.0405
1421.35	22.0702
1421.62	21.0526
1421.89	23.112
1422.16	20.0402
1422.42	24.1664
1422.69	21.1048
1422.96	20.0778
1423.23	24.0783
1423.5	21.0303
1423.76	22.036
1424.03	20.9945
1424.3	16.9121
1424.57	21.0093
1424.83	21.037
1425.1	22.0415
1425.37	17.9536
1425.64	24.1075
1425.91	18.9765
1426.17	22.0481
1426.44	22.0426
1426.71	18.9615
1426.98	24.0785
1427.24	19.9714
1427.51	20.9916
1427.78	20.9895
1428.05	20.9894
1428.32	24.0622
1428.58	22.0162
1428.85	17.922
1429.12	17.9246
1429.38	18.9525
1429.65	21.0067
1429.92	16.9122
1430.19	18.9666
1430.46	22.051
1430.72	20.0083
1430.99	23.0921
1431.26	23.0939
1431.53	18.9864
1431.79	18.982
1432.06	20.0042
1432.33	16.9235
1432.6	19.9931
1432.86	19.9854
1433.13	21.0015
1433.4	22.0192
1433.67	20.992
1433.93	22.0199
1434.2	19.9806
1434.47	18.957
1434.73	19.9823
1435	17.9327
1435.27	22.0309
1435.54	19.9805
1435.8	24.0776
1436.07	21.0023
1436.34	18.9516
1436.6	19.9743
1436.87	19.9733
1437.14	18.9479
1437.41	17.9222
1437.67	17.9225
1437.94	19.9732
1438.21	17.9269
1438.48	17.928
1438.74	23.0514
1439.01	19.9803
1439.28	23.0588
1439.54	18.9645
1439.81	25.12
1440.08	19.9953
1440.35	22.047
1440.61	15.8951
1440.88	17.9458
1441.15	17.9435
1441.41	22.0424
1441.68	15.8926
1441.95	18.9704
1442.21	19.9987
1442.48	18.9733
1442.75	22.0467
1443.02	19.9929
1443.28	19.9907
1443.55	16.9142
1443.82	19.99
1444.08	19.9942
1444.35	17.9481
1444.62	18.9798
1444.88	17.955
1445.15	20.0054
1445.42	18.9779
1445.69	23.0794
1445.95	20.0007
1446.22	19.9993
1446.49	18.9723
1446.75	18.9707
1447.02	17.9432
1447.28	18.9665
1447.55	22.0411
1447.82	17.9425
1448.09	18.9721
1448.35	18.9745
1448.62	20.0006
1448.89	17.9483
1449.15	16.9209
1449.42	15.8931
1449.69	15.8904
1449.95	17.9389
1450.22	16.9126
1450.49	17.9363
1450.75	21.0095
1451.02	19.9828
1451.29	18.9562
1451.55	21.0039
1451.82	19.9782
1452.09	18.9537
1452.35	18.9543
1452.62	16.9069
1452.88	18.9585
1453.15	17.9346
1453.42	23.0577
1453.68	17.9326
1453.95	18.9572
1454.22	16.9079
1454.48	18.9573
1454.75	21.0054
1455.02	17.9307
1455.28	19.9832
1455.55	15.8863
1455.81	21.0116
1456.08	18.961
1456.35	17.9335
1456.61	22.0286
1456.88	17.9287
1457.15	13.8298
1457.41	19.9753
1457.68	16.9022
1457.95	17.9269
1458.21	16.9034
1458.48	18.9535
1458.74	18.9541
1459.01	16.9059
1459.28	16.9056
1459.54	16.9047
1459.81	18.9525
1460.08	21
1460.34	20.9981
1460.61	18.9471
1460.87	19.9689
1461.14	20.9903
1461.41	16.8919
1461.67	16.8891
1461.94	18.9327
1462.2	18.9288
1462.47	19.9476
1462.74	16.8749
1463	21.9833
1463.27	19.9352
1463.54	20.9608
1463.8	15.8568
1464.07	17.9094
1464.33	19.9634
1464.6	16.9003
1464.86	16.8603
1465.13	17.8641
1465.4	17.8554
1465.66	17.8628
1465.93	19.907
1466.19	15.8172
1466.46	18.8708
1466.73	15.814
1466.99	16.8334
1467.26	17.8524
1467.52	19.8915
1467.79	17.851
1468.05	18.8708
1468.32	20.9103
1468.59	18.8687
1468.85	18.8666
1469.12	17.8442
1469.38	20.8983
1469.65	16.817
1469.92	15.7954
1470.18	18.8505
1470.45	18.8486
1470.71	15.7911
1470.98	17.825
1471.24	21.8957
1471.51	18.8387
1471.77	16.8014
1472.04	15.7827
1472.31	20.8734
1472.57	17.818
1472.84	19.8521
1473.1	15.7773
1473.37	18.8287
1473.64	18.8269
1473.9	18.8263
1474.17	15.7742
1474.43	18.8293
1474.7	16.7942
1474.96	16.794
1475.23	17.8107
1475.49	15.7734
1475.76	16.789
1476.02	16.7877
1476.29	18.8204
1476.55	20.8513
1476.82	18.8148
1477.09	19.831
1477.35	17.7966
1477.62	14.7449
1477.88	18.8093
1478.15	16.773
1478.41	16.7706
1478.68	18.8004
1478.94	17.7811
1479.21	18.7933
1479.47	17.7738
1479.74	15.7379
1480	19.7931
1480.27	16.7441
1480.53	19.7859
1480.8	18.7688
1481.07	20.7975
1481.33	20.8004
1481.6	14.715
1481.86	15.7329
1482.12	15.7357
1482.39	17.7673
1482.65	15.7379
1482.92	13.7084
1483.19	19.8017
1483.45	22.8477
1483.72	17.766
1483.98	19.7868
1484.25	16.7284
1484.51	19.7453
1484.78	16.6942
1485.04	17.6932
1485.31	16.702
1485.57	17.7325
1485.84	16.7257
1486.1	19.7555
1486.37	17.7283
1486.63	16.7203
1486.9	17.7313
1487.16	23.8046
1487.43	20.7622
1487.69	17.7212
1487.96	20.7551
1488.22	20.7503
1488.49	18.722
1488.75	18.7195
1489.02	19.7295
1489.28	17.7046
1489.54	15.6808
1489.81	16.6924
1490.07	16.6912
1490.34	17.6997
1490.6	16.685
1490.87	18.705
1491.13	17.6928
1491.4	18.7034
1491.66	17.6931
1491.93	17.693
1492.19	16.6812
1492.46	18.7024
1492.72	16.6805
1492.99	17.6905
1493.25	18.7005
1493.52	15.6679
1493.78	16.6795
1494.04	16.681
1494.31	15.6702
1494.57	16.6794
1494.84	17.6861
1495.1	16.6697
1495.37	17.6743
1495.63	15.6511
1495.9	16.6583
1496.16	15.6469
1496.43	20.6911
1496.69	17.6624
1496.96	15.6439
1497.22	16.6524
1497.48	18.6702
1497.75	17.661
1498.01	19.6797
1498.28	16.6526
1498.54	16.6532
1498.81	17.6635
1499.07	18.6744
1499.33	17.6667
1499.6	16.6581
1499.86	18.6774
1500.13	19.6864
1500.39	17.6669
1500.66	17.666
1500.92	14.6345
1501.18	17.6606
1501.45	20.6875
1501.71	21.696
1501.98	15.6405
1502.24	17.6555
1502.51	14.6253
1502.77	16.6412
1503.03	16.6377
1503.3	21.6778
1503.56	18.6548
1503.83	16.6391
1504.09	17.648
1504.35	17.6477
1504.62	19.6629
1504.88	15.6275
1505.15	17.6407
1505.41	20.6556
1505.68	16.6233
1505.94	17.6302
1506.2	15.6147
1506.47	16.6253
1506.73	16.626
1507	18.6423
1507.26	18.6427
1507.52	18.6417
1507.79	18.6402
1508.05	17.6327
1508.32	18.641
1508.58	17.6339
1508.84	18.6415
1509.11	20.6562
1509.37	16.6264
1509.63	18.6459
1509.9	17.6346
1510.16	17.6316
1510.43	17.6277
1510.69	18.6306
1510.95	18.6245
1511.22	17.6089
1511.48	19.6106
1511.75	19.6015
1512.01	16.5773
1512.27	16.5729
1512.54	17.5731
1512.8	14.5575
1513.07	14.5553
1513.33	22.5868
1513.59	15.5674
1513.86	18.5846
1514.12	15.5696
1514.38	19.5844
1514.65	19.5785
1514.91	20.5781
1515.17	20.572
1515.44	19.5626
1515.7	16.5484
1515.96	17.5494
1516.23	17.548
1516.49	16.544
1516.76	19.5511
1517.02	16.5433
1517.28	16.5441
1517.55	18.5522
1517.81	17.5513
1518.07	18.5554
1518.34	16.5505
1518.6	20.5643
1518.86	15.5499
1519.13	18.5608
1519.39	19.5642
1519.65	17.5565
1519.92	19.5615
1520.18	16.5521
1520.44	16.5535
1520.71	17.5585
1520.97	19.5663
1521.23	19.5661
1521.5	19.5648
1521.76	14.5467
1522.02	17.5544
1522.29	19.5585
1522.55	16.5472
1522.81	18.5484
1523.08	17.5396
1523.34	18.536
1523.6	16.5284
1523.87	18.5284
1524.13	21.5295
1524.39	16.5227
1524.66	16.524
1524.92	15.5232
1525.18	17.528
1525.45	17.531
1525.71	20.5411
1525.97	18.5413
1526.24	18.5438
1526.5	18.5441
1526.76	18.5424
1527.02	17.5385
1527.29	16.535
1527.55	18.5378
1527.81	19.5378
1528.08	18.5339
1528.34	16.5286
1528.6	17.5292
1528.87	18.5304
1529.13	19.5312
1529.39	15.5228
1529.65	17.5242
1529.92	15.5221
1530.18	15.5246
1530.44	18.5332
1530.71	19.5384
1530.97	19.5399
1531.23	18.5371
1531.5	16.5332
1531.76	19.5375
1532.02	16.5322
1532.28	18.5399
1532.55	17.5435
1532.81	15.5438
1533.07	17.553
1533.34	19.5611
1533.6	16.5521
1533.86	17.5546
1534.12	19.5596
1534.39	17.5518
1534.65	20.5589
1534.91	19.5535
1535.17	19.5456
1535.44	15.5305
1535.7	16.5285
1535.96	19.5278
1536.22	16.5176
1536.49	18.5132
1536.75	17.5092
1537.01	20.5062
1537.28	18.5048
1537.54	17.5024
1537.8	18.4971
1538.06	17.4944
1538.33	17.4922
1538.59	19.4938
1538.85	17.5025
1539.11	18.5156
1539.38	19.5277
1539.64	19.5362
1539.9	18.5427
1540.16	20.554
1540.43	18.5531
1540.69	20.5525
1540.95	20.55
1541.21	19.5435
1541.48	16.5326
1541.74	19.5337
1542	18.5274
1542.26	19.5243
1542.52	18.5189
1542.79	19.5155
1543.05	20.5105
1543.31	18.5022
1543.57	20.5013
1543.84	15.5016
1544.1	17.5044
1544.36	19.5107
1544.62	20.5155
1544.89	15.5175
1545.15	18.5261
1545.41	17.5273
1545.67	18.5316
1545.93	17.5294
1546.2	17.5295
1546.46	18.5331
1546.72	17.5332
1546.98	19.54
1547.25	16.533
1547.51	17.5253
1547.77	18.5249
1548.03	21.5273
1548.29	19.5341
1548.56	18.5216
1548.82	18.5008
1549.08	18.4905
1549.34	16.4968
1549.61	21.5127
1549.87	21.5455
1550.13	13.5429
1550.39	18.5859
1550.65	17.572
1550.91	18.5759
1551.18	20.583
1551.44	19.5699
1551.7	18.571
1551.96	15.5682
1552.22	17.5763
1552.49	18.5792
1552.75	19.5681
1553.01	19.5623
1553.27	18.5579
1553.53	17.552
1553.79	17.5474
1554.06	19.5471
1554.32	18.537
1554.58	19.5356
1554.84	21.5373
1555.1	21.5366
1555.37	18.5323
1555.63	17.5322
1555.89	21.5358
1556.15	17.5286
1556.41	18.5313
1556.68	19.5343
1556.94	18.5333
1557.2	16.5293
1557.46	17.5294
1557.72	20.5275
1557.98	15.5174
1558.25	22.5178
1558.51	17.5083
1558.77	20.504
1559.03	17.4993
1559.29	17.496
1559.55	18.4929
1559.82	21.4893
1560.08	18.4892
1560.34	19.4872
1560.6	17.488
1560.86	17.4884
1561.12	17.4911
1561.38	20.494
1561.65	18.5012
1561.91	19.503
1562.17	16.5021
1562.43	18.5009
1562.69	18.5012
1562.95	19.5003
1563.21	18.4985
1563.48	20.5026
1563.74	16.5086
1564	19.5144
1564.26	18.5141
1564.52	18.5084
1564.78	18.4844
1565.04	16.4493
1565.3	18.4051
1565.57	17.4551
1565.83	19.4938
1566.09	20.4948
1566.35	19.4808
1566.61	20.4865
1566.87	19.5057
1567.13	17.5081
1567.39	20.4968
1567.66	18.4945
1567.92	17.4972
1568.18	16.4991
1568.44	20.4986
1568.7	18.4933
1568.96	17.4888
1569.22	17.4876
1569.48	21.4861
1569.75	21.487
1570.01	20.488
1570.27	18.489
1570.53	18.4884
1570.79	17.4878
1571.05	18.4847
1571.31	17.4823
1571.57	18.4801
1571.83	17.4796
1572.1	18.4752
1572.36	20.4692
1572.62	19.468
1572.88	19.4649
1573.14	16.4677
1573.4	19.4609
1573.66	19.4634
1573.92	20.4659
1574.18	19.4721
1574.44	21.4746
1574.7	18.4827
1574.97	19.4859
1575.23	16.4897
1575.49	19.487
1575.75	20.4858
1576.01	21.4837
1576.27	18.4815
1576.53	18.4748
1576.79	20.4646
1577.05	17.4636
1577.31	19.4532
1577.57	20.4444
1577.83	17.4485
1578.1	19.4406
1578.36	17.4463
1578.62	19.44
1578.88	20.4369
1579.14	21.4345
1579.4	18.446
1579.66	16.4534
1579.92	20.443
1580.18	18.4483
1580.44	21.438
1580.7	19.4408
1580.96	19.4383
1581.22	19.4349
1581.48	17.4376
1581.74	19.4283
1582	21.4195
1582.26	18.4293
1582.53	17.4319
1582.79	18.4273
1583.05	19.4231
1583.31	16.4334
1583.57	18.4246
1583.83	19.4218
1584.09	19.4232
1584.35	20.4203
1584.61	21.4167
1584.87	21.4157
1585.13	21.4151
1585.39	18.4259
1585.65	21.4098
1585.91	18.4177
1586.17	23.3908
1586.43	19.4065
1586.69	18.4092
1586.95	21.3924
1587.21	19.4011
1587.47	18.4059
1587.73	17.412
1587.99	23.3841
1588.25	18.4113
1588.51	19.409
1588.77	20.4069
1589.03	16.4269
1589.29	20.4104
1589.55	18.419
1589.81	19.4156
1590.07	19.4177
1590.33	19.42
1590.59	19.4199
1590.85	20.4158
1591.12	17.4272
1591.38	21.4089
1591.64	21.4052
1591.9	20.4035
1592.16	21.3929
1592.42	21.39
1592.68	20.3888
1592.94	18.3928
1593.2	20.3724
1593.46	20.366
1593.72	20.3622
1593.98	23.3409
1594.24	18.376
1594.5	18.3796
1594.76	19.3759
1595.02	20.3725
1595.28	18.377
1595.54	18.3747
1595.8	22.3474
1596.06	19.3678
1596.32	18.375
1596.58	18.3761
1596.84	20.3643
1597.09	20.3664
1597.35	18.3797
1597.61	19.3718
1597.87	18.3759
1598.13	22.3434
1598.39	23.3304
1598.65	19.3554
1598.91	18.3596
1599.17	20.341
1599.43	19.3454
1599.69	22.3181
1599.95	22.3141
1600.21	21.3177
1600.47	19.3291
1600.73	18.3319
1600.99	20.307
1601.25	21.2913
1601.51	18.3163
1601.77	19.3026
1602.03	23.2574
1602.29	21.273
1602.55	19.2897
1602.81	18.2967
1603.07	20.2718
1603.33	18.2922
1603.59	21.2575
1603.85	21.2576
1604.11	21.2582
1604.37	19.2809
1604.63	22.2476
1604.89	20.2706
1605.14	19.2828
1605.4	21.263
1605.66	22.2547
1605.92	19.29
1606.18	23.2495
1606.44	18.3045
1606.7	17.3159
1606.96	19.2949
1607.22	20.2457
1607.48	26.1139
1607.74	23.2226
1608	22.2219
1608.26	16.505
1608.52	21.9807
1608.78	21.3316
1609.04	18.6708
1609.29	19.0988
1609.55	23.0191
1609.81	21.7854
1610.07	18.9009
1610.33	21.9341
1610.59	21.0816
1610.85	20.2324
1611.11	20.2977
1611.37	20.3187
1611.63	21.3853
1611.89	19.3114
1612.15	21.9542
1612.4	21.0349
1612.66	23.2802
1612.92	20.2351
1613.18	20.6423
1613.44	22.3044
1613.7	20.1045
1613.96	20.3525
1614.22	22.2798
1614.48	21.762
1614.74	19.1634
1615	20.5705
1615.25	19.4078
1615.51	20.4342
1615.77	20.8177
1616.03	19.3715
1616.29	19.6966
1616.55	21.918
1616.81	20.6929
1617.07	21.7679
1617.33	20.3111
1617.59	18.3558
1617.84	19.7881
1618.1	21.6635
1618.36	21.0114
1618.62	18.9966
1618.88	21.1396
1619.14	19.4423
1619.4	20.152
1619.66	19.0579
1619.91	22.4412
1620.17	21.637
1620.43	21.2622
1620.69	20.9011
1620.95	17.8599
1621.21	19.0169
1621.47	21.7473
1621.73	21.1365
1621.98	21.5125
1622.24	20.8142
1622.5	19.8176
1622.76	19.8889
1623.02	22.3666
1623.28	21.1188
1623.54	21.8792
1623.79	21.4368
1624.05	19.981
1624.31	21.6656
1624.57	21.2462
1624.83	21.4541
1625.09	20.985
1625.35	19.9517
1625.6	20.1467
1625.86	20.9115
1626.12	21.3583
1626.38	21.0253
1626.64	21.0228
1626.9	22.8324
1627.16	20.9295
1627.41	23.3935
1627.67	21.5177
1627.93	18.563
1628.19	20.9526
1628.45	19.9172
1628.71	18.1313
1628.96	21.2844
1629.22	21.1373
1629.48	19.469
1629.74	21.0484
1630	18.339
1630.26	21.1581
1630.51	20.1287
1630.77	18.3009
1631.03	17.316
1631.29	19.1389
1631.3	19.2137
1631.56	19.2172
1631.82	23.1592
1632.08	20.2069
1632.34	20.2166
1632.6	20.2131
1632.86	21.1883
1633.13	23.1549
1633.39	23.1573
1633.65	20.2044
1633.91	20.2059
1634.17	18.2353
1634.43	22.178
1634.69	21.1916
1634.96	20.2049
1635.22	23.16
1635.48	19.216
1635.74	21.1844
1636	20.1966
1636.26	20.1939
1636.52	20.1909
1636.79	22.1565
1637.05	20.1849
1637.31	22.1536
1637.57	23.1362
1637.83	23.1339
1638.09	18.2101
1638.35	18.2104
1638.61	20.1793
1638.87	17.2261
1639.13	21.1635
1639.4	21.1633
1639.66	22.1468
1639.92	17.2252
1640.18	18.2133
1640.44	19.2008
1640.7	17.2326
1640.96	23.1397
1641.22	19.1988
1641.48	22.1509
1641.75	20.1809
1642.01	22.1489
1642.27	21.1636
1642.53	20.1786
1642.79	18.2095
1643.05	21.1621
1643.31	21.1606
1643.57	22.1425
1643.83	20.1714
1644.09	18.2005
1644.35	17.2162
1644.62	24.1037
1644.88	19.1877
1645.14	20.1732
1645.4	22.1424
1645.66	21.1564
1645.92	20.17
1646.18	16.2326
1646.44	21.1501
1646.7	18.1975
1646.96	21.1458
1647.22	19.1772
1647.48	18.1929
1647.74	19.1771
1648.01	19.1801
1648.27	19.1839
1648.53	20.176
1648.79	21.1682
1649.05	19.1965
1649.31	23.1321
1649.57	19.1939
1649.83	21.1676
1650.09	20.1892
1650.35	25.1178
1650.61	22.1674
1650.87	19.2146
1651.13	21.1869
1651.39	23.1581
1651.65	24.1437
1651.92	20.2026
1652.18	18.2306
1652.44	25.1253
1652.7	20.1975
1652.96	18.227
1653.22	22.1689
1653.48	22.171
1653.74	20.2019
1654	20.2029
1654.26	19.2187
1654.52	22.1781
1654.78	25.14
1655.04	16.2717
1655.3	20.2236
1655.56	20.2291
1655.82	23.1936
1656.08	20.2349
1656.34	20.236
1656.6	24.1843
1656.86	20.2343
1657.12	20.2322
1657.38	19.2439
1657.64	18.2558
1657.9	17.2673
1658.16	21.2112
1658.42	23.181
1658.69	18.2462
1658.95	18.2435
1659.21	23.1708
1659.47	17.2512
1659.73	19.2235
1659.99	20.2119
1660.25	19.2289
1660.51	21.205
1660.77	19.2361
1661.03	18.2537
1661.29	18.2554
1661.55	20.2333
1661.81	21.1957
1662.07	21.2331
1662.33	20.273
1662.59	21.251
1662.85	17.2941
1663.11	20.263
1663.37	21.1938
1663.63	21.2194
1663.89	20.2389
1664.15	19.2516
1664.41	22.2249
1664.67	20.2579
1664.93	19.2543
1665.19	19.2159
1665.45	18.2883
1665.71	16.3172
1665.97	20.2672
1666.23	19.2753
1666.49	20.1612
1666.75	20.2383
1667.01	18.2599
1667.27	20.2299
1667.53	18.2549
1667.79	17.265
1668.05	18.2509
1668.31	22.2051
1668.56	20.2453
1668.83	17.2851
1669.09	18.2732
1669.35	18.2739
1669.6	20.2487
1669.86	20.2463
1670.12	22.2321
1670.38	20.2657
1670.64	21.2522
1670.9	19.2735
1671.16	18.2844
1671.42	20.2614
1671.68	18.2867
1671.94	20.2644
1672.2	21.2532
1672.46	18.2874
1672.72	22.2421
1672.98	20.2659
1673.24	20.2673
1673.5	15.3256
1673.76	19.2833
1674.02	21.2639
1674.28	18.2992
1674.54	22.2599
1674.8	18.3058
1675.06	19.2973
1675.32	19.2979
1675.58	20.2873
1675.83	23.2568
1676.1	22.2684
1676.35	19.3
1676.61	19.3
1676.87	16.33
1677.13	18.3078
1677.39	19.2949
1677.65	14.3449
1677.91	21.2654
1678.17	19.2836
1678.43	20.2695
1678.69	17.3012
1678.95	19.2767
1679.21	17.2979
1679.47	18.2845
1679.73	19.2714
1679.98	20.2577
1680.25	17.2914
1680.5	18.2779
1680.76	21.2407
1681.02	21.2402
1681.28	19.2643
1681.54	19.2643
1681.8	17.2886
1682.06	20.2528
1682.32	17.2885
1682.58	17.288
1682.84	17.2878
1683.1	18.2756
1683.35	20.251
1683.61	15.3109
1683.87	18.2717
1684.13	19.2576
1684.39	19.2565
1684.65	19.2558
1684.91	21.2304
1685.17	18.2679
1685.43	17.2806
1685.69	20.2434
1685.95	18.2696
1686.2	15.3102
1686.46	17.2878
1686.72	22.2282
1686.98	15.3118
1687.24	20.2488
1687.5	18.2711
1687.76	19.257
1688.02	21.2298
1688.28	18.2652
1688.54	16.2869
1688.79	19.245
1689.05	17.2681
1689.31	16.2783
1689.57	18.2472
1689.83	18.2444
1690.09	18.2493
1690.35	17.2652
1690.6	19.2403
1690.86	17.268
1691.12	16.2827
1691.38	16.2846
1691.64	21.2196
1691.9	20.2318
1692.16	19.2424
1692.42	18.2521
1692.68	16.2754
1692.93	20.2156
1693.19	21.1954
1693.45	17.2481
1693.71	20.2012
1693.97	15.2709
1694.23	17.2385
1694.49	22.1629
1694.74	17.2388
1695	18.225
1695.26	19.2112
1695.52	15.2715
1695.78	17.2442
1696.04	19.2172
1696.3	17.2464
1696.55	19.2159
1696.81	17.2421
1697.07	19.2079
1697.33	18.218
1697.59	19.1985
1697.85	17.2264
1698.11	18.2077
1698.36	17.2211
1698.62	15.2517
1698.88	15.2512
1699.14	20.1718
1699.4	18.2042
1699.66	19.1885
1699.92	20.1696
1700.17	17.2167
1700.43	18.1998
1700.69	19.1825
1700.95	17.2137
1701.21	15.2441
1701.46	16.2245
1701.72	20.154
1701.98	15.2354
1702.24	16.2153
1702.5	21.1273
1702.76	16.2135
1703.01	17.1951
1703.27	20.1411
1703.53	15.2276
1703.79	14.2461
1704.05	16.2133
1704.3	19.1621
1704.56	19.1615
1704.82	17.1951
1705.08	17.195
1705.34	18.1778
1705.6	17.1929
1705.85	17.1893
1706.11	18.1674
1706.37	19.1446
1706.63	16.1951
1706.89	18.1544
1707.14	15.2065
1707.4	14.2209
1707.66	19.1185
1707.92	15.1921
1708.18	16.1662
1708.43	17.1401
1708.69	17.1359
1708.95	17.1331
1709.21	17.1317
1709.47	18.1103
1709.72	16.1527
1709.98	18.1111
1710.24	18.1123
1710.5	16.1569
1710.76	15.1792
1711.01	17.1393
1711.27	17.1408
1711.53	19.1004
1711.79	16.1605
1712.04	17.1358
1712.3	20.065
1712.56	17.1214
1712.82	15.1581
1713.08	16.1307
1713.33	15.1467
1713.59	17.0977
1713.85	17.0954
1714.11	13.1866
1714.36	18.0694
1714.62	17.0922
1714.88	20.0245
1715.14	14.1677
1715.4	17.0991
1715.65	15.1438
1715.91	20.0263
1716.17	16.1154
1716.43	15.1347
1716.68	14.1534
1716.94	19.026
1717.2	19.0168
1717.46	15.1088
1717.71	16.0774
1717.97	14.1236
1718.23	16.0679
1718.49	18.013
1718.74	18.9859
1719	14.1177
1719.26	18.985
1719.52	16.0647
1719.78	18.0134
1720.03	15.0911
1720.29	16.062
1720.55	16.0579
1720.81	15.0811
1721.06	17.9966
1721.32	17.0199
1721.58	18.9604
1721.83	15.0672
1722.09	16.0351
1722.35	17.0028
1722.61	16.9991
1722.86	16.996
1723.12	16.0228
1723.38	14.0802
1723.64	16.0214
1723.89	16.0203
1724.15	16.0182
1724.41	19.8964
1724.66	16.9784
1724.92	18.9118
1725.18	17.9353
1725.44	16.9611
1725.69	17.9277
1725.95	15.9902
1726.21	15.9896
1726.46	15.0185
1726.72	17.9196
1726.98	15.9808
1727.24	17.9214
1727.49	16.9527
1727.75	17.9187
1728.01	15.9761
1728.27	14.0226
1728.52	16.8978
1728.78	15.9203
1729.04	16.8915
1729.29	18.8323
1729.55	14.9755
1729.81	14.969
1730.06	17.8602
1730.32	17.8577
1730.58	17.8748
1730.83	14.9798
1731.09	14.9803
1731.35	17.8794
1731.61	16.9121
1731.86	17.8768
1732.12	15.9426
1732.38	15.9403
1732.63	15.9371
1732.89	17.8637
1733.15	16.8916
1733.4	14.9545
1733.66	13.9854
1733.92	15.9095
1734.17	14.9404
1734.43	15.8991
1734.69	14.9307
1734.95	14.9262
1735.2	17.8114
1735.46	15.8831
1735.72	14.9191
1735.97	15.8801
1736.23	14.9157
1736.49	14.9137
1736.74	14.9116
1737	16.8333
1737.26	16.8313
1737.51	16.8285
1737.77	14.9021
1738.03	16.8213
1738.28	16.8178
1738.54	15.8531
1738.8	16.8092
1739.05	17.7634
1739.31	15.8359
1739.57	16.7883
1739.82	11.987
1740.08	13.9003
1740.34	16.7719
1740.59	15.81
1740.85	17.7224
1741.1	16.761
1741.36	14.8428
1741.62	16.7561
1741.88	16.755
1742.13	15.7965
1742.39	16.7521
1742.64	15.7937
1742.9	15.7933
1743.16	15.7921
1743.41	12.9183
1743.67	15.786
1743.93	14.8272
1744.18	13.8692
1744.44	15.7822
1744.69	15.7824
1744.95	15.7826
1745.21	15.7819
1745.46	16.7366
1745.72	16.7334
1745.98	15.7733
1746.23	17.6799
1746.49	14.8092
1746.74	15.7605
1747	14.8015
1747.26	16.7077
1747.51	17.6597
1747.77	15.7501
1748.03	14.7957
1748.28	16.7055
1748.54	17.6612
1748.8	15.7536
1749.05	16.7111
1749.31	12.8939
1749.56	15.7628
1749.82	15.7666
1750.08	14.8143
1750.33	14.816
1750.59	14.8175
1750.84	15.7744
1751.1	17.6847
1751.36	14.813
1751.61	14.8085
1751.87	15.76
1752.12	19.5764
1752.38	17.6625
1752.64	16.7041
1752.89	15.7465
1753.15	15.7437
1753.4	16.6952
1753.66	17.6455
1753.92	15.7344
1754.17	17.6386
1754.43	15.7295
1754.68	15.7277
1754.94	15.7257
1755.2	15.7232
1755.45	13.8145
1755.71	14.7637
1755.96	17.6166
1756.22	16.6591
1756.47	15.7021
1756.73	17.6001
1756.99	16.6463
1757.24	13.7909
1757.5	15.6935
1757.75	12.8437
1758.01	17.6029
1758.27	17.6036
1758.52	17.6039
1758.78	17.6041
1759.03	17.6051
1759.29	16.6534
1759.54	16.6523
1759.8	12.845
1760.05	16.6494
1760.31	15.6963
1760.57	14.7428
1760.82	19.4947
1761.08	16.6387
1761.33	14.7352
1761.59	14.7341
1761.84	15.6834
1762.1	16.6369
1762.36	15.6883
1762.61	16.6398
1762.87	17.5897
1763.12	12.8361
1763.38	16.6406
1763.63	13.7893
1763.89	15.6938
1764.14	14.749
1764.4	15.7031
1764.66	14.7536
1764.91	13.8032
1765.17	14.7562
1765.42	17.6131
1765.68	18.5654
1765.93	16.6609
1766.19	14.7557
1766.44	16.6583
1766.7	15.7064
1766.95	16.6571
1767.21	16.655
1767.46	17.6038
1767.72	15.6991
1767.98	16.6485
1768.23	15.697
1768.48	15.6914
1768.74	16.6327
1769	16.6244
1769.25	15.6675
1769.51	17.5669
1769.76	16.6203
1770.02	15.6758
1770.27	13.7759
1770.53	16.6272
1770.78	15.6804
1771.04	13.7853
1771.29	16.6405
1771.55	15.6903
1771.8	14.7416
1772.06	14.7446
1772.31	17.6015
1772.57	13.7976
1772.82	14.7509
1773.08	15.7044
1773.33	12.8503
1773.59	16.6593
1773.84	17.6124
1774.1	16.6613
1774.35	11.9024
1774.61	14.7605
1774.86	16.6678
1775.12	15.7218
1775.37	14.7736
1775.63	16.6825
1775.88	14.7768
1776.14	16.6829
1776.39	13.8215
1776.65	17.6314
1776.9	16.6764
1777.16	15.7209
1777.41	15.7181
1777.67	15.7152
1777.92	19.5215
1778.18	15.7092
1778.43	15.7052
1778.69	16.6524
1778.94	15.6979
1779.2	14.746
1779.45	13.798
1779.71	15.703
1779.96	16.6559
1780.21	12.85
1780.47	17.6112
1780.73	16.6599
1780.98	14.7565
1781.23	17.6141
1781.49	15.712
1781.74	15.7146
1782	15.7183
1782.25	17.6266
1782.51	14.7701
1782.76	15.7248
1783.02	14.7738
1783.27	12.8693
1783.53	16.6849
1783.78	15.7342
1784.04	14.7845
1784.29	14.7872
1784.54	15.7428
1784.8	17.6513
1785.05	15.7424
1785.31	16.6949
1785.56	13.8313
1785.82	14.7853
1786.07	15.7404
1786.33	19.5593
1786.58	15.7462
1786.84	20.5233
1787.09	14.801
1787.34	14.8099
1787.6	15.7756
1787.85	14.8296
1788.11	14.8369
1788.36	17.7117
1788.62	14.8426
1788.87	13.8906
1789.12	17.7276
1789.38	11.9798
1789.63	16.7738
1789.89	15.8179
1790.14	14.8597
1790.4	19.6522
1790.65	13.8991
1790.91	15.8045
1791.16	14.8456
1791.41	17.7168
1791.67	15.8016
1791.92	14.8447
1792.18	15.803
1792.43	13.8895
1792.68	17.7228
1792.94	16.7658
1793.19	12.9332
1793.45	13.8935
1793.7	14.8522
1793.96	16.7692
1794.21	15.8082
1794.46	16.7685
1794.72	15.8235
1794.97	15.8326
1795.23	14.8776
1795.48	13.92
1795.73	17.7633
1795.99	13.9253
1796.24	14.8887
1796.49	14.8919
1796.75	13.9339
1797	15.8586
1797.26	18.7446
1797.51	15.8628
1797.76	12.0185
1798.02	14.904
1798.27	17.7891
1798.53	15.8653
1798.78	16.8252
1799.04	12.9775
1799.29	14.8973
1799.54	15.8554
1799.8	15.8531
1800.05	14.8905
1800.3	14.8892
1800.56	15.8488
1800.81	15.8483
1801.07	16.8087
1801.32	15.8488
1801.57	14.8893
1801.83	17.7728
1802.08	14.8927
1802.33	15.8562
1802.59	13.937
1802.84	15.8629
1803.1	17.7891
1803.35	16.8294
1803.6	14.907
1803.86	15.8705
1804.11	17.7976
1804.36	13.9522
1804.62	12.9929
1804.87	16.8469
1805.13	13.9624
1805.38	13.9656
1805.63	16.8583
1805.89	14.9341
1806.14	14.9363
1806.39	16.8653
1806.65	17.8299
1806.9	15.9026
1807.15	15.9028
1807.41	16.8668
1807.66	16.8672
1807.91	15.9038
1808.17	13.0126
1808.42	16.8689
1808.67	18.7976
1808.93	19.7624
1809.18	15.9071
1809.43	16.8719
1809.69	13.9802
1809.94	19.7654
1810.2	14.9441
1810.45	14.9434
1810.7	14.9431
1810.95	15.9069
1811.21	14.9427
1811.46	12.0507
1811.71	16.8716
1811.97	13.9809
1812.22	16.8758
1812.47	15.9144
1812.73	14.9525
1812.98	13.0238
1813.23	16.885
1813.49	13.0284
1813.74	15.9281
1813.99	14.0011
1814.25	14.9722
1814.5	16.9076
1814.75	15.9443
1815.01	16.9122
1815.26	14.9803
1815.51	14.981
1815.77	13.0488
1816.02	15.9494
1816.27	16.918
1816.53	14.0168
1816.78	14.0158
1817.03	14.9756
1817.29	15.9351
1817.54	12.0724
1817.79	18.8361
1818.04	16.9086
1818.3	17.8791
1818.55	15.945
1818.8	16.9125
1819.06	14.0149
1819.31	18.8502
1819.56	15.9516
1819.81	19.821
1820.07	13.0547
1820.32	17.892
1820.57	15.9592
1820.83	17.8961
1821.08	16.9316
1821.33	16.9342
1821.58	13.0652
1821.84	15.9701
1822.09	15.9714
1822.34	15.9723
1822.6	15.0052
1822.85	15.9734
1823.1	15.0041
1823.35	15.9706
1823.61	17.9054
1823.86	15.003
1824.11	17.9086
1824.37	15.0058
1824.62	15.0074
1824.87	17.914
1825.12	14.042
1825.38	17.9162
1825.63	14.0424
1825.88	15.0111
1826.14	16.9486
1826.39	15.9805
1826.64	15.0129
1826.89	14.0457
1827.15	15.0161
1827.4	14.0488
1827.65	15.9871
1827.9	15.9865
1828.16	15.9853
1828.41	20.8264
1828.66	15.9814
1828.91	15.0122
1829.17	14.0432
1829.42	17.9162
1829.67	15.9777
1829.92	15.9758
1830.18	15.9742
1830.43	16.942
1830.68	21.7848
1830.93	13.0727
1831.19	15.9801
1831.44	15.0136
1831.69	17.9218
1831.94	14.0488
1832.2	15.9897
1832.45	15.9924
1832.7	15.9931
1832.95	15.0241
1833.2	13.0866
1833.46	15.9958
1833.71	18.9053
1833.96	16.9633
1834.21	15.986
1834.47	15.9778
1834.72	15.0025
1834.97	18.8679
1835.22	15.9609
1835.47	15.9598
1835.73	14.023
1835.98	16.9773
1836.23	17.9665
1836.48	18.9106
1836.74	16.9602
1836.99	16.9496
1837.24	14.0347
1837.49	15.9557
1837.75	15.9442
1838	16.9072
1838.25	14.995
1838.5	17.9153
1838.75	15.016
1839.01	18.8947
1839.26	17.9281
1839.51	14.055
1839.76	12.1081
1840.01	15.9701
1840.26	14.9932
1840.52	14.0186
1840.77	14.9782
1841.02	14.9715
1841.27	17.8619
1841.53	16.8901
1841.78	15.9195
1842.03	14.9497
1842.28	13.9864
1842.53	14.9504
1842.79	14.9515
1843.04	17.8456
1843.29	16.881
1843.54	13.9859
1843.79	15.9146
1844.04	16.881
1844.3	14.9524
1844.55	14.9504
1844.8	16.8796
1845.05	17.8444
1845.3	13.9911
1845.56	15.9279
1845.81	14.9687
1846.06	15.945
1846.31	16.9055
1846.56	15.9188
1846.81	12.0393
1847.06	15.8835
1847.32	15.8828
1847.57	14.9269
1847.82	14.9346
1848.07	13.0023
1848.32	14.924
1848.58	14.9241
1848.83	17.8098
1849.08	12.9928
1849.33	13.9508
1849.58	14.9087
1849.83	14.9029
1850.08	14.8985
1850.34	13.9336
1850.59	12.9698
1850.84	15.8489
1851.09	12.9653
1851.34	15.8448
1851.59	12.9632
1851.85	17.7642
1852.1	16.8041
1852.35	12.9632
1852.6	15.8436
1852.85	16.8028
1853.1	12.9609
1853.36	17.7581
1853.61	14.8744
1853.86	14.8697
1854.11	14.8651
1854.36	14.8625
1854.61	12.9431
1854.86	18.6906
1855.11	15.8097
1855.37	15.8063
1855.62	14.847
1855.87	14.8461
1856.12	15.8039
1856.37	16.7618
1856.62	16.7611
1856.87	13.8867
1857.13	15.8003
1857.38	14.841
1857.63	14.8388
1857.88	17.7074
1858.13	11.9617
1858.38	18.656
1858.63	14.8256
1858.88	14.8218
1859.14	16.7309
1859.39	14.8182
1859.64	16.7305
1859.89	13.863
1860.14	12.9092
1860.39	17.6938
1860.64	13.8701
1860.89	14.8294
1861.14	17.7028
1861.39	15.7902
1861.64	16.7466
1861.9	13.8739
1862.15	17.6976
1862.4	15.7806
1862.65	16.733
1862.9	17.6851
1863.15	12.9025
1863.4	12.9
1863.65	12.8977
1863.9	15.761
1864.16	16.7133
1864.41	15.7551
1864.66	16.7058
1864.91	14.7923
1865.16	14.7874
1865.41	12.8746
1865.66	16.6823
1865.91	16.6752
1866.16	17.6206
1866.41	15.7091
1866.66	13.7993
1866.92	16.6479
1867.17	16.6427
1867.42	14.7379
1867.67	13.7854
1867.92	15.6857
1868.17	14.7351
1868.42	16.6373
1868.67	16.6374
1868.92	15.686
1869.17	16.6357
1869.42	15.6842
1869.67	16.6339
1869.92	16.6331
1870.17	17.5828
1870.42	15.6816
1870.68	17.5822
1870.93	13.7798
1871.18	15.6788
1871.43	14.7262
1871.68	15.6742
1871.93	14.7228
1872.18	16.6198
1872.43	14.7174
1872.68	15.6646
1872.93	15.6637
1873.18	15.6626
1873.43	16.6097
1873.68	17.5557
1873.93	18.5006
1874.18	13.7535
1874.43	15.6466
1874.68	17.5384
1874.93	15.638
1875.18	18.4749
1875.44	16.5714
1875.69	13.7249
1875.94	18.452
1876.19	14.6633
1876.44	16.5527
1876.69	12.7637
1876.94	15.5907
1877.19	15.5745
1877.44	18.4142
1877.69	15.631
1877.94	10.8901
1878.19	16.5589
1878.44	16.5567
1878.69	14.6757
1878.94	17.5263
1879.19	13.7344
1879.44	15.6238
1879.69	18.4628
1879.94	14.6747
1880.19	13.7304
1880.44	16.5689
1880.69	15.6207
1880.94	14.6689
1881.19	13.7158
1881.44	14.6544
1881.69	16.5365
1881.94	15.5826
1882.19	15.572
1882.44	14.6231
1882.69	13.6707
1882.94	16.5884
1883.19	16.5479
1883.44	11.7847
1883.69	18.3774
1883.94	12.7295
1884.19	16.4956
1884.44	16.4993
1884.69	15.5643
1884.94	17.4545
1885.19	14.626
1885.44	18.4085
1885.69	15.5808
1885.94	15.5835
1886.19	16.5271
1886.44	15.5768
1886.69	15.5729
1886.94	15.5693
1887.19	15.5656
1887.44	15.5616
1887.69	14.6145
1887.94	14.6088
1888.19	16.488
1888.44	13.6572
1888.69	15.5358
1888.94	14.5914
1889.19	14.591
1889.44	15.5313
1889.69	16.4738
1889.94	14.5943
1890.19	15.54
1890.44	9.88998
1890.69	12.7155
1890.94	16.4812
1891.19	19.3065
1891.44	14.5967
1891.69	14.5958
1891.94	15.5372
1892.19	13.6521
1892.44	13.6495
1892.69	16.4684
1892.94	16.4592
1893.19	17.3906
1893.43	16.4466
1893.69	14.5713
1893.93	15.5053
1894.18	15.5023
1894.43	15.5008
1894.68	17.3801
1894.93	14.5628
1895.18	13.6247
1895.43	15.5058
1895.68	16.4477
1895.93	16.4503
1896.18	14.5732
1896.43	16.4566
1896.68	14.5779
1896.93	14.5794
1897.18	12.699
1897.43	13.6397
1897.68	16.4609
1897.93	12.6971
1898.17	15.5161
1898.42	13.6324
1898.67	14.5688
1898.92	14.5658
1899.17	16.4435
1899.42	16.4416
1899.67	10.8029
1899.92	14.5599
1900.17	16.4389
1900.42	16.4405
1900.67	13.6243
1900.92	16.4468
1901.17	17.3899
1901.42	16.4534
1901.67	17.3975
1901.91	15.5207
1902.16	18.3434
1902.41	13.6388
1902.66	15.5186
1902.91	17.3975
1903.16	14.575
1903.41	14.574
1903.66	15.5136
1903.91	14.5729
1904.16	14.5725
1904.41	16.452
1904.66	12.691
1904.9	16.4511
1905.15	19.2705
1905.4	15.5071
1905.65	16.4403
1905.9	17.3773
1906.15	15.4969
1906.4	12.6779
1906.65	15.4941
1906.9	13.6159
1907.15	13.6169
1907.39	16.4359
1907.64	15.5
1907.89	13.6226
1908.14	15.5024
1908.39	14.5643
1908.64	16.4461
1908.89	13.6295
1909.14	12.6927
1909.39	13.637
1909.63	13.6415
1909.88	13.6463
1910.13	14.5923
1910.38	15.5375
1910.63	14.5983
1910.88	13.658
1911.13	18.3687
1911.38	14.6008
1911.62	14.6001
1911.87	15.5408
1912.12	14.5986
1912.37	17.4241
1912.62	17.4242
1912.87	16.4829
1913.12	13.659
1913.37	14.605
1913.61	14.6098
1913.86	17.442
1914.11	15.5596
1914.36	15.5631
1914.61	16.5097
1914.86	15.5688
1915.11	15.57
1915.36	14.6263
1915.6	12.7381
1915.85	14.6243
1916.1	15.5661
1916.35	15.5628
1916.6	14.617
1916.85	15.5577
1917.1	16.4988
1917.34	15.555
1917.59	16.4979
1917.84	15.5572
1918.09	15.5606
1918.34	14.6214
1918.59	16.513
1918.84	17.4623
1919.08	18.4136
1919.33	15.5868
1919.58	16.5351
1919.83	13.7015
1920.08	15.59
1920.32	16.535
1920.57	14.6489
1920.82	17.489
1921.07	15.6012
1921.32	12.7663
1921.57	17.4965
1921.82	14.6595
1922.06	15.6043
1922.31	16.5477
1922.56	16.5453
1922.81	14.6529
1923.06	17.4876
1923.3	15.5957
1923.55	15.5937
1923.8	15.591
1924.05	16.5337
1924.3	16.5329
1924.55	16.5334
1924.79	15.5905
1925.04	17.4839
1925.29	14.6529
1925.54	16.5485
1925.79	16.5529
1926.03	18.4498
1926.28	16.5627
1926.53	20.3533
1926.78	17.5161
1927.03	15.6248
1927.27	16.5739
1927.52	14.6816
1927.77	15.6305
1928.02	16.5792
1928.27	14.6862
1928.52	15.6359
1928.76	20.3773
1929.01	16.5897
1929.26	13.7499
1929.51	15.6508
1929.75	14.7066
1930	17.5577
1930.25	14.7144
1930.5	16.615
1930.75	15.6661
1930.99	15.6652
1931.24	16.6126
1931.49	14.7121
1931.74	16.6082
1931.99	13.7592
1932.23	16.6035
1932.48	19.4486
1932.73	15.652
1932.98	15.6524
1933.22	12.8098
1933.47	12.8158
1933.72	18.5234
1933.97	15.6871
1934.22	17.6039
1934.46	15.7128
1934.71	12.8642
1934.96	14.7776
1935.21	14.783
1935.45	15.7291
1935.7	14.7725
1935.95	13.8188
1936.2	15.7231
1936.45	15.7201
1936.69	15.7164
1936.94	17.6177
1937.19	13.8056
1937.44	14.755
1937.68	16.6556
1937.93	16.6549
1938.18	14.7558
1938.43	16.6627
1938.67	16.6651
1938.92	12.8581
1939.17	17.6229
1939.42	15.7203
1939.66	12.8629
1939.91	16.6776
1940.16	16.6819
1940.41	15.738
1940.65	19.562
1940.9	14.7917
1941.15	14.7901
1941.4	14.7854
1941.64	17.6373
1941.89	16.6872
1942.14	16.7028
1942.39	15.7544
1942.63	14.8005
1942.88	13.8411
1943.13	12.8808
1943.37	15.7375
1943.62	13.8365
1943.87	15.7499
1944.12	15.7531
1944.36	16.7118
1944.61	18.6263
1944.86	17.6756
1945.1	15.7686
1945.35	14.8164
1945.6	17.6876
1945.85	13.8655
1946.09	15.7799
1946.34	16.7375
1946.59	15.781
1946.83	14.8235
1947.08	14.822
1947.33	16.734
1947.58	15.7777
1947.82	15.7776
1948.07	15.7766
1948.32	15.7771
1948.57	14.8233
1948.81	17.696
1949.06	14.8296
1949.31	16.7473
1949.55	16.7518
1949.8	16.7585
1950.05	13.892
1950.3	14.8556
1950.54	13.9026
1950.79	14.8676
1951.04	15.833
1951.28	16.798
1951.53	14.8815
1951.78	14.8839
1952.02	15.8468
1952.27	16.8071
1952.52	13.928
1952.76	13.9315
1953.01	16.8106
1953.26	15.8443
1953.5	16.7945
1953.75	16.7849
1954	16.776
1954.25	13.8936
1954.49	13.891
1954.74	14.8483
1954.98	16.7659
1955.23	14.8536
1955.48	13.901
1955.72	17.7476
1955.97	11.9959
1956.22	14.8797
1956.47	13.9225
1956.71	16.807
1956.96	13.9288
1957.21	17.7748
1957.45	14.8947
1957.7	12.0132
1957.95	14.8976
1958.19	12.9761
1958.44	16.8199
1958.69	17.778
1958.93	15.8543
1959.18	14.8928
1959.43	16.8122
1959.67	16.8096
1959.92	15.8467
1960.17	17.7646
1960.41	14.8812
1960.66	13.9186
1960.9	14.8762
1961.15	15.8343
1961.4	14.8749
1961.64	15.8355
1961.89	13.9167
1962.14	17.7566
1962.38	12.9582
1962.63	16.7984
1962.88	15.8391
1963.12	16.7997
1963.37	17.7606
1963.62	14.8823
1963.86	14.8841
1964.11	16.8047
1964.36	15.8432
1964.6	14.8833
1964.85	15.843
1965.09	14.8831
1965.34	14.8845
1965.59	13.9268
1965.83	13.9299
1966.08	16.8159
1966.33	14.8966
1966.57	15.8599
1966.82	14.8985
1967.06	14.8986
1967.31	16.8224
1967.56	13.9393
1967.8	16.8241
1968.05	16.8241
1968.3	17.784
1968.54	16.8201
1968.79	14.8943
1969.03	16.811
1969.28	16.8057
1969.53	14.8811
1969.77	16.7977
1970.02	15.8354
1970.26	14.8733
1970.51	16.7898
1970.76	14.8693
1971	17.7455
1971.25	16.785
1971.49	14.8674
1971.74	18.7061
1971.99	17.748
1972.23	13.9106
1972.48	16.7875
1972.72	15.8258
1972.97	13.9046
1973.22	14.8607
1973.46	16.7759
1973.71	17.7329
1973.95	14.8567
1974.2	16.7737
1974.45	13.8987
1974.69	15.817
1974.94	15.819
1975.18	15.8215
1975.43	15.8237
1975.68	16.7846
1975.92	15.8267
1976.17	16.7867
1976.41	15.8276
1976.66	16.7865
1976.9	19.6631
1977.15	18.702
1977.4	15.8225
1977.64	13.9024
1977.89	15.8178
1978.13	14.8575
1978.38	13.898
1978.63	11.0225
1978.87	15.8153
1979.12	16.7741
1979.36	15.8161
1979.61	16.7752
1979.85	15.8154
1980.1	13.8961
1980.34	15.8101
1980.59	14.8505
1980.84	15.8066
1981.08	16.7626
1981.33	16.7615
1981.57	14.8453
1981.82	18.6757
1982.06	15.8005
1982.31	14.8403
1982.55	18.6661
1982.8	17.7038
1983.05	14.8294
1983.29	15.7844
1983.54	14.8268
1983.78	16.7384
1984.03	16.7367
1984.27	16.7353
1984.52	16.7328
1984.76	15.7728
1985.01	15.7704
1985.25	14.8145
1985.5	16.727
1985.75	20.553
1985.99	14.8198
1986.24	14.8213
1986.48	15.7773
1986.73	16.7343
1986.97	19.6009
1987.22	15.7719
1987.46	13.8556
1987.71	18.6266
1987.95	15.7543
1988.2	17.6523
1988.44	15.7328
1988.69	16.6763
1988.93	16.6521
1989.18	14.7475
1989.42	18.4813
1989.67	15.681
1989.91	16.6138
1990.16	14.573
1990.41	12.9787
1990.65	13.8405
1990.89	17.5463
1991.14	14.0782
1991.39	16.3817
1991.63	15.6128
1991.88	13.8438
1992.12	14.1088
1992.37	15.2109
1992.61	16.8276
1992.86	17.143
1993.1	15.8944
1993.35	15.717
1993.59	13.815
1993.84	18.2901
1994.08	14.6039
1994.33	19.0453
1994.57	15.7171
1994.82	15.896
1995.06	17.7872
1995.31	13.6038
1995.55	15.9015
1995.8	15.4599
1996.04	14.7149
1996.29	17.4203
1996.53	16.6716
1996.78	14.8412
1997.02	15.605
1997.26	15.0634
1997.51	14.4745
1997.76	13.6664
1998	14.5121
1998.24	14.9278
1998.49	15.063
1998.73	14.9391
1998.98	16.6045
1999.22	14.5771
1999.47	16.7163
1999.71	15.8458
1999.96	14.7236
2000.2	15.5909
2000.45	16.6693
2000.69	15.7465
2000.94	15.1889
2001.18	15.8149
2001.43	15.428
2001.67	15.7665
2001.92	15.6807
2002.16	15.7539
2002.4	16.049
2002.65	16.4435
2002.89	15.1381
2003.14	14.2186
2003.38	15.3779
2003.63	16.0546
2003.87	14.5832
2004.12	16.1926
2004.36	16.6615
2004.6	15.8378
2004.85	14.794
2005.1	15.5762
2005.34	16.3963
2005.58	16.2949
2005.83	16.3524
2006.07	16.0563
2006.32	15.5951
2006.56	15.8273
2006.81	16.2384
2007.05	17.4909
2007.3	15.9312
2007.54	14.8358
2007.78	15.5847
2008.03	16.3379
2008.27	15.1143
2008.52	14.7767
2008.76	14.5937
2009	13.6848
2009.25	15.253
2009.49	15.9857
2009.74	13.6882
2009.98	15.5231
2010.23	14.8493
2010.47	14.8363
2010.72	15.5241
2010.96	14.6519
2011.2	14.7485
2011.45	15.5888
2011.69	16.5044
2011.94	16.4527
2012.18	15.5245
2012.42	16.4744
2012.67	17.4107
2012.92	16.4604
2013.16	14.5752
2013.41	16.45
2013.66	15.5032
2013.91	15.4953
2014.15	16.4255
2014.4	14.5459
2014.65	15.4848
2014.9	14.5481
2015.14	15.4896
2015.39	17.3694
2015.64	15.4913
2015.88	14.5525
2016.13	15.5052
2016.38	17.3881
2016.63	16.4475
2016.87	12.6863
2017.12	17.3811
2017.37	14.5582
2017.61	15.4916
2017.86	13.6081
2018.11	14.5411
2018.35	14.5359
2018.6	16.4049
2018.85	14.5245
2019.1	16.3948
2019.34	14.5193
2019.59	15.4544
2019.84	14.5175
2020.08	15.4535
2020.33	14.5163
2020.58	15.4534
2020.82	16.3912
2021.07	18.2648
2021.32	17.3275
2021.57	14.5164
2021.81	14.5145
2022.06	14.5119
2022.31	16.3805
2022.55	16.3759
2022.8	15.4366
2023.05	12.6272
2023.29	13.5595
2023.54	12.6216
2023.79	17.2928
2024.03	15.4187
2024.28	17.2816
2024.53	17.2757
2024.77	17.2702
2025.02	15.3985
2025.27	15.3942
2025.51	13.5237
2025.76	14.4565
2026.01	14.4614
2026.25	15.4036
2026.5	12.6126
2026.75	13.5585
2026.99	15.4379
2027.24	16.3732
2027.49	14.4939
2027.73	15.4153
2027.98	16.3098
2028.23	17.2717
2028.47	16.3983
2028.72	16.3775
2028.97	13.5789
2029.21	16.3644
2029.46	14.4771
2029.71	20.989
2029.95	13.5255
2030.2	14.4447
2030.45	14.4539
2030.69	15.3974
2030.94	15.3953
2031.19	15.3954
2031.43	16.3282
2031.68	13.533
2031.92	15.4047
2032.17	13.5426
2032.42	14.4816
2032.66	17.2894
2032.91	14.4885
2033.16	17.2977
2033.4	19.1735
2033.65	14.4893
2033.89	16.3499
2034.14	12.5983
2034.39	16.3239
2034.64	15.3983
2034.88	14.4697
2035.13	14.4773
2035.37	15.4232
2035.62	17.3025
2035.87	16.3695
2036.11	18.2292
2036.36	13.554
2036.6	15.4284
2036.85	13.5583
2037.1	16.3628
2037.34	17.2963
2037.59	14.4898
2037.84	16.3571
2038.08	14.4855
2038.33	11.68
2038.57	15.4151
2038.82	17.2806
2039.07	14.4759
2039.31	14.4729
2039.56	17.2692
2039.8	14.4648
2040.05	14.4609
2040.3	15.3901
2040.54	15.3868
2040.79	13.5193
2041.03	18.1792
2041.28	17.2461
2041.53	13.5156
2041.77	14.4458
2042.02	15.375
2042.26	15.373
2042.51	15.3731
2042.76	17.2376
2043	16.3098
2043.25	15.3839
2043.49	13.525
2043.74	15.3938
2043.99	15.3935
2044.23	14.4576
2044.48	15.3838
2044.72	18.1662
2044.97	13.5184
2045.22	16.3257
2045.46	16.3443
2045.71	15.4364
2045.95	14.4956
2046.2	17.283
2046.44	17.2695
2046.69	13.5342
2046.94	14.4645
2047.18	15.3865
2047.43	17.2458
2047.67	16.3138
2047.92	16.3147
2048.16	17.2481
2048.41	18.1823
2048.66	13.5236
2048.9	18.1907
2049.15	14.4634
2049.39	15.4021
2049.64	16.3404
2049.88	12.6091
2050.13	17.2824
2050.37	13.5466
2050.62	16.3487
2050.87	16.3458
2051.11	12.606
2051.36	13.539
2051.6	14.4731
2051.85	16.3428
2052.09	15.41
2052.34	15.4117
2052.58	16.3483
2052.83	14.4828
2053.08	18.2249
2053.32	14.4932
2053.57	17.3024
2053.81	15.4342
2054.06	15.435
2054.3	16.3703
2054.55	16.3695
2054.79	14.498
2055.04	16.3648
2055.29	13.5576
2055.53	19.1669
2055.78	13.5559
2056.02	17.2935
2056.27	15.4228
2056.51	18.2267
2056.76	16.3581
2057	15.4245
2057.25	15.4264
2057.49	16.364
2057.74	17.3014
2057.98	15.435
2058.23	15.4387
2058.47	13.5703
2058.72	14.5088
2058.96	18.2543
2059.21	16.383
2059.45	17.3202
2059.7	16.3819
2059.95	14.5078
2060.19	17.313
2060.44	14.5071
2060.68	14.5094
2060.93	12.6387
2061.17	14.5119
2061.42	16.3849
2061.66	14.5128
2061.91	15.4502
2062.15	15.4519
2062.4	15.454
2062.64	16.3936
2062.89	14.5227
2063.13	17.3361
2063.38	17.3382
2063.62	15.4652
2063.87	15.4666
2064.11	14.5308
2064.36	14.5331
2064.6	11.7227
2064.85	16.417
2065.09	14.545
2065.34	17.3646
2065.58	17.3684
2065.83	14.5541
2066.07	15.4941
2066.32	14.5563
2066.56	18.3153
2066.81	14.5596
2067.05	17.3798
2067.29	18.3224
2067.54	15.5059
2067.78	16.4476
2068.03	16.4489
2068.27	13.6308
2068.52	13.6317
2068.76	16.4499
2069.01	17.3854
2069.25	14.5601
2069.5	14.5566
2069.74	16.436
2069.99	16.442
2070.23	14.5705
2070.48	16.4592
2070.72	14.5791
2070.97	16.4555
2071.21	13.6462
2071.46	16.4804
2071.7	14.5965
2071.94	15.537
2072.19	17.4197
2072.43	16.4769
2072.68	19.3011
2072.92	13.6515
2073.17	15.5349
2073.41	15.5356
2073.66	17.4197
2073.9	14.5965
2074.15	16.4829
2074.39	15.5451
2074.64	14.6079
2074.88	16.5001
2075.13	13.6788
2075.37	14.6279
2075.61	16.5191
2075.86	14.632
2076.1	17.4648
2076.35	15.5755
2076.59	15.5725
2076.84	16.5127
2077.08	16.5053
2077.32	14.6166
2077.57	14.6179
2077.81	13.6778
2078.06	14.6227
2078.3	15.5675
2078.55	13.6825
2078.79	19.3481
2079.03	16.525
2079.28	16.5288
2079.52	14.6424
2079.77	13.7001
2080.01	16.5371
2080.26	16.5379
2080.5	13.7014
2080.74	17.4797
2080.99	13.6999
2081.23	14.6448
2081.48	14.6439
2081.72	15.59
2081.97	16.5362
2082.21	14.6473
2082.45	15.5928
2082.7	15.5927
2082.94	14.6471
2083.19	14.6465
2083.43	16.5363
2083.67	19.3716
2083.92	13.7017
2084.16	17.4818
2084.41	18.4274
2084.65	14.6477
2084.89	13.7026
2085.14	15.5929
2085.38	14.6484
2085.63	17.4879
2085.87	13.7112
2086.12	14.6609
2086.36	18.4463
2086.6	17.5024
2086.85	17.5054
2087.09	17.5077
2087.34	16.5615
2087.58	12.7763
2087.82	12.7766
2088.07	18.456
2088.31	17.5105
2088.56	14.6718
2088.8	15.6205
2089.04	13.7296
2089.29	18.4686
2089.53	14.6823
2089.77	15.6303
2090.02	16.5789
2090.26	17.5279
2090.51	12.7921
2090.75	14.6889
2090.99	12.795
2091.24	16.5901
2091.48	16.595
2091.72	16.6004
2091.97	14.7081
2092.21	13.764
2092.45	16.6166
2092.7	16.621
2092.94	14.7253
2093.19	20.4306
2093.43	15.6828
2093.67	16.6365
2093.92	10.9335
2094.16	16.6382
2094.41	17.5883
2094.65	15.6858
2094.89	15.6834
2095.14	17.5813
2095.38	14.7281
2095.62	17.5766
2095.87	14.7252
2096.11	14.7246
2096.35	13.7742
2096.6	17.5718
2096.84	17.5685
2097.08	12.8176
2097.33	15.6645
2097.57	14.7143
2097.81	14.7138
2098.06	17.5589
2098.3	17.5589
2098.55	14.7112
2098.79	14.7104
2099.03	17.5568
2099.28	15.6584
2099.52	15.6586
2099.76	15.6591
2100	14.7109
2100.25	15.6611
2100.49	16.6146
2100.74	14.7189
2100.98	14.721
2101.22	15.672
2101.47	15.6722
2101.71	14.7219
2101.95	16.6218
2102.2	14.7216
2102.44	16.6187
2102.68	16.6151
2102.92	14.7142
2103.17	16.6127
2103.41	15.6623
2103.65	17.561
2103.9	14.7143
2104.14	15.6662
2104.39	16.6183
2104.63	14.7211
2104.87	16.6235
2105.11	15.6772
2105.36	18.5316
2105.6	15.6824
2105.84	16.6347
2106.09	17.5864
2106.33	16.6364
2106.57	15.6872
2106.82	15.6883
2107.06	17.5883
2107.3	14.7335
2107.54	15.6801
2107.79	18.5258
2108.03	15.6715
2108.27	13.7687
2108.52	14.7168
2108.76	17.5656
2109	15.67
2109.25	14.7243
2109.49	16.6245
2109.73	16.6246
2109.97	13.7748
2110.22	14.7247
2110.46	17.5748
2110.7	16.6247
2110.95	14.724
2111.19	14.7221
2111.43	16.6198
2111.68	14.7195
2111.92	14.7193
2112.16	14.7205
2112.4	15.6721
2112.65	17.5738
2112.89	15.6774
2113.13	15.6811
2113.38	18.5344
2113.62	16.633
2113.86	17.5818
2114.1	14.7303
2114.35	13.7805
2114.59	16.6322
2114.83	14.7308
2115.07	14.7296
2115.32	14.7284
2115.56	13.7771
2115.8	16.6246
2116.04	16.6213
2116.29	16.6195
2116.53	16.6186
2116.77	15.6683
2117.02	16.6184
2117.26	13.7686
2117.5	18.5135
2117.74	16.612
2117.99	16.6079
2118.23	17.5518
2118.47	14.702
2118.71	16.5955
2118.96	13.7476
2119.2	14.6927
2119.44	18.4809
2119.68	14.6878
2119.93	13.7392
2120.17	15.6346
2120.41	17.5323
2120.65	18.4821
2120.9	15.6419
2121.14	16.594
2121.38	17.5464
2121.62	15.6528
2121.86	15.6559
2122.11	15.6585
2122.35	16.6098
2122.59	15.6626
2122.84	13.7654
2123.08	17.5637
2123.32	15.664
2123.56	14.7131
2123.81	14.7108
2124.05	12.8095
2124.29	15.6502
2124.53	19.4349
2124.77	16.5831
2125.02	13.7354
2125.26	18.466
2125.5	14.6738
2125.74	15.6162
2125.98	15.6129
2126.23	13.7175
2126.47	16.5521
2126.71	16.5483
2126.95	17.4923
2127.2	19.3823
2127.44	17.4905
2127.68	16.5433
2127.92	16.542
2128.16	19.3779
2128.41	16.5423
2128.65	15.5966
2128.89	17.4857
2129.13	17.4844
2129.38	14.6485
2129.62	14.6478
2129.86	15.592
2130.1	17.4807
2130.34	15.5894
2130.58	14.6429
2130.83	18.419
2131.07	16.5273
2131.31	18.4135
2131.55	15.579
2131.79	18.4097
2132.04	14.6307
2132.28	16.5152
2132.52	14.6261
2132.76	15.5694
2133	16.5136
2133.25	17.4581
2133.49	18.4021
2133.73	16.5152
2133.97	13.6848
2134.21	16.5157
2134.46	16.5153
2134.7	14.6274
2134.94	14.6268
2135.18	15.5691
2135.42	15.5666
2135.67	16.5054
2135.91	16.5001
2136.15	17.4399
2136.39	14.612
2136.63	15.5557
2136.87	13.6704
2137.12	15.5574
2137.36	15.5606
2137.6	14.6176
2137.84	17.442
2138.08	20.2657
2138.32	17.4397
2138.57	14.6166
2138.81	17.4501
2139.05	14.6154
2139.29	16.4933
2139.53	18.375
2139.77	16.4878
2140.02	18.3697
2140.26	15.5419
2140.5	14.5987
2140.74	15.5394
2140.98	15.5394
2141.22	17.4203
2141.46	15.5333
2141.71	14.5903
2141.95	15.5315
2142.19	17.4169
2142.43	16.4784
2142.67	15.5476
2142.91	17.43
2143.15	15.5118
2143.4	16.4426
2143.64	15.5071
2143.88	18.3323
2144.12	16.458
2144.36	14.5804
2144.6	13.6338
2144.85	18.334
2145.09	16.4548
2145.33	16.4542
2145.57	17.393
2145.81	16.4515
2146.05	16.4502
2146.29	17.3888
2146.53	14.5676
2146.78	15.5054
2147.02	17.3824
2147.26	15.5013
2147.5	15.4996
2147.74	17.3764
2147.98	15.4961
2148.22	16.4331
2148.46	17.3695
2148.7	15.4887
2148.95	15.4851
2149.19	14.5408
2149.43	16.4129
2149.67	18.2837
2149.91	18.2797
2150.15	17.3402
2150.39	15.4651
2150.63	15.4662
2150.88	16.4063
2151.12	14.5329
2151.36	17.3485
2151.6	16.4119
2151.84	19.2287
2152.08	17.3504
2152.32	14.5349
2152.56	16.4073
2152.8	16.4044
2153.05	15.4656
2153.29	13.5899
2153.53	16.3991
2153.77	15.4584
2154.01	15.4533
2154.25	17.3189
2154.49	14.5049
2154.73	19.1746
2154.97	14.4932
2155.21	17.293
2155.45	15.4194
2155.7	16.3505
2155.94	15.4144
2156.18	18.2162
2156.42	13.545
2156.66	17.2815
2156.9	14.4801
2157.14	16.3506
2157.38	15.4192
2157.62	13.5527
2157.86	18.2271
2158.1	15.4229
2158.34	14.4877
2158.59	15.4211
2158.83	17.2883
2159.07	15.4168
2159.31	16.348
2159.55	15.4101
2159.79	14.4724
2160.03	13.5357
2160.27	19.1327
2160.51	14.4643
2160.75	16.3299
2160.99	16.3285
2161.23	16.3268
2161.47	14.4603
2161.72	16.326
2161.95	15.3932
2162.2	14.4602
2162.44	16.3249
2162.68	15.3899
2162.92	16.3208
2163.16	19.1167
2163.4	17.2498
2163.64	17.2478
2163.88	14.4482
2164.12	15.376
2164.36	18.1684
2164.6	15.3732
2164.84	14.4433
2165.08	13.5117
2165.32	15.3756
2165.56	16.3077
2165.8	16.3062
2166.04	17.236
2166.28	14.439
2166.53	16.2989
2166.76	15.3651
2167.01	13.4997
2167.25	18.1495
2167.49	14.42
2167.73	16.2731
2167.97	14.4103
2168.21	13.4801
2168.45	18.1293
2168.69	16.2719
2168.93	15.3451
2169.17	15.3493
2169.41	17.2157
2169.65	14.4296
2169.89	14.4333
2170.13	16.2975
2170.37	15.3656
2170.61	15.3629
2170.85	16.2922
2171.09	15.3558
2171.33	13.4855
2171.57	12.5501
2171.81	17.1946
2172.05	16.2623
2172.29	18.1182
2172.53	16.2592
2172.77	14.4008
2173.01	17.1878
2173.25	17.1889
2173.49	15.3325
2173.73	16.2635
2173.97	14.4056
2174.21	19.0529
2174.45	15.3352
2174.69	12.5469
2174.93	15.3341
2175.17	17.1917
2175.41	16.2619
2175.65	16.2611
2175.89	13.4725
2176.13	15.3283
2176.37	16.2561
2176.61	14.3982
2176.85	13.4697
2177.09	15.328
2177.33	17.1854
2177.57	16.2574
2177.81	15.3274
2178.05	16.2519
2178.29	16.2482
2178.53	15.3191
2178.77	16.2484
2179.01	14.3917
2179.25	15.3204
2179.49	17.1774
2179.73	15.3204
2179.97	15.32
2180.21	16.2475
2180.45	19.0315
2180.69	13.461
2180.93	15.3169
2181.17	13.4588
2181.41	18.0974
2181.65	15.3126
2181.89	14.3827
2182.13	14.3812
2182.37	15.3079
2182.61	16.2325
2182.85	16.2292
2183.09	15.2971
2183.33	13.4399
2183.57	15.2913
2183.81	14.3622
2184.05	17.141
2184.28	16.2148
2184.53	14.3632
2184.76	17.1446
2185	13.4386
2185.24	13.4403
2185.48	15.2966
2185.72	13.4451
2185.96	13.4473
2186.2	14.3788
2186.44	15.3112
2186.68	16.244
2186.92	13.4634
2187.16	18.1103
2187.4	14.3967
2187.64	14.3954
2187.88	13.4644
2188.12	18.1038
2188.36	14.3872
2188.6	15.3118
2188.84	15.3076
2189.07	13.4479
2189.31	17.1523
2189.55	15.2959
2189.79	15.2949
2190.03	18.0764
2190.27	15.2963
2190.51	16.2254
2190.75	14.3709
2190.99	12.5173
2191.23	15.3002
2191.47	14.3743
2191.71	15.3031
2191.95	15.3045
2192.19	16.2335
2192.42	15.3082
2192.67	17.1671
2192.9	15.3136
2193.14	15.317
2193.38	17.1803
2193.62	13.4726
2193.86	14.4069
2194.1	16.2691
2194.34	15.3394
2194.58	14.4078
2194.82	16.2654
2195.06	16.263
2195.3	14.4014
2195.53	15.3264
2195.77	12.5355
2196.01	14.3878
2196.25	16.2401
2196.49	18.0926
2196.73	14.3789
2196.97	15.3042
2197.21	17.1588
2197.45	16.2321
2197.69	16.2335
2197.92	18.0928
2198.16	16.2415
2198.4	15.3179
2198.64	14.3945
2198.88	16.257
2199.12	16.2622
2199.36	18.127
2199.6	14.4152
2199.84	19.0757
2200.07	15.3611
2200.31	20.0245
2200.55	17.236
2200.79	16.3085
2201.03	14.4406
2201.27	12.5654
2201.51	15.3279
2201.75	17.1577
2201.99	15.3073
2202.23	17.1931
2202.46	18.1406
2202.7	17.2052
2202.94	13.4824
2203.18	16.2738
2203.42	16.3426
2203.66	17.2516
2203.9	14.4516
2204.14	13.5236
2204.37	14.4471
2204.61	14.434
2204.85	15.3526
2205.09	16.2727
2205.33	15.3402
2205.57	14.4103
2205.8	14.4136
2206.05	15.3459
2206.28	17.1982
2206.52	14.41
2206.76	17.2016
2207	14.4149
2207.24	16.2783
2207.48	15.3515
2207.71	17.2161
2207.95	15.3582
2208.19	16.2921
2208.43	17.2258
2208.67	16.2966
2208.91	15.3665
2209.15	14.4355
2209.38	18.1603
2209.62	17.2293
2209.86	14.4373
2210.1	16.3025
2210.34	17.237
2210.58	10.7167
2210.81	19.1067
2211.05	16.3134
2211.29	14.452
2211.53	16.3207
2211.77	12.5922
2212.01	15.3923
2212.24	14.4585
2212.48	13.5245
2212.72	16.321
2212.96	15.3865
2213.2	14.4509
2213.44	15.3837
2213.67	13.5216
2213.91	18.1908
2214.15	15.3995
2214.39	13.5345
2214.63	16.3363
2214.87	17.2711
2215.1	16.3384
2215.34	14.4717
2215.58	15.4055
2215.82	17.2727
2216.06	15.4051
2216.29	13.5373
2216.53	16.3375
2216.77	15.4038
2217.01	11.67
2217.25	12.6043
2217.49	14.4718
2217.72	14.4716
2217.96	16.3395
2218.2	16.3411
2218.44	14.4756
2218.68	16.3464
2218.91	14.481
2219.15	13.5486
2219.39	13.5502
2219.63	11.6827
2219.87	13.5519
2220.1	15.4204
2220.34	14.4854
2220.58	17.2876
2220.82	13.5469
2221.06	16.3452
2221.29	17.2754
2221.53	18.2057
2221.77	13.5357
2222.01	16.3356
2222.25	15.4031
2222.48	17.2726
2222.72	16.3416
2222.96	13.5424
2223.2	16.3481
2223.43	18.2219
2223.67	18.2276
2223.91	14.493
2224.15	17.3026
2224.39	14.5001
2224.62	12.632
2224.86	15.4429
2225.1	16.3836
2225.34	16.3876
2225.58	16.3911
2225.81	11.7106
2226.05	15.4607
2226.29	16.401
2226.53	15.4671
2226.76	12.6571
2227	15.4718
2227.24	14.5354
2227.48	15.4731
2227.72	16.4097
2227.95	12.6581
2228.19	16.4075
2228.43	14.5317
2228.67	14.531
2228.9	14.5309
2229.14	14.533
2229.38	16.4125
2229.62	14.5405
2229.85	16.4199
2230.09	14.5462
2230.33	14.5493
2230.57	14.5525
2230.8	16.4341
2231.04	15.4989
2231.28	17.3812
2231.52	17.3848
2231.75	16.4484
2231.99	14.5716
2232.23	14.5744
2232.47	16.4582
2232.7	16.4614
2232.94	13.642
2233.18	17.4087
2233.42	15.5291
2233.65	15.5311
2233.89	19.2957
2234.13	18.3531
2234.37	15.5279
2234.6	16.4662
2234.84	15.5203
2235.08	14.5757
2235.31	12.6948
2235.55	17.3974
2235.79	13.6366
2236.03	15.5185
2236.26	14.5787
2236.5	17.4014
2236.74	14.5827
2236.97	13.6449
2237.21	13.6499
2237.45	14.5975
2237.69	15.5454
2237.92	16.4926
2238.16	16.497
2238.4	13.6732
2238.64	16.5081
2238.87	13.68
2239.11	13.6791
2239.35	17.4504
2239.58	17.4462
2239.82	15.5558
2240.06	14.6114
2240.29	17.4445
2240.53	16.5099
2240.77	15.5676
2241.01	15.5687
2241.24	14.6263
2241.48	16.5149
2241.72	14.6287
2241.96	17.4621
2242.19	13.6883
2242.43	15.5772
2242.67	14.6326
2242.9	16.519
2243.14	15.5726
2243.38	14.6276
2243.61	15.5709
2243.85	16.515
2244.09	15.5735
2244.32	16.522
2244.56	12.7507
2244.8	14.6453
2245.03	16.5395
2245.27	11.8163
2245.51	14.6554
2245.75	16.55
2245.98	14.6612
2246.22	16.555
2246.46	18.4496
2246.69	13.7212
2246.93	16.5621
2247.17	16.5631
2247.4	14.6702
2247.64	16.5624
2247.88	14.6687
2248.11	14.6679
2248.35	16.5597
2248.59	12.774
2248.82	14.6659
2249.06	17.5069
2249.3	13.7238
2249.53	16.5634
2249.77	14.6689
2250.01	13.72
2250.24	16.5553
2250.48	16.5516
2250.72	14.6571
2250.95	15.6006
2251.19	16.545
2251.43	18.4364
2251.66	14.6561
2251.9	16.5499
2252.14	14.6614
2252.37	13.7197
2252.61	12.7801
2252.85	15.627
2253.08	13.737
2253.32	12.7929
2253.55	16.5867
2253.79	17.538
2254.03	16.5926
2254.26	13.7487
2254.5	15.644
2254.74	12.7999
2254.97	16.593
2255.21	16.5935
2255.45	15.6461
2255.68	13.7518
2255.92	16.6003
2256.16	16.6033
2256.39	15.6573
2256.63	16.6091
2256.87	16.6119
2257.1	16.6147
2257.34	15.6672
2257.57	14.7188
2257.81	12.8202
2258.05	12.8211
2258.28	15.6718
2258.52	16.624
2258.76	11.8762
2258.99	13.7779
2259.23	12.8289
2259.47	17.5824
2259.7	15.6834
2259.94	15.6851
2260.17	11.8839
2260.41	14.7383
2260.64	15.6938
2260.88	15.6976
2261.12	14.7474
2261.35	14.7484
2261.59	13.7981
2261.83	12.8477
2262.06	11.8977
2262.3	14.7562
2262.53	14.7596
2262.77	17.621
2263.01	12.8626
2263.24	16.6796
2263.48	15.7328
2263.71	16.6928
2263.95	16.6988
2264.19	13.8405
2264.42	16.7083
2264.66	16.712
2264.89	13.8497
2265.13	14.8058
2265.37	11.9407
2265.6	17.6713
2265.84	14.8028
2266.07	14.7994
2266.31	13.8413
2266.55	16.7013
2266.78	15.7443
2267.02	15.742
2267.25	14.7858
2267.49	14.7827
2267.73	12.873
2267.96	13.8256
2268.2	15.7329
2268.43	14.7814
2268.67	15.7383
2268.91	16.6967
2269.14	15.7471
2269.38	14.7973
2269.61	16.7125
2269.85	13.8521
2270.08	14.8107
2270.32	14.8127
2270.56	14.8159
2270.79	15.7749
2271.03	12.9085
2271.26	13.8667
2271.5	15.7825
2271.73	12.9146
2271.97	14.8283
2272.2	16.7425
2272.44	13.8732
2272.68	14.831
2272.91	14.8319
2273.15	17.7037
2273.38	15.7907
2273.62	15.7917
2273.85	16.7497
2274.09	14.8363
2274.33	15.7945
2274.56	16.7528
2274.8	15.7967
2275.03	11.0107
2275.27	15.7974
2275.5	14.842
2275.74	15.8034
2275.97	13.8914
2276.21	15.8112
2276.45	14.8561
2276.68	16.7767
2276.92	13.9053
2277.15	14.8699
2277.39	14.8758
2277.62	16.8031
2277.86	14.8854
2278.09	13.9264
2278.33	16.8082
2278.56	17.7681
2278.8	18.7277
2279.03	14.8842
2279.27	16.797
2279.5	16.792
2279.74	13.9096
2279.98	14.8654
2280.21	15.8214
2280.45	15.819
2280.68	11.983
2280.92	15.8157
2281.15	15.8137
2281.39	13.8987
2281.62	13.8996
2281.86	16.7778
2282.09	14.8633
2282.33	15.8261
2282.56	16.7892
2282.8	16.7939
2283.03	15.8404
2283.27	13.9272
2283.5	15.8548
2283.74	14.9015
2283.97	18.7529
2284.21	14.9077
2284.44	13.9492
2284.68	16.8396
2284.91	13.954
2285.15	14.9174
2285.38	15.8772
2285.62	12.023
2285.85	14.9078
2286.09	16.8327
2286.32	15.8728
2286.56	14.918
2286.79	15.8874
2287.03	16.8533
2287.26	17.8176
2287.5	17.8237
2287.74	14.9326
2287.97	17.8202
2288.2	14.9283
2288.44	14.926
2288.67	16.8471
2288.91	16.8406
2289.14	17.7974
2289.38	15.866
2289.61	14.9024
2289.85	17.7846
2290.08	14.9008
2290.32	12.9783
2290.55	17.7875
2290.79	16.8303
2291.02	16.8363
2291.26	17.8028
2291.49	14.9186
2291.73	14.9213
2291.96	14.9242
2292.2	13.9648
2292.43	15.8948
2292.67	15.8977
2292.9	14.9367
2293.14	18.7936
2293.37	16.8676
2293.6	16.8665
2293.84	18.7921
2294.07	13.0081
2294.31	16.8591
2294.54	13.967
2294.78	13.002
2295.01	13.9633
2295.25	14.9242
2295.48	13.9597
2295.72	16.8451
2295.95	17.7993
2296.19	14.9118
2296.42	16.8373
2296.65	15.8775
2296.89	15.8804
2297.12	17.8094
2297.36	14.9255
2297.59	17.8209
2297.83	13.9712
2298.06	15.9005
2298.3	15.9036
2298.53	13.9797
2298.77	13.0186
2299	14.9501
2299.23	17.8461
2299.47	12.0579
2299.7	17.8462
2299.94	16.8809
2300.17	13.9885
2300.41	14.9561
2300.64	16.8882
2300.87	16.8904
2301.11	13.996
2301.34	13.9965
2301.58	15.9268
2301.81	16.8908
2302.05	15.9242
2302.28	13.9945
2302.51	15.9247
2302.75	13.9936
2302.98	16.8887
2303.22	13.9937
2303.45	13.995
2303.69	14.9628
2303.92	15.9309
2304.15	15.9329
2304.39	15.9351
2304.62	16.9043
2304.86	15.9405
2305.09	18.8398
2305.33	17.8752
2305.56	17.8774
2305.79	17.8801
2306.03	15.9479
2306.26	14.9819
2306.5	13.0487
2306.73	16.9146
2306.97	14.9804
2307.2	14.0121
2307.43	16.9099
2307.67	16.9087
2307.9	15.9408
2308.13	15.941
2308.37	14.0091
2308.6	15.9439
2308.84	16.9132
2309.07	14.0171
2309.3	14.9888
2309.54	14.9925
2309.77	16.9289
2310.01	16.9296
2310.24	15.962
2310.47	14.9933
2310.71	15.9574
2310.94	14.9829
2311.18	16.904
2311.41	15.9325
2311.64	15.928
2311.88	14.9606
2312.11	17.8531
2312.34	15.9208
2312.58	13.9906
2312.81	18.817
2313.05	16.8917
2313.28	15.9331
2313.51	15.938
2313.75	14.9766
2313.98	14.0148
2314.21	14.0199
2314.45	16.9271
2314.68	15.9628
2314.92	13.058
2315.15	14.9885
2315.39	13.0519
2315.62	15.9482
2315.85	15.9403
2316.09	15.9348
2316.32	17.8637
2316.55	15.9319
2316.79	14.0015
2317.02	15.9338
2317.25	14.9717
2317.49	16.9071
2317.72	15.9369
2317.95	15.9334
2318.19	15.9316
2318.42	16.8945
2318.66	14.9613
2318.89	13.994
2319.12	15.9224
2319.35	14.9563
2319.59	15.9212
2319.82	15.9217
2320.06	14.9568
2320.29	17.8532
2320.52	16.8907
2320.76	13.9976
2320.99	14.0003
2321.22	15.9348
2321.46	16.9053
2321.69	16.9107
2321.92	17.882
2322.16	18.8512
2322.39	16.9173
2322.62	17.8846
2322.86	15.9524
2323.09	15.9535
2323.32	18.8555
2323.56	15.9554
2323.79	16.9219
2324.02	17.8881
2324.26	17.8844
2324.49	18.8454
2324.72	16.9066
2324.96	17.8682
2325.19	19.796
2325.42	23.654
2325.66	21.7187
2325.89	21.7141
2326.12	28.4635
2326.36	24.5988
2326.59	32.3091
2326.82	40.9801
2327.06	48.6862
2327.29	64.1013
2327.52	84.3336
2327.76	101.685
2327.99	96.8682
2328.22	76.6289
2328.46	54.4509
2328.69	37.0963
2328.92	32.2705
2329.15	28.4137
2329.39	25.5231
2329.62	24.5626
2329.85	21.6724
2330.09	21.6705
2330.32	21.6686
2330.55	15.8897
2330.78	15.8906
2331.02	14.9296
2331.25	14.9322
2331.48	17.8265
2331.72	13.9696
2331.95	18.7824
2332.18	17.8166
2332.42	15.8884
2332.65	13.9607
2332.88	12.9962
2333.12	17.8077
2333.35	14.9186
2333.58	15.879
2333.81	14.9143
2334.05	13.9486
2334.28	13.9463
2334.51	15.8682
2334.74	14.9059
2334.98	13.9436
2335.21	17.7905
2335.44	14.9067
2335.68	14.9065
2335.91	13.9435
2336.14	14.9041
2336.37	12.9804
2336.61	15.8644
2336.84	15.8637
2337.07	17.7859
2337.3	15.8619
2337.54	13.9383
2337.77	12.9764
2338	16.8206
2338.24	16.8201
2338.47	12.9759
2338.7	13.9375
2338.93	15.86
2339.17	13.9373
2339.4	16.8196
2339.63	14.8957
2339.86	16.815
2340.1	12.9694
2340.33	16.8086
2340.56	17.7643
2340.79	13.919
2341.03	16.7925
2341.26	15.8282
2341.49	15.8251
2341.72	15.8225
2341.96	15.82
2342.19	14.8596
2342.42	13.9
2342.65	14.8583
2342.89	15.817
2343.12	15.8165
2343.35	17.733
2343.58	16.7746
2343.82	12.9412
2344.05	17.7351
2344.28	14.8589
2344.51	14.8581
2344.75	16.7736
2344.98	12.9377
2345.21	13.8926
2345.44	14.8478
2345.68	13.8874
2345.91	16.7591
2346.14	14.843
2346.37	15.7999
2346.6	14.8412
2346.84	15.7974
2347.07	15.797
2347.3	16.7548
2347.53	16.7558
2347.77	14.8426
2348	16.7593
2348.23	16.7595
2348.46	17.7158
2348.69	16.7556
2348.93	13.8779
2349.16	13.8719
2349.39	14.8213
2349.62	17.6796
2349.85	16.7121
2350.09	16.6916
2350.32	14.7542
2350.55	10.9575
2350.78	14.8171
2351.02	15.796
2351.25	16.7261
2351.48	14.7947
2351.71	13.8393
2351.94	16.7051
2352.18	16.6967
2352.41	12.869
2352.64	16.6696
2352.87	14.7662
2353.1	15.7187
2353.34	17.6208
2353.57	14.7631
2353.8	17.6201
2354.03	16.671
2354.26	11.9114
2354.5	14.7698
2354.73	13.8161
2354.96	15.7204
2355.19	15.719
2355.42	14.7647
2355.66	14.7624
2355.89	13.806
2356.12	16.6545
2356.35	15.6963
2356.58	17.5953
2356.81	12.8376
2357.05	15.6878
2357.28	14.7349
2357.51	14.7329
2357.74	15.6814
2357.97	16.6312
2358.21	15.6771
2358.44	14.7255
2358.67	15.6744
2358.9	13.7738
2359.13	15.6719
2359.36	14.7197
2359.6	16.6155
2359.83	12.8147
2360.06	16.6079
2360.29	14.7065
2360.52	13.7544
2360.75	12.8028
2360.99	17.5402
2361.22	15.6401
2361.45	16.5837
2361.68	15.6317
2361.91	15.6275
2362.14	15.6239
2362.38	17.5141
2362.61	13.7248
2362.84	16.5618
2363.07	15.6136
2363.3	13.7195
2363.53	16.5562
2363.77	13.716
2364	14.6599
2364.23	14.6575
2364.46	11.8196
2364.69	13.708
2364.92	15.5963
