#Acq. time (s)=	60
#Accumulations=	2
#Range (cm-¹)=	100...4000
#Windows=	1
#Auto scanning=	Off
#Autofocus=	Off
#Macrospot=	Off
#AutoExposure=	Off
#Spike filter=	Multiple accum.
#Delay time (s)=	2
#Binning=	1
#Readout mode=	Signal
#DeNoise=	Off
#ICS correction=	On
#Dark correction=	Off
#Inst. Process=	Off
#Detector Gain=	Best Dynamic
#Detector ADC=	50 kHz HS
#Detector temperature (°C)=	-60.09
#Instrument=	LabRAM HR Evol
#Detector=	SIN-EM FIVIS
#Objective=	x100_VIS
#Grating=	150 (500nm)
#ND Filter=	100%
#Laser=	633nm_Edge
#Hole=	49.98
#Temperature=	0
#Range=	Visible
#StageXY=	75x50mm Scan+
#StageZ=	Z motor
#X (µm)=	0
#Y (µm)=	0
#Z (µm)=	-281.7
#Full time(mm:ss)=	2:04
#Project=	21_11_04
#Sample=	BU19w
#Site=	
#Title=	BU19w-E-FF11-FI02-L_150 (500nm)_633nm_Edge_100%_x100_VIS_H50um_60sX2
#Remark=	
#Date=	04.11.2021 16:29
#Acquired=	04.11.2021 16:29:18
102.881	238.827
106.139	234.164
109.397	224.741
112.653	222.945
115.908	223.05
119.161	215.481
122.414	227.989
125.664	232.841
128.914	232.918
132.162	248.277
135.409	254.053
138.654	277.021
141.898	269.37
145.14	268.445
148.383	267.513
151.622	302.016
154.861	347.103
158.098	358.688
161.335	346.34
164.569	294.695
167.801	239.162
171.034	212.347
174.264	191.255
177.494	174.927
180.721	168.17
183.949	169.041
187.173	163.19
190.396	165.928
193.62	170.572
196.84	163.766
200.061	161.777
203.279	162.722
206.496	171.295
209.712	164.58
212.926	175.038
216.139	190.267
219.352	231.228
222.562	287.407
225.772	365.418
228.979	459.404
232.185	434.364
235.392	353.302
238.595	283.742
241.797	244.657
244.999	223.729
248.199	215.143
251.397	232.169
254.595	231.137
257.791	247.208
260.985	247.155
264.178	249.954
267.371	231.899
270.561	227.141
273.75	240.411
276.939	234.722
280.125	239.445
283.31	235.61
286.494	214.702
289.678	200.419
292.859	199.385
296.039	208.767
299.217	213.414
302.396	225.616
305.572	248.195
308.746	288.715
311.919	351.878
315.093	515.085
318.263	635.692
321.433	669.525
324.601	598.666
327.768	455.177
330.935	343.834
334.099	283.437
337.262	268.314
340.423	243.766
343.584	248.448
346.743	264.413
349.902	261.526
353.058	284.991
356.213	274.511
359.367	266.854
362.52	244.141
365.671	233.669
368.821	200.656
371.971	180.83
375.119	169.463
378.265	165.622
381.41	158.034
384.553	142.051
387.696	137.38
390.837	151.508
393.976	157.234
397.116	150.786
400.253	145.326
403.389	150.191
406.524	149.407
409.657	156.168
412.789	166.693
415.92	174.357
419.05	188.674
422.178	191.597
425.305	216.183
428.431	227.336
431.555	219.521
434.678	215.496
437.8	221.828
440.921	228.143
444.04	231.609
447.158	258.493
450.275	278.716
453.391	271.773
456.505	258.346
459.618	228.205
462.73	205.642
465.84	186.9
468.949	162.588
472.057	167.201
475.164	160.678
478.27	159.772
481.374	165.374
484.477	164.449
487.579	170.98
490.679	172.857
493.778	177.543
496.876	180.354
499.973	196.225
503.068	208.399
506.162	229.901
509.255	240.227
512.346	247.784
515.436	246.02
518.525	234.021
521.613	243.56
524.7	246.587
527.785	243.098
530.869	221.823
533.952	230.581
537.033	226.199
540.113	198.212
543.192	186.154
546.27	172.148
549.347	178.81
552.423	176.055
555.497	166.676
558.568	157.219
561.64	153.352
564.711	152.292
567.78	147.427
570.848	143.477
573.915	164.871
576.979	151.468
580.043	164.33
583.107	164.104
586.169	178.839
589.228	175.851
592.287	194.378
595.345	179.365
598.402	188.651
601.458	198.046
604.511	201.919
607.565	207.677
610.617	214.416
613.667	211.843
616.716	192.478
619.764	194.634
622.811	176.156
625.856	149.175
628.9	150.298
631.944	156.065
634.986	145.735
638.026	133.453
641.066	148.47
644.104	149.267
647.14	135.976
650.177	160.316
653.211	159.19
656.244	144.909
659.276	132.538
662.308	121.132
665.336	116.309
668.365	117.099
671.393	105.825
674.418	107.706
677.443	103.983
680.467	99.3148
683.489	97.4815
686.511	97.5336
689.53	98.5528
692.549	104.273
695.567	101.584
698.582	97.9472
701.598	99.927
704.611	95.3286
707.624	103.866
710.635	100.161
713.646	93.5419
716.655	96.331
719.662	96.2969
722.669	91.5801
725.674	98.1022
728.679	96.1427
731.681	89.4967
734.683	95.9705
737.683	95.883
740.683	97.6689
743.681	88.2502
746.678	103.123
749.673	99.329
752.669	97.4367
755.661	99.2717
758.654	99.295
761.645	104.039
764.635	92.9501
767.623	102.436
770.611	101.645
773.597	101.794
776.582	95.3537
779.565	102.042
782.549	94.5999
785.53	93.7222
788.511	96.6042
791.489	89.1043
794.466	93.8428
797.444	104.224
800.419	97.6006
803.394	89.0785
806.366	94.6824
809.339	98.3939
812.309	101.136
815.278	101.976
818.247	104.68
821.214	99.8684
824.18	100.682
827.145	107.103
830.108	104.196
833.072	102.296
836.033	104.172
838.992	108.895
841.952	109.94
844.909	110.034
847.865	119.51
850.822	121.519
853.776	112.269
856.728	125.582
859.681	129.521
862.631	141.018
865.58	144.047
868.528	139.515
871.476	149.143
874.422	147.367
877.366	150.289
880.311	162.687
883.253	160.836
886.194	150.411
889.134	155.141
892.074	156.052
895.012	152.205
897.948	148.309
900.883	147.204
903.818	145.134
906.751	148.734
909.683	151.365
912.614	145.514
915.543	151.916
918.473	153.673
921.4	160.167
924.326	169.536
927.251	165.797
930.174	180.003
933.098	198.923
936.019	211.391
938.94	230.608
941.859	241.421
944.777	270.266
947.693	292.626
950.61	301.77
953.525	289.008
956.438	299.051
959.35	311.923
962.261	296.083
965.171	318.428
968.08	336.967
970.988	376.564
973.894	428.584
976.801	484.313
979.705	511.006
982.608	503.023
985.51	506.482
988.411	477.341
991.311	418.563
994.209	369.425
997.107	341.414
1000	346.891
1002.9	321.879
1005.79	319.839
1008.68	343.616
1011.58	361.859
1014.47	384.942
1017.36	400.382
1020.25	384.366
1023.13	339.782
1026.02	324.864
1028.9	276.407
1031.79	257.578
1034.67	252.184
1037.55	257.386
1040.43	237.548
1043.31	226.329
1046.19	217.992
1049.07	211.505
1051.94	202.047
1054.82	185.755
1057.69	180.076
1060.56	180.17
1063.44	179.248
1066.31	173.386
1069.17	185.981
1072.04	195.665
1074.91	193.673
1077.77	224.65
1080.64	243.942
1083.5	286.483
1086.37	321.234
1089.23	348.269
1092.09	420.8
1094.95	431.329
1097.8	408.917
1100.66	372.019
1103.52	327.457
1106.37	286.94
1109.22	268.585
1112.08	248.417
1114.93	229.397
1117.78	229.799
1120.63	228.179
1123.48	236.235
1126.32	222.835
1129.17	254.365
1132.01	275.215
1134.86	297.102
1137.7	327.842
1140.54	349.857
1143.38	406.236
1146.22	460.593
1149.06	487.526
1151.89	453.338
1154.73	360.868
1157.56	273.202
1160.4	223.887
1163.23	191.235
1166.06	183.193
1168.89	163.398
1171.72	160.3
1174.55	144.469
1177.38	139.422
1180.2	137.344
1183.03	127.479
1185.85	120.608
1188.67	129.399
1191.49	113.784
1194.31	107.985
1197.13	106.1
1199.95	96.4228
1202.77	97.5497
1205.58	105.568
1208.4	99.8629
1211.21	98.0767
1214.02	101.242
1216.84	93.5492
1219.65	91.7836
1222.46	91.0107
1225.27	95.2193
1228.07	96.444
1230.88	93.652
1233.68	94.8428
1236.49	83.9552
1239.29	93.1498
1242.09	91.2444
1244.89	89.3083
1247.69	78.2574
1250.49	95.4534
1253.29	87.3967
1256.08	90.4189
1258.88	91.3932
1261.67	91.3304
1264.47	85.2161
1267.26	90.2003
1270.05	82.0718
1272.84	76.9591
1275.63	91.9515
1278.42	85.8247
1281.2	90.7432
1283.99	88.6527
1286.77	81.5743
1289.56	90.5209
1292.34	93.4733
1295.12	90.4501
1297.9	84.445
1300.68	91.4398
1303.46	83.4723
1306.23	88.5279
1309.01	87.6124
1311.78	90.746
1314.56	83.8579
1317.33	86.0049
1320.1	81.1149
1322.87	78.2356
1325.64	82.4363
1328.41	85.6435
1331.18	89.88
1333.94	86.9919
1336.71	75.9316
1339.47	82.1797
1342.24	88.4186
1345	76.2356
1347.76	89.6271
1350.52	84.5845
1353.28	81.5767
1356.04	86.7653
1358.79	88.864
1361.55	85.8107
1364.3	85.8209
1367.06	94.0365
1369.81	78.6085
1372.56	97.0847
1375.31	97.0682
1378.06	94.9959
1380.81	91.8948
1383.56	93.926
1386.3	82.6146
1389.05	87.725
1391.79	86.6971
1394.53	92.8697
1397.28	88.8333
1400.02	93.009
1402.76	85.873
1405.5	84.9102
1408.23	90.1332
1410.97	94.3412
1413.71	87.2129
1416.44	93.5112
1419.17	88.4443
1421.91	88.5496
1424.64	92.8108
1427.37	80.4684
1430.1	89.9317
1432.83	83.801
1435.55	83.9069
1438.28	85.0559
1441.01	90.3783
1443.73	93.6372
1446.45	90.6059
1449.17	83.3486
1451.89	87.5991
1454.62	100.238
1457.33	96.0679
1460.05	84.5309
1462.77	87.6819
1465.48	89.7735
1468.2	81.3612
1470.91	87.6479
1473.63	88.69
1476.34	83.4451
1479.05	91.8602
1481.76	96.0802
1484.47	94.0091
1487.17	88.7958
1489.88	93.0518
1492.59	88.9081
1495.29	88.9852
1497.99	89.0653
1500.7	83.8812
1503.4	85.0286
1506.1	95.7036
1508.8	95.8311
1511.5	98.0834
1514.19	86.5492
1516.89	90.9411
1519.59	90.0275
1522.28	91.2454
1524.97	86.063
1527.67	90.4933
1530.36	88.5093
1533.05	96.2068
1535.74	92.0702
1538.42	90.045
1541.11	96.6477
1543.8	99.99
1546.48	85.984
1549.16	92.4909
1551.85	96.8052
1554.53	90.2678
1557.21	97.7644
1559.89	96.632
1562.57	99.8247
1565.25	101.932
1567.93	97.566
1570.6	94.281
1573.28	88.8479
1575.95	97.4247
1578.62	99.5702
1581.29	102.801
1583.97	102.81
1586.64	93.1369
1589.3	99.6217
1591.97	87.8073
1594.64	101.864
1597.3	99.7729
1599.97	93.3659
1602.63	93.447
1605.3	96.7835
1607.96	96.9007
1610.62	106.795
1613.28	97.1969
1615.94	93.0209
1618.59	88.8396
1621.25	97.7488
1623.91	94.6524
1626.56	101.409
1629.21	101.599
1631.87	96.2803
1634.52	106.35
1637.17	97.6633
1639.82	99.9296
1642.47	101.103
1645.12	97.8682
1647.76	105.684
1650.41	89.1377
1653.05	103.589
1655.7	101.412
1658.34	100.328
1660.98	97.0184
1663.62	101.468
1666.26	102.583
1668.9	92.6048
1671.54	102.587
1674.18	92.6065
1676.81	104.793
1679.45	91.4817
1682.08	102.543
1684.71	100.281
1687.34	103.558
1689.98	95.7694
1692.61	111.246
1695.23	102.392
1697.86	93.568
1700.49	94.76
1703.12	100.56
1705.74	98.5745
1708.36	105.487
1710.99	107.631
1713.61	97.5524
1716.23	99.8629
1718.85	95.5642
1721.47	106.861
1724.09	106.929
1726.7	107.033
1729.32	107.146
1731.94	102.765
1734.55	107.365
1737.16	97.341
1739.77	105.319
1742.39	106.547
1745	113.421
1747.61	108.995
1750.21	101.158
1752.82	114.791
1755.43	102.404
1758.03	101.306
1760.64	106.984
1763.24	111.53
1765.84	107.024
1768.44	114.983
1771.05	111.618
1773.64	110.522
1776.24	107.169
1778.84	106.1
1781.44	101.636
1784.03	109.674
1786.63	105.222
1789.22	107.614
1791.81	115.714
1794.41	122.693
1797	111.413
1799.59	112.708
1802.18	104.842
1804.76	110.725
1807.35	108.571
1809.94	115.592
1812.52	113.413
1815.11	106.619
1817.69	114.815
1820.27	112.625
1822.85	105.812
1825.43	108.247
1828.01	114.167
1830.59	124.75
1833.17	108.633
1835.74	108.775
1838.32	115.882
1840.89	111.329
1843.47	111.429
1846.04	111.525
1848.61	120.964
1851.18	111.707
1853.75	104.744
1856.32	111.848
1858.89	107.253
1861.45	120.264
1864.02	120.38
1866.58	108.756
1869.15	113.57
1871.71	110.128
1874.27	113.737
1876.83	119.711
1879.39	118.601
1881.95	110.408
1884.51	109.28
1887.07	110.515
1889.63	109.354
1892.18	116.452
1894.74	121.183
1897.29	118.833
1899.84	102.312
1902.39	118.957
1904.94	116.701
1907.49	116.815
1910.04	114.589
1912.59	120.712
1915.14	118.537
1917.68	109.173
1920.23	105.636
1922.77	114.073
1925.32	114.185
1927.86	121.478
1930.4	126.388
1932.94	122.909
1935.48	119.416
1938.02	118.309
1940.56	123.2
1943.09	119.669
1945.63	119.734
1948.16	119.793
1950.7	113.813
1953.23	122.274
1955.76	117.478
1958.29	117.496
1960.82	124.74
1963.35	115.105
1965.88	117.517
1968.41	125.935
1970.93	117.47
1973.46	123.457
1975.98	117.403
1978.51	123.39
1981.03	124.558
1983.55	129.336
1986.07	116.073
1988.59	130.481
1991.11	118.434
1993.63	114.811
1996.15	125.62
1998.66	129.226
2001.18	124.424
2003.69	118.43
2006.2	122.069
2008.72	131.73
2011.23	117.343
2013.74	122.206
2016.25	119.847
2018.76	129.518
2021.27	123.533
2023.77	122.389
2026.28	124.877
2028.78	128.587
2031.29	129.903
2033.79	128.819
2036.29	122.888
2038.79	118.159
2041.3	134.048
2043.79	131.757
2046.29	124.606
2048.79	129.614
2051.29	132.192
2053.78	123.747
2056.28	131.187
2058.77	130.112
2061.27	133.926
2063.76	134.076
2066.25	139.134
2068.74	130.693
2071.23	136.973
2073.72	133.43
2076.21	140.952
2078.69	125.07
2081.18	121.486
2083.66	128.993
2086.15	136.498
2088.63	140.29
2091.11	135.456
2093.59	135.586
2096.07	136.979
2098.55	143.343
2101.03	134.816
2103.51	138.717
2105.99	136.408
2108.46	144.081
2110.94	139.292
2113.41	140.756
2115.89	149.748
2118.36	147.471
2120.83	142.669
2123.3	142.883
2125.77	144.353
2128.24	150.869
2130.71	130.845
2133.17	134.809
2135.64	150.179
2138.11	137.663
2140.57	130.193
2143.03	148.136
2145.49	144.464
2147.96	145.865
2150.42	129.399
2152.88	151.172
2155.34	147.43
2157.79	138.565
2160.25	150.121
2162.71	130.998
2165.16	139.973
2167.62	139.989
2170.07	146.41
2172.52	131.114
2174.97	133.724
2177.43	144.007
2179.88	144.022
2182.32	146.587
2184.77	133.769
2187.22	150.408
2189.67	140.184
2192.11	144.059
2194.56	154.346
2197	146.725
2199.44	136.554
2201.89	145.631
2204.33	156.02
2206.77	142.021
2209.21	142.162
2211.64	135.875
2214.08	134.735
2216.52	132.316
2218.95	135.068
2221.39	128.77
2223.82	141.892
2226.26	147.263
2228.69	142.254
2231.12	148.938
2233.55	141.313
2235.98	149.316
2238.41	144.282
2240.84	150.998
2243.26	143.336
2245.69	150.075
2248.12	151.58
2250.54	147.829
2252.96	148.01
2255.39	153.461
2257.81	140.472
2260.23	145.936
2262.65	140.821
2265.07	142.294
2267.49	146.405
2269.9	153.16
2272.32	146.639
2274.74	158.686
2277.15	145.493
2279.57	148.223
2281.98	153.593
2284.39	160.276
2286.8	141.671
2289.21	152.336
2291.62	151.024
2294.03	152.37
2296.44	156.392
2298.84	148.459
2301.25	156.514
2303.66	152.604
2306.06	158.054
2308.46	162.196
2310.87	143.652
2313.27	143.805
2315.67	157.368
2318.07	140.137
2320.47	156.427
2322.87	157.964
2325.26	162.214
2327.66	157.043
2330.06	150.511
2332.45	148.033
2334.85	153.676
2337.24	156.629
2339.63	147.368
2342.02	144.894
2344.41	146.506
2346.8	163.171
2349.19	149.779
2351.58	158.26
2353.97	154.399
2356.35	143.622
2358.74	139.687
2361.12	154.968
2363.51	163.402
2365.89	144.257
2368.27	158.233
2370.65	168.083
2373.03	151.635
2375.41	155.944
2377.79	156.101
2380.17	171.497
2382.55	150.771
2384.92	152.236
2387.3	156.477
2389.67	157.923
2392.05	167.695
2394.42	153.803
2396.79	157.98
2399.16	170.504
2401.53	167.723
2403.9	163.529
2406.27	148.206
2408.64	152.408
2411.01	169.225
2413.37	162.434
2415.74	165.537
2418.1	164.612
2420.47	150.922
2422.83	160.927
2425.19	151.171
2427.55	158.373
2429.91	164.212
2432.27	157.374
2434.63	163.255
2436.99	159.259
2439.34	163.754
2441.7	162.577
2444.05	151.442
2446.41	153.093
2448.76	161.882
2451.11	162.127
2453.47	155.21
2455.82	151.136
2458.17	162.836
2460.51	163.071
2462.86	171.942
2465.21	163.54
2467.56	160.877
2469.9	155.309
2472.25	162.737
2474.59	165.841
2476.94	171.864
2479.28	169.185
2481.62	162.126
2483.96	176.876
2486.3	166.86
2488.64	162.658
2490.98	164.282
2493.32	155.677
2495.65	179.26
2497.99	163.328
2500.32	170.816
2502.66	169.506
2504.99	169.655
2507.32	171.264
2509.66	158.152
2511.99	165.622
2514.32	162.781
2516.65	168.777
2518.98	170.376
2521.3	180.85
2523.63	164.743
2525.96	160.429
2528.28	169.429
2530.61	169.558
2532.93	171.187
2535.25	177.281
2537.57	162.605
2539.89	167.228
2542.22	164.424
2544.53	172.042
2546.85	169.255
2549.17	179.891
2551.49	166.64
2553.8	169.813
2556.12	171.472
2558.43	167.126
2560.75	164.302
2563.06	179.503
2565.37	179.724
2567.68	175.431
2569.99	168.122
2572.3	165.325
2574.61	185.188
2576.92	168.761
2579.23	178.036
2581.53	181.242
2583.84	182.892
2586.14	167.824
2588.45	193.751
2590.75	178.601
2593.05	189.336
2595.35	192.506
2597.66	168.3
2599.96	186.716
2602.26	189.89
2604.55	191.533
2606.85	184.008
2609.15	182.584
2611.44	194.879
2613.74	188.839
2616.03	178.205
2618.33	184.411
2620.62	192.144
2622.91	192.233
2625.2	180.076
2627.49	189.382
2629.78	186.465
2632.07	180.512
2634.36	180.722
2636.64	184.052
2638.93	190.518
2641.22	190.813
2643.5	184.927
2645.78	169.737
2648.07	187.079
2650.35	184.256
2652.63	187.662
2654.91	194.11
2657.19	184.924
2659.47	210.072
2661.75	178.973
2664.03	196.298
2666.3	188.586
2668.58	180.91
2670.85	182.64
2673.13	193.845
2675.4	189.426
2677.67	200.855
2679.95	190.325
2682.22	198.688
2684.49	200.725
2686.76	199.593
2689.03	198.443
2691.29	182.859
2693.56	180.002
2695.83	196.144
2698.09	196.335
2700.36	194.952
2702.62	196.763
2704.89	177.659
2707.15	195.53
2709.41	187.649
2711.67	208.766
2713.93	189.596
2716.19	204.367
2718.45	193.245
2720.7	188.577
2722.96	206.568
2725.22	203.472
2727.47	197.116
2729.73	197.226
2731.98	195.674
2734.23	208.761
2736.49	192.584
2738.74	199.144
2740.99	202.504
2743.24	200.998
2745.49	202.766
2747.73	201.297
2749.98	212.914
2752.23	200.188
2754.47	202.094
2756.72	199.029
2758.96	195.921
2761.21	214.099
2763.45	194.576
2765.69	212.846
2767.93	211.422
2770.17	198.43
2772.41	200.278
2774.65	203.811
2776.89	194.166
2779.13	181.195
2781.36	203.049
2783.6	208.369
2785.84	197.083
2788.07	200.744
2790.3	199.401
2792.54	203.057
2794.77	191.649
2797	200.287
2799.23	208.942
2801.46	204.155
2803.69	194.291
2805.92	192.808
2808.14	203.111
2810.37	196.553
2812.59	213.615
2814.82	213.774
2817.04	183.49
2819.27	195.477
2821.49	202.408
2823.71	199.188
2825.93	199.358
2828.15	202.916
2830.37	208.17
2832.59	206.623
2834.81	199.958
2837.03	206.911
2839.24	205.355
2841.46	225.969
2843.67	195.42
2845.89	193.885
2848.1	197.48
2850.31	202.807
2852.53	179.048
2854.74	220.441
2856.95	200.108
2859.16	202.074
2861.37	197.179
2863.57	207.814
2865.78	216.776
2867.99	205.008
2870.19	210.524
2872.4	202.169
2874.6	212.911
2876.81	199.322
2879.01	210.112
2881.21	208.725
2883.41	221.343
2885.61	205.971
2887.81	199.308
2890.01	211.961
2892.21	215.838
2894.41	209.135
2896.6	216.593
2898.8	220.546
2901	222.722
2903.19	215.97
2905.38	214.52
2907.58	198.796
2909.77	200.869
2911.96	224.347
2914.15	217.439
2916.34	215.883
2918.53	203.585
2920.72	218.206
2922.91	196.901
2925.09	207.973
2927.28	211.88
2929.47	204.967
2931.65	217.935
2933.83	232.71
2936.02	205.787
2938.2	222.332
2940.38	208.003
2942.56	204.564
2944.74	208.382
2946.92	212.167
2949.1	210.492
2951.28	199.706
2953.46	208.976
2955.63	225.561
2957.81	211.095
2959.98	213.075
2962.16	222.389
2964.33	207.908
2966.5	219.087
2968.68	215.614
2970.85	213.975
2973.02	210.499
2975.19	227.26
2977.36	231.156
2979.52	227.686
2981.69	202.084
2983.86	222.644
2986.03	211.819
2988.19	219.506
2990.36	219.804
2992.52	220.119
2994.68	209.263
2996.85	230.066
2999.01	224.826
3001.17	215.843
3003.33	231.179
3005.49	222.2
3007.65	218.817
3009.8	234.228
3011.96	238.342
3014.12	236.848
3016.27	225.921
3018.43	239.591
3020.58	209.669
3022.74	229.034
3024.89	225.583
3027.04	227.801
3029.19	235.732
3031.34	241.755
3033.49	240.108
3035.64	242.256
3037.79	248.204
3039.94	236.974
3042.09	242.982
3044.23	254.742
3046.38	262.663
3048.52	255.186
3050.67	236.126
3052.81	259.475
3054.95	242.333
3057.09	254.155
3059.24	248.577
3061.38	272.029
3063.51	260.64
3065.65	274.448
3067.79	266.922
3069.93	272.984
3072.07	255.721
3074.2	267.633
3076.34	267.881
3078.47	254.483
3080.61	268.381
3082.74	282.305
3084.87	278.704
3087	273.153
3089.14	261.747
3091.27	291.571
3093.39	288.08
3095.52	288.552
3097.65	287.051
3099.78	269.732
3101.91	291.96
3104.03	286.532
3106.16	277.131
3108.28	309.501
3110.41	300.136
3112.53	298.739
3114.65	285.301
3116.77	307.929
3118.89	288.435
3121.01	299.109
3123.13	297.729
3125.25	324.681
3127.37	321.363
3129.49	293.667
3131.61	302.542
3133.72	307.366
3135.84	304.016
3137.95	308.839
3140.06	305.423
3142.18	324.637
3144.29	314.983
3146.4	328.028
3148.51	328.672
3150.62	333.415
3152.73	346.42
3154.84	344.863
3156.95	359.977
3159.06	324.978
3161.16	340.112
3163.27	351.103
3165.37	307.51
3167.48	343.645
3169.58	339.863
3171.69	342.48
3173.79	330.264
3175.89	358.07
3177.99	337.249
3180.09	356.563
3182.19	361.054
3184.29	357.055
3186.39	374.24
3188.49	359.54
3190.58	355.539
3192.68	351.583
3194.77	343.386
3196.87	371.435
3198.96	337.851
3201.06	338.467
3203.15	360.452
3205.24	346.106
3207.33	338.211
3209.42	353.948
3211.51	324.482
3213.6	329.484
3215.69	349.698
3217.78	346.102
3219.86	340.269
3221.95	316.986
3224.04	335.08
3226.12	335.763
3228.2	325.473
3230.29	321.704
3232.37	317.94
3234.45	320.705
3236.53	338.927
3238.61	317.439
3240.7	306.996
3242.77	307.623
3244.85	303.875
3246.93	315.611
3249.01	296.1
3251.08	307.73
3253.16	314.892
3255.23	306.285
3257.31	313.372
3259.38	311.62
3261.46	305.373
3263.53	305.916
3265.6	288.442
3267.67	291.597
3269.74	287.519
3271.81	279.115
3273.88	286.421
3275.95	286.694
3278.02	307.576
3280.08	280.419
3282.15	282.996
3284.21	292.46
3286.28	299.643
3288.34	297.639
3290.41	277.218
3292.47	284.377
3294.53	296.149
3296.59	287.177
3298.65	282.822
3300.71	283.141
3302.77	283.412
3304.83	292.955
3306.89	263.109
3308.95	286.561
3311	270.56
3313.06	300.999
3315.11	291.981
3317.17	287.583
3319.22	278.553
3321.27	281.183
3323.33	283.867
3325.38	281.875
3327.43	282.254
3329.48	296.7
3331.53	264.311
3333.58	290.688
3335.63	274.694
3337.67	291.716
3339.72	277.925
3341.77	278.257
3343.81	266.692
3345.86	293.068
3347.9	279.04
3349.95	284.056
3351.99	312.858
3354.03	275.023
3356.07	270.559
3358.11	263.706
3360.15	268.776
3362.19	264.307
3364.23	247.83
3366.27	269.66
3368.31	272.346
3370.34	272.641
3372.38	282.522
3374.42	277.956
3376.45	254.086
3378.48	256.678
3380.52	261.681
3382.55	290.816
3384.58	249.948
3386.61	269.434
3388.64	301.023
3390.68	272.152
3392.7	272.295
3394.73	279.734
3396.76	253.278
3398.79	280.15
3400.82	275.482
3402.84	270.764
3404.87	268.458
3406.89	227.269
3408.92	263.856
3410.94	271.249
3412.96	273.789
3414.98	249.549
3417	269.138
3419.03	274.116
3421.05	254.714
3423.06	276.742
3425.08	252.451
3427.1	255.011
3429.12	282.008
3431.14	257.75
3433.15	260.367
3435.17	260.562
3437.18	263.225
3439.2	243.852
3441.21	248.978
3443.22	268.864
3445.23	266.71
3447.25	252.284
3449.26	237.813
3451.27	265.252
3453.28	255.734
3455.28	263.542
3457.29	254.065
3459.3	269.401
3461.31	242.513
3463.31	225.499
3465.32	278.316
3467.32	256.303
3469.33	264.252
3471.33	257.162
3473.33	244.905
3475.34	280.483
3477.34	255.717
3479.34	258.628
3481.34	269.122
3483.34	249.27
3485.34	249.627
3487.33	265.203
3489.33	260.484
3491.33	230.301
3493.32	248.44
3495.32	235.981
3497.32	256.68
3499.31	254.396
3501.3	252.087
3503.3	236.931
3505.29	262.767
3507.28	255.249
3509.27	245.105
3511.26	270.865
3513.25	247.839
3515.24	255.624
3517.23	253.129
3519.22	250.632
3521.2	255.844
3523.19	258.492
3525.18	245.722
3527.16	240.674
3529.15	227.852
3531.13	248.572
3533.11	222.989
3535.1	233.52
3537.08	241.527
3539.06	246.998
3541.04	226.548
3543.02	247.495
3545	245.115
3546.98	242.716
3548.96	214.314
3550.93	243.023
3552.91	232.641
3554.89	240.515
3556.86	251.037
3558.84	251.18
3560.81	259.155
3562.78	248.918
3564.76	243.902
3566.73	272.852
3568.7	265.337
3570.67	228.97
3572.64	244.921
3574.61	239.95
3576.58	245.493
3578.55	261.593
3580.52	259.331
3582.48	233.348
3584.45	260.105
3586.41	241.979
3588.38	239.686
3590.35	253.297
3592.31	232.415
3594.27	262.012
3596.23	259.729
3598.2	246.754
3600.16	217.686
3602.12	236.684
3604.08	239.658
3606.04	223.851
3608	232.148
3609.95	253.876
3611.91	232.618
3613.87	227.49
3615.83	246.566
3617.78	217.136
3619.74	230.818
3621.69	203.945
3623.64	214.834
3625.6	223.013
3627.55	236.607
3629.5	220.444
3631.45	215.065
3633.4	212.402
3635.35	204.349
3637.3	228.813
3639.25	226.247
3641.2	212.88
3643.15	221.228
3645.09	218.729
3647.04	205.394
3648.98	208.165
3650.93	219.155
3652.87	197.491
3654.82	219.384
3656.76	214.033
3658.7	225.038
3660.64	225.132
3662.58	208.83
3664.53	211.648
3666.47	198.094
3668.4	231.007
3670.34	203.766
3672.28	212.075
3674.22	206.743
3676.16	212.389
3678.09	215.326
3680.03	215.545
3681.96	202.044
3683.9	213.306
3685.83	202.577
3687.76	194.579
3689.69	219.728
3691.63	203.437
3693.56	198.162
3695.49	226.147
3697.42	212.563
3699.35	201.718
3701.28	215.927
3703.2	193.87
3705.13	208.103
3707.06	200.005
3708.98	214.289
3710.91	222.997
3712.83	217.683
3714.76	198.264
3716.68	206.935
3718.6	221.248
3720.53	215.831
3722.45	201.921
3724.37	202.105
3726.29	207.935
3728.21	199.621
3730.13	205.464
3732.05	219.847
3733.97	194.502
3735.88	208.899
3737.8	203.402
3739.72	209.275
3741.63	195.198
3743.55	212.468
3745.46	195.506
3747.38	201.358
3749.29	210.061
3751.2	201.6
3753.11	216.004
3755.02	184.61
3756.93	196.126
3758.84	201.911
3760.75	216.283
3762.66	202.008
3764.57	202.05
3766.48	207.829
3768.39	207.897
3770.29	185.03
3772.2	199.462
3774.1	213.905
3776.01	205.379
3777.91	211.231
3779.81	196.979
3781.72	220.135
3783.62	197.268
3785.52	206.07
3787.42	177.38
3789.32	206.361
3791.22	215.165
3793.12	203.774
3795.02	201.067
3796.92	215.745
3798.81	195.67
3800.71	207.48
3802.61	184.461
3804.5	207.932
3806.4	176.147
3808.29	211.33
3810.18	191.137
3812.08	191.335
3813.97	185.681
3815.86	200.5
3817.75	191.91
3819.64	197.96
3821.53	195.207
3823.42	201.251
3825.31	189.642
3827.2	213.334
3829.09	184.066
3830.97	207.823
3832.86	196.219
3834.75	187.539
3836.63	199.524
3838.52	187.852
3840.4	196.88
3842.28	188.23
3844.17	185.395
3846.05	212.205
3847.93	194.457
3849.81	188.584
3851.69	197.564
3853.57	230.29
3855.45	203.6
3857.33	203.619
3859.21	179.834
3861.08	206.61
3862.96	203.683
3864.84	194.893
3866.71	192.117
3868.59	195.352
3870.46	165.699
3872.34	207.555
3874.21	198.647
3876.08	186.758
3877.95	201.76
3879.82	201.824
3881.69	183.947
3883.56	195.987
3885.44	190.086
3887.3	205.153
3889.17	205.259
3891.04	193.383
3892.91	202.521
3894.77	199.718
3896.64	208.903
3898.51	209.061
3900.37	188.153
3902.23	188.3
3904.1	188.429
3905.96	194.604
3907.82	188.693
3909.69	206.957
3911.55	188.993
3913.41	192.179
3915.27	183.266
3917.13	201.643
3918.99	183.65
3920.84	186.914
3922.7	196.274
3924.56	190.41
3926.42	181.471
3928.27	187.769
3930.13	178.792
3931.98	185.073
3933.84	188.274
3935.69	191.476
3937.54	203.871
3939.4	194.834
3941.25	204.229
3943.1	204.447
3944.95	198.493
3946.8	189.441
3948.65	180.364
3950.5	195.933
3952.35	186.811
3954.19	174.576
3956.04	193.242
3957.89	190.256
3959.73	193.43
3961.58	212.082
3963.42	190.483
3965.27	196.738
3967.11	178.186
3968.96	190.601
3970.8	187.525
3972.64	175.157
3974.48	199.995
3976.32	178.318
3978.16	175.237
3980	190.747
3981.84	200.039
3983.68	196.928
3985.52	193.825
3987.36	172.108
3989.19	200.018
3991.03	184.534
3992.86	184.575
3994.7	184.629
3996.53	187.81
3998.37	194.112
