#Acq. time (s)=	30
#Accumulations=	2
#Range (cm-¹)=	1200...2365
#Windows=	3
#Auto scanning=	Off
#Autofocus=	Off
#Macrospot=	Off
#AutoExposure=	Off
#Spike filter=	Multiple accum.
#Delay time (s)=	2
#Binning=	1
#Readout mode=	Signal
#DeNoise=	Off
#ICS correction=	On
#Dark correction=	Off
#Inst. Process=	Off
#Detector Gain=	Best Dynamic
#Detector ADC=	50 kHz HS
#Detector temperature (°C)=	-60.09
#Instrument=	LabRAM HR Evol
#Detector=	SIN-EM FIVIS
#Objective=	x100_VIS_LWD
#Grating=	1800 (450-850nm)
#ND Filter=	100%
#Laser=	532nm_Edge
#Hole=	100.021
#Temperature=	0
#Range=	Visible
#StageXY=	75x50mm Scan+
#StageZ=	Z motor
#X (µm)=	0
#Y (µm)=	0
#Z (µm)=	-51.2
#Full time(mm:ss)=	3:17
#Project=	21_11_26
#Sample=	BU19(2)w
#Site=	
#Title=	BU19(2)w-A-FF2-FI05-V_1800 (450-850nm)_532nm_Edge_100%_x100_VIS_LWD_H100um_30sX2
#Remark=	
#Date=	26.11.2021 15:09
#Acquired=	26.11.2021 15:09:56
1202.72	210.244
1203	215.931
1203.28	211.691
1203.56	204.025
1203.84	200.639
1204.11	215.594
1204.39	203.683
1204.67	200.465
1204.95	196.186
1205.23	196.145
1205.5	204.664
1205.78	199.206
1206.06	214.141
1206.34	214.035
1206.61	197.844
1206.89	206.325
1207.17	198.724
1207.45	207.213
1207.73	202.874
1208	221.022
1208.28	208.139
1208.56	211.304
1208.84	203.749
1209.11	202.621
1209.39	201.497
1209.67	211.092
1209.95	197.182
1210.23	203.576
1210.5	193.912
1210.78	209.855
1211.06	211.904
1211.34	206.495
1211.61	204.28
1211.89	189.28
1212.17	203.065
1212.45	205.116
1212.72	193.334
1213	187.948
1213.28	207.061
1213.56	200.628
1213.83	199.535
1214.11	201.619
1214.39	203.755
1214.67	197.372
1214.94	220.794
1215.22	196.302
1215.5	182.452
1215.78	179.246
1216.05	214.357
1216.33	210.042
1216.61	201.454
1216.89	201.364
1217.16	214.036
1217.44	206.53
1217.72	201.156
1218	207.467
1218.27	193.613
1218.55	202.059
1218.83	194.585
1219.1	208.355
1219.38	209.398
1219.66	210.437
1219.94	201.921
1220.21	202.943
1220.49	202.934
1220.77	205.053
1221.04	195.493
1221.32	202.894
1221.6	207.096
1221.88	179.494
1222.15	203.814
1222.43	196.316
1222.71	208.93
1222.98	196.123
1223.26	197.084
1223.54	211.795
1223.81	200.078
1224.09	195.779
1224.37	192.538
1224.65	211.495
1224.92	205.117
1225.2	198.753
1225.48	200.856
1225.76	205.101
1226.03	194.561
1226.31	210.423
1226.59	193.514
1226.86	206.167
1227.14	202.958
1227.42	209.253
1227.69	200.703
1227.97	201.562
1228.25	209.863
1228.52	209.74
1228.8	200.073
1229.08	207.273
1229.35	209.355
1229.63	204.604
1229.91	209.259
1230.18	200.622
1230.46	209.912
1230.74	221.42
1231.01	218.281
1231.29	202.359
1231.57	206.161
1231.84	199.891
1232.12	206.189
1232.4	205.128
1232.67	199.848
1232.95	205.093
1233.23	199.826
1233.5	202.955
1233.78	213.451
1234.06	204.006
1234.33	207.173
1234.61	199.836
1234.89	204.066
1235.16	189.383
1235.44	199.906
1235.71	202.024
1235.99	198.892
1236.27	211.523
1236.54	207.311
1236.82	210.436
1237.1	209.349
1237.37	208.249
1237.65	205.025
1237.93	218.6
1238.2	211.171
1238.48	195.351
1238.76	211.013
1239.03	206.757
1239.31	206.718
1239.58	205.638
1239.86	225.532
1240.14	216.08
1240.41	203.492
1240.69	204.536
1240.97	200.346
1241.24	207.692
1241.52	197.213
1241.79	204.53
1242.07	221.259
1242.35	212.847
1242.62	215.992
1242.9	216.003
1243.18	202.405
1243.45	209.767
1243.73	207.664
1244	218.146
1244.28	205.578
1244.56	207.669
1244.83	223.377
1245.11	209.726
1245.39	215.965
1245.66	211.717
1245.94	220.019
1246.21	208.427
1246.49	192.692
1246.76	214.655
1247.04	211.513
1247.32	209.413
1247.59	219.859
1247.87	226.131
1248.14	207.267
1248.42	215.556
1248.7	217.603
1248.97	215.498
1249.25	209.233
1249.52	212.383
1249.8	229.101
1250.08	222.815
1250.35	222.815
1250.63	222.765
1250.9	204.933
1251.18	209.065
1251.45	219.471
1251.73	221.519
1252.01	214.165
1252.28	215.168
1252.56	211.993
1252.83	230.743
1253.11	215.034
1253.39	219.165
1253.66	212.879
1253.94	223.312
1254.21	223.345
1254.49	225.473
1254.76	218.21
1255.04	222.403
1255.31	225.532
1255.59	227.636
1255.87	207.792
1256.14	213
1256.42	233.892
1256.69	230.775
1256.97	234.984
1257.24	238.126
1257.52	239.155
1257.79	234.941
1258.07	247.448
1258.35	239.073
1258.62	243.227
1258.9	242.153
1259.17	250.442
1259.45	234.778
1259.72	236.89
1260	246.318
1260.27	229.707
1260.55	243.218
1260.82	262.99
1261.1	258.719
1261.37	254.48
1261.65	273.211
1261.92	288.895
1262.2	282.885
1262.48	301.026
1262.75	322.137
1263.02	328.918
1263.3	342.081
1263.58	325.237
1263.85	350.604
1264.13	322.666
1264.4	322.968
1264.68	284.423
1264.95	284.241
1265.23	285.214
1265.5	262.217
1265.78	256.966
1266.05	255.872
1266.33	241.24
1266.6	242.299
1266.88	242.329
1267.15	241.327
1267.43	245.562
1267.7	241.442
1267.98	249.879
1268.25	248.912
1268.53	238.55
1268.8	229.209
1269.08	254.391
1269.35	246.049
1269.63	235.599
1269.9	245.012
1270.18	246.002
1270.45	238.594
1270.73	241.681
1271	237.433
1271.28	246.809
1271.55	255.161
1271.83	243.615
1272.1	255.141
1272.38	242.638
1272.65	233.281
1272.93	246.983
1273.2	252.283
1273.47	245.012
1273.75	257.653
1274.03	251.427
1274.3	252.54
1274.57	258.873
1274.85	248.393
1275.12	263.065
1275.4	255.721
1275.67	248.403
1275.95	243.195
1276.22	247.433
1276.5	246.44
1276.77	265.38
1277.05	267.529
1277.32	254.961
1277.6	262.375
1277.87	247.726
1278.14	273.006
1278.42	278.314
1278.69	286.774
1278.97	290.009
1279.24	287.95
1279.52	292.203
1279.79	306.911
1280.07	330.025
1280.34	351.018
1280.61	378.346
1280.89	408.875
1281.16	467.817
1281.44	601.555
1281.71	682.781
1281.99	880.766
1282.26	1123.9
1282.53	1397.7
1282.81	1678.96
1283.08	2059.74
1283.36	2270.21
1283.63	2269.27
1283.91	2072.99
1284.18	1611.63
1284.45	1239.25
1284.73	917.325
1285	659.324
1285.28	522.328
1285.55	448.347
1285.83	382.915
1286.1	355.546
1286.37	324.028
1286.65	325.076
1286.92	302.902
1287.2	296.578
1287.47	291.293
1287.75	278.616
1288.02	271.197
1288.29	271.166
1288.57	269.056
1288.84	248.013
1289.12	251.186
1289.39	261.747
1289.66	259.686
1289.94	257.626
1290.21	243.985
1290.49	244.025
1290.76	240.861
1291.03	246.099
1291.31	236.604
1291.58	226.066
1291.86	240.806
1292.13	251.326
1292.4	254.486
1292.68	253.446
1292.95	231.312
1293.22	248.142
1293.5	244.992
1293.77	225.053
1294.05	240.953
1294.32	225.237
1294.59	245.297
1294.87	244.241
1295.14	241.058
1295.42	237.936
1295.69	236.979
1295.96	229.716
1296.24	238.33
1296.51	231.029
1296.79	233.165
1297.06	220.485
1297.33	235.255
1297.61	240.496
1297.88	236.218
1298.15	224.543
1298.43	242.434
1298.7	231.899
1298.97	225.542
1299.25	230.781
1299.52	223.357
1299.79	232.819
1300.07	235.981
1300.34	223.351
1300.62	239.21
1300.89	228.655
1301.16	213.861
1301.44	237.078
1301.71	240.255
1301.98	213.893
1302.25	230.823
1302.53	242.46
1302.8	240.352
1303.08	219.22
1303.35	231.879
1303.62	221.29
1303.9	231.807
1304.17	225.461
1304.44	229.688
1304.72	228.63
1304.99	213.842
1305.26	228.594
1305.54	214.829
1305.81	213.722
1306.08	226.334
1306.35	215.727
1306.63	216.737
1306.9	220.934
1307.18	221.985
1307.45	210.401
1307.72	229.39
1308	225.166
1308.27	227.271
1308.54	217.788
1308.81	218.828
1309.09	208.29
1309.36	217.815
1309.63	217.843
1309.91	217.873
1310.18	225.278
1310.45	214.717
1310.73	218.922
1311	222.085
1311.27	219.982
1311.55	226.324
1311.82	217.889
1312.09	212.627
1312.37	221.107
1312.64	211.634
1312.91	238.045
1313.18	227.473
1313.46	220.045
1313.73	221.091
1314	217.901
1314.28	213.661
1314.55	211.547
1314.82	221.058
1315.09	217.911
1315.37	226.382
1315.64	214.792
1315.91	212.705
1316.18	214.843
1316.46	223.282
1316.73	222.209
1317	232.758
1317.28	221.133
1317.55	206.345
1317.82	222.216
1318.09	218.01
1318.37	222.247
1318.64	216.972
1318.91	206.41
1319.18	220.142
1319.46	207.456
1319.73	203.22
1320	215.887
1320.28	210.617
1320.55	215.899
1320.82	208.49
1321.09	207.402
1321.37	216.857
1321.64	203.069
1321.91	211.445
1322.18	221.957
1322.46	215.562
1322.73	214.476
1323	223.935
1323.27	216.518
1323.55	212.257
1323.82	210.17
1324.09	219.667
1324.36	203.851
1324.64	210.169
1324.91	204.898
1325.18	211.216
1325.45	211.227
1325.73	211.171
1326	213.181
1326.27	216.215
1326.54	209.744
1326.81	223.358
1327.09	217.026
1327.36	221.306
1327.63	211.972
1327.9	199.403
1328.18	222.655
1328.45	223.793
1328.72	207.004
1328.99	204.958
1329.27	212.36
1329.54	219.716
1329.81	218.682
1330.08	213.395
1330.35	221.815
1330.63	221.784
1330.9	198.539
1331.17	219.577
1331.44	216.346
1331.71	220.474
1331.99	216.163
1332.26	211.874
1332.53	210.76
1332.8	212.798
1333.07	202.204
1333.35	210.541
1333.62	206.265
1333.89	226.166
1334.16	215.593
1334.43	216.581
1334.71	214.421
1334.98	215.416
1335.25	206.972
1335.52	220.571
1335.79	217.379
1336.07	215.241
1336.34	228.836
1336.61	229.848
1336.88	221.427
1337.15	209.867
1337.43	221.375
1337.7	212.968
1337.97	210.846
1338.24	216.031
1338.51	210.74
1338.78	210.707
1339.06	204.386
1339.33	220.068
1339.6	236.812
1339.87	217.971
1340.14	231.594
1340.42	223.218
1340.69	222.177
1340.96	212.757
1341.23	217.986
1341.5	201.218
1341.77	229.474
1342.04	220.023
1342.32	216.845
1342.59	220.982
1342.86	227.199
1343.13	216.676
1343.4	228.149
1343.67	220.808
1343.95	221.844
1344.22	215.564
1344.49	214.52
1344.76	208.242
1345.03	221.816
1345.3	233.278
1345.58	222.77
1345.85	209.111
1346.12	219.503
1346.39	210.026
1346.66	215.139
1346.93	209.849
1347.2	235.865
1347.47	223.274
1347.75	216.953
1348.02	206.486
1348.29	218.965
1348.56	219.986
1348.83	207.461
1349.1	216.804
1349.37	223.012
1349.65	220.882
1349.92	205.218
1350.19	207.261
1350.46	222.837
1350.73	215.508
1351	221.696
1351.27	219.556
1351.54	218.478
1351.81	230.898
1352.09	220.479
1352.36	226.712
1352.63	226.736
1352.9	225.742
1353.17	204.999
1353.44	216.476
1353.71	223.949
1353.98	224.155
1354.25	238.523
1354.53	212.163
1354.8	227.526
1355.07	221.315
1355.34	234.839
1355.61	213.979
1355.88	213.937
1356.15	220.241
1356.42	210.905
1356.69	217.09
1356.96	226.414
1357.24	221.199
1357.51	222.213
1357.78	224.258
1358.05	240.832
1358.32	211.723
1358.59	226.212
1358.86	214.756
1359.13	242.722
1359.4	222.964
1359.67	223.967
1359.94	232.231
1360.22	216.618
1360.49	218.624
1360.76	225.813
1361.03	226.804
1361.3	223.675
1361.57	214.347
1361.84	221.587
1362.11	229.857
1362.38	218.435
1362.65	237.049
1362.92	235.988
1363.19	226.658
1363.46	219.422
1363.73	215.315
1364	238.126
1364.28	242.297
1364.55	244.363
1364.82	236.058
1365.09	242.244
1365.36	241.163
1365.63	238.001
1365.9	246.222
1366.17	235.815
1366.44	227.483
1366.71	230.53
1366.98	254.244
1367.25	240.715
1367.52	228.273
1367.79	240.649
1368.06	237.577
1368.33	255.165
1368.6	279.988
1368.87	307.914
1369.15	329.641
1369.41	316.225
1369.68	279.02
1369.95	268.645
1370.23	241.735
1370.5	239.637
1370.77	249.906
1371.04	247.804
1371.31	239.492
1371.58	244.586
1371.85	244.502
1372.12	259.883
1372.39	245.338
1372.66	247.313
1372.93	236.934
1373.2	246.169
1373.47	245.103
1373.74	244.039
1374.01	237.829
1374.28	253.262
1374.55	246.029
1374.82	237.768
1375.09	259.381
1375.36	253.165
1375.63	255.233
1375.9	252.172
1376.17	232.59
1376.44	256.296
1376.71	252.108
1376.98	267.49
1377.25	282.84
1377.52	270.372
1377.79	276.578
1378.06	264.294
1378.33	274.695
1378.6	274.828
1378.87	271.885
1379.14	281.207
1379.41	284.288
1379.68	283.217
1379.95	286.266
1380.22	292.387
1380.49	302.56
1380.76	292.021
1381.03	314.516
1381.3	294.857
1381.57	305.189
1381.84	315.39
1382.11	319.352
1382.38	330.491
1382.65	321.108
1382.92	332.281
1383.19	346.517
1383.46	356.675
1383.73	374.003
1384	389.314
1384.27	429.24
1384.54	471.288
1384.81	503.112
1385.08	588.32
1385.34	744.403
1385.61	924.278
1385.88	1217.07
1386.15	1758.41
1386.42	2561.64
1386.69	3689.87
1386.96	4664.99
1387.23	4752.23
1387.5	3906.88
1387.77	2536.97
1388.04	1648.11
1388.31	1089.12
1388.58	773.192
1388.85	613.492
1389.12	520.865
1389.39	463.694
1389.66	412.389
1389.93	361.091
1390.2	353.781
1390.46	329.91
1390.73	319.533
1391	318.494
1391.27	314.262
1391.54	296.81
1391.81	287.558
1392.08	285.441
1392.35	288.437
1392.62	275.058
1392.89	285.248
1393.16	258.589
1393.43	283.124
1393.7	271.834
1393.97	257.479
1394.23	256.432
1394.5	263.575
1394.77	264.579
1395.04	237.964
1395.31	269.709
1395.58	264.635
1395.85	260.57
1396.12	253.415
1396.39	266.711
1396.66	260.546
1396.93	249.255
1397.2	262.523
1397.46	254.287
1397.73	239.917
1398	240.914
1398.27	255.229
1398.54	242.969
1398.81	247.088
1399.08	255.288
1399.35	231.767
1399.62	244.084
1399.89	250.249
1400.16	257.436
1400.42	235.937
1400.69	246.205
1400.96	254.456
1401.23	244.244
1401.5	246.281
1401.77	251.429
1402.04	255.522
1402.31	256.631
1402.58	245.499
1402.84	239.493
1403.11	238.571
1403.38	254.042
1403.65	225.334
1403.92	265.373
1404.19	242.735
1404.46	246.699
1404.73	250.838
1404.99	262.099
1405.26	264.117
1405.53	257.915
1405.8	266.069
1406.07	307.031
1406.34	287.502
1406.61	311.045
1406.87	308.969
1407.14	323.331
1407.41	340.779
1407.68	360.284
1407.95	408.49
1408.22	435.17
1408.49	428.016
1408.76	448.548
1409.02	416.79
1409.29	376.829
1409.56	351.217
1409.83	332.78
1410.1	290.738
1410.37	276.376
1410.63	253.756
1410.9	254.709
1411.17	242.328
1411.44	238.17
1411.71	236.078
1411.98	238.094
1412.25	242.182
1412.51	243.239
1412.78	239.207
1413.05	217.819
1413.32	234.507
1413.59	222.32
1413.86	221.12
1414.12	219.801
1414.39	239.333
1414.66	217.942
1414.93	222.148
1415.2	211.866
1415.47	236.512
1415.73	222.138
1416	218.036
1416.27	229.347
1416.54	218.07
1416.81	213.982
1417.07	214.003
1417.34	221.217
1417.61	217.133
1417.88	223.319
1418.15	211
1418.42	214.085
1418.68	225.396
1418.95	217.184
1419.22	222.324
1419.49	214.105
1419.76	213.053
1420.02	226.367
1420.29	215.021
1420.56	212.925
1420.83	204.665
1421.1	221.045
1421.36	219.976
1421.63	209.691
1421.9	230.23
1422.17	207.702
1422.44	208.798
1422.7	218.114
1422.97	210.006
1423.24	217.387
1423.51	227.876
1423.77	212.952
1424.04	190.974
1424.31	228.967
1424.58	223.621
1424.85	201.082
1425.11	219.585
1425.38	216.66
1425.65	222.84
1425.92	210.501
1426.19	209.546
1426.45	207.478
1426.72	213.593
1426.99	206.358
1427.26	207.325
1427.52	194.965
1427.79	203.078
1428.06	205.058
1428.33	193.76
1428.59	212.175
1428.86	220.368
1429.13	207.068
1429.4	195.819
1429.67	194.816
1429.93	196.893
1430.2	208.204
1430.47	196.985
1430.74	210.352
1431	205.288
1431.27	204.351
1431.54	199.289
1431.81	211.638
1432.07	204.453
1432.34	215.702
1432.61	205.389
1432.87	206.382
1433.14	204.267
1433.41	209.314
1433.68	183.606
1433.95	204.017
1434.21	190.653
1434.48	202.919
1434.75	193.792
1435.01	210.226
1435.28	205.11
1435.55	216.382
1435.82	201.005
1436.08	207.141
1436.35	207.127
1436.62	203.013
1436.89	189.674
1437.15	205.02
1437.42	194.757
1437.69	204.993
1437.95	202.92
1438.22	208.029
1438.49	200.869
1438.76	202.947
1439.02	199.89
1439.29	197.846
1439.56	209.125
1439.82	197.885
1440.09	191.779
1440.36	200.033
1440.63	195.955
1440.89	200.067
1441.16	189.814
1441.43	195.977
1441.69	193.909
1441.96	192.85
1442.23	207.184
1442.49	202.098
1442.76	187.745
1443.03	199.064
1443.3	199.037
1443.56	203.102
1443.83	193.844
1444.1	206.125
1444.36	188.689
1444.63	202.026
1444.9	188.752
1445.16	204.182
1445.43	196.038
1445.7	192.942
1445.97	211.388
1446.23	189.826
1446.5	200.066
1446.77	189.792
1447.03	194.904
1447.3	188.733
1447.57	205.119
1447.83	197.914
1448.1	195.842
1448.37	200.965
1448.63	206.125
1448.9	197.966
1449.17	192.848
1449.43	208.228
1449.7	187.697
1449.97	191.773
1450.23	193.79
1450.5	197.857
1450.77	211.164
1451.03	192.696
1451.3	194.729
1451.57	213.157
1451.83	200.837
1452.1	202.865
1452.37	189.528
1452.63	189.518
1452.9	204.887
1453.17	199.772
1453.43	203.892
1453.7	186.488
1453.97	199.811
1454.23	186.473
1454.5	191.584
1454.77	192.607
1455.03	194.655
1455.3	199.771
1455.56	197.707
1455.83	210.005
1456.1	180.319
1456.36	175.21
1456.63	189.557
1456.9	184.415
1457.16	192.579
1457.43	193.571
1457.7	189.456
1457.96	198.662
1458.23	181.237
1458.49	185.334
1458.76	191.483
1459.03	197.639
1459.29	189.45
1459.56	202.774
1459.82	195.605
1460.09	201.743
1460.36	184.311
1460.62	188.394
1460.89	197.595
1461.16	185.281
1461.42	197.544
1461.69	192.397
1461.95	194.414
1462.22	185.167
1462.49	184.107
1462.75	193.277
1463.02	180.956
1463.28	194.209
1463.55	183.934
1463.82	182.871
1464.08	186.952
1464.35	185.986
1464.61	184.024
1464.88	188.182
1465.15	182.125
1465.41	193.238
1465.68	197.99
1465.94	186.599
1466.21	185.558
1466.48	198.884
1466.74	182.532
1467.01	189.591
1467.27	192.623
1467.54	194.681
1467.8	186.505
1468.07	186.489
1468.34	185.458
1468.6	194.633
1468.87	194.627
1469.13	196.653
1469.4	189.492
1469.67	200.684
1469.93	189.428
1470.2	195.497
1470.46	186.285
1470.73	191.353
1470.99	191.328
1471.26	187.236
1471.53	187.208
1471.79	185.132
1472.06	190.196
1472.32	201.381
1472.59	195.262
1472.85	183.035
1473.12	196.264
1473.39	188.102
1473.65	184
1473.92	189.06
1474.18	185.981
1474.45	180.877
1474.71	187.998
1474.98	193.101
1475.24	181.916
1475.51	171.738
1475.78	195.14
1476.04	186.978
1476.31	185.933
1476.57	207.279
1476.84	191.998
1477.1	180.775
1477.37	187.862
1477.63	198.014
1477.9	190.886
1478.16	183.76
1478.43	194.922
1478.69	180.648
1478.96	179.603
1479.22	197.868
1479.49	180.557
1479.76	192.712
1480.02	200.794
1480.29	186.531
1480.55	182.401
1480.82	192.495
1481.08	182.307
1481.35	194.463
1481.61	177.182
1481.88	185.312
1482.14	178.237
1482.41	189.431
1482.67	188.453
1482.94	193.557
1483.2	190.508
1483.47	189.513
1483.73	179.369
1484	179.367
1484.26	195.606
1484.53	187.404
1484.79	191.354
1485.06	179.999
1485.32	182.788
1485.59	187.754
1485.85	188.617
1486.12	193.106
1486.38	196.199
1486.65	199.313
1486.91	206.188
1487.18	199.198
1487.44	173.891
1487.71	189.034
1487.97	184.936
1488.24	191.997
1488.5	176.774
1488.77	185.844
1489.03	175.675
1489.3	166.532
1489.56	187.759
1489.83	179.647
1490.09	193.795
1490.36	187.721
1490.62	197.833
1490.89	178.587
1491.15	178.549
1491.42	196.711
1491.68	204.778
1491.95	177.47
1492.21	185.555
1492.48	181.516
1492.74	188.585
1493	186.55
1493.27	194.629
1493.53	186.539
1493.8	193.599
1494.06	181.459
1494.33	190.557
1494.59	194.61
1494.86	208.778
1495.12	185.516
1495.39	184.472
1495.65	192.499
1495.92	196.468
1496.18	180.251
1496.45	188.292
1496.71	190.283
1496.97	192.276
1497.24	197.293
1497.5	201.326
1497.77	188.201
1498.03	193.234
1498.3	179.098
1498.56	184.143
1498.82	177.08
1499.09	184.148
1499.35	195.256
1499.62	191.229
1499.88	191.244
1500.15	196.305
1500.41	189.243
1500.68	209.43
1500.94	181.153
1501.2	189.221
1501.47	197.274
1501.73	185.122
1502	178.044
1502.26	196.2
1502.52	190.136
1502.79	204.241
1503.05	193.098
1503.32	200.117
1503.58	184.964
1503.85	185.936
1504.11	182.908
1504.37	177.881
1504.64	181.92
1504.9	190.995
1505.17	189.976
1505.43	179.87
1505.7	188.913
1505.96	205.991
1506.22	185.765
1506.49	183.734
1506.75	180.704
1507.02	186.754
1507.28	194.839
1507.54	183.76
1507.81	187.797
1508.07	196.862
1508.34	204.907
1508.6	190.787
1508.86	180.712
1509.13	184.747
1509.39	187.77
1509.66	176.681
1509.92	191.792
1510.18	188.788
1510.45	187.79
1510.71	196.82
1510.98	182.675
1511.24	194.716
1511.5	194.659
1511.77	189.545
1512.03	195.478
1512.29	186.323
1512.56	195.273
1512.82	199.206
1513.08	194.13
1513.35	200.107
1513.61	192.035
1513.88	189.005
1514.14	192.059
1514.4	197.154
1514.67	180.093
1514.93	190.114
1515.2	200.11
1515.46	194.03
1515.72	204.015
1515.99	183.882
1516.25	199.874
1516.51	190.803
1516.78	177.745
1517.04	179.734
1517.3	180.722
1517.57	188.735
1517.83	176.705
1518.09	176.715
1518.36	189.782
1518.62	186.781
1518.88	187.795
1519.15	184.795
1519.41	182.802
1519.67	187.831
1519.94	186.834
1520.2	174.788
1520.47	195.836
1520.73	197.826
1520.99	185.797
1521.26	193.84
1521.52	199.875
1521.78	201.886
1522.05	184.818
1522.31	196.838
1522.57	189.792
1522.84	208.824
1523.1	199.773
1523.36	203.749
1523.62	194.662
1523.89	191.576
1524.15	190.52
1524.41	185.469
1524.68	198.453
1524.94	178.392
1525.2	201.443
1525.47	188.431
1525.73	188.436
1525.99	189.463
1526.26	201.518
1526.52	199.565
1526.78	198.602
1527.05	194.606
1527.31	192.594
1527.57	190.559
1527.84	203.573
1528.1	202.551
1528.36	183.493
1528.63	202.505
1528.89	185.45
1529.15	193.444
1529.41	211.461
1529.68	196.43
1529.94	196.415
1530.2	206.395
1530.47	186.356
1530.73	197.387
1530.99	193.418
1531.25	199.466
1531.52	203.503
1531.78	194.486
1532.04	208.499
1532.31	187.46
1532.57	195.447
1532.83	189.456
1533.09	188.502
1533.36	196.589
1533.62	196.648
1533.88	195.671
1534.15	190.668
1534.41	202.702
1534.67	199.679
1534.94	189.63
1535.2	180.581
1535.46	199.616
1535.72	197.57
1535.99	183.438
1536.25	180.374
1536.51	213.384
1536.77	205.297
1537.04	182.197
1537.3	197.143
1537.56	180.105
1537.82	182.061
1538.09	199.064
1538.35	189.02
1538.61	187.958
1538.87	199.932
1539.14	205.907
1539.4	184.965
1539.66	202.076
1539.92	176.193
1540.19	197.314
1540.45	196.394
1540.71	186.453
1540.97	178.48
1541.24	186.521
1541.5	189.448
1541.76	185.426
1542.02	187.377
1542.29	179.312
1542.55	182.269
1542.81	181.219
1543.07	203.2
1543.34	198.146
1543.6	199.095
1543.86	179.02
1544.12	191.957
1544.39	184.962
1544.65	196.973
1544.91	190.009
1545.17	206.075
1545.43	192.106
1545.7	201.192
1545.96	193.222
1546.22	198.252
1546.48	190.258
1546.74	187.239
1547.01	185.243
1547.27	189.269
1547.53	193.297
1547.79	190.309
1548.06	191.266
1548.32	196.17
1548.58	184.151
1548.84	199.179
1549.1	185.212
1549.37	186.038
1549.63	181.842
1549.89	189.795
1550.15	190.9
1550.42	189.096
1550.68	186.374
1550.94	190.594
1551.2	194.797
1551.46	200.686
1551.73	200.704
1551.99	194.637
1552.25	191.562
1552.51	195.662
1552.77	200.763
1553.03	208.768
1553.3	194.649
1553.56	189.487
1553.82	198.482
1554.08	190.438
1554.34	195.411
1554.61	191.341
1554.87	189.27
1555.13	193.207
1555.39	188.171
1555.65	194.166
1555.91	188.152
1556.18	193.17
1556.44	192.168
1556.7	201.15
1556.96	185.124
1557.22	191.143
1557.48	183.138
1557.75	198.165
1558.01	195.147
1558.27	185.092
1558.53	193.04
1558.79	192.989
1559.06	190.919
1559.32	190.857
1559.58	180.802
1559.84	193.758
1560.1	182.724
1560.36	194.69
1560.63	192.668
1560.89	185.654
1561.15	183.641
1561.41	192.631
1561.67	192.642
1561.93	198.672
1562.19	196.725
1562.46	202.782
1562.72	192.78
1562.98	202.769
1563.24	195.75
1563.5	193.756
1563.76	194.735
1564.02	180.721
1564.29	181.783
1564.55	197.862
1564.81	189.878
1565.07	193.865
1565.33	191.752
1565.59	183.422
1565.85	197.91
1566.11	177.759
1566.38	194.48
1566.64	199.714
1566.9	185.614
1567.16	198.473
1567.42	197.634
1567.68	197.809
1567.94	195.759
1568.2	200.616
1568.47	189.641
1568.73	196.664
1568.99	188.676
1569.25	202.653
1569.51	185.583
1569.77	197.532
1570.03	190.535
1570.29	191.547
1570.55	202.543
1570.82	202.543
1571.08	181.549
1571.34	189.533
1571.6	187.514
1571.86	197.473
1572.12	182.45
1572.38	198.424
1572.64	188.408
1572.9	182.377
1573.17	204.313
1573.43	187.31
1573.69	182.285
1573.95	196.228
1574.21	189.244
1574.47	189.275
1574.73	206.29
1574.99	189.36
1575.25	187.408
1575.51	179.457
1575.78	195.477
1576.04	187.489
1576.3	177.479
1576.56	184.468
1576.82	202.43
1577.08	190.376
1577.34	190.299
1577.6	198.212
1577.86	180.179
1578.12	193.086
1578.38	186.045
1578.64	195.977
1578.9	187.987
1579.17	197.951
1579.43	180.999
1579.69	202.931
1579.95	183
1580.21	191.001
1580.47	182.037
1580.73	179.046
1580.99	184.022
1581.25	191.974
1581.51	194.931
1581.77	185.932
1582.03	196.853
1582.29	195.812
1582.55	196.79
1582.81	184.819
1583.07	181.813
1583.33	186.78
1583.59	193.744
1583.85	189.752
1584.11	189.73
1584.38	194.706
1584.64	181.772
1584.9	198.715
1585.16	183.778
1585.42	187.758
1585.68	201.69
1585.94	195.705
1586.2	194.687
1586.46	187.669
1586.72	196.578
1586.98	185.592
1587.24	205.467
1587.5	201.462
1587.76	191.491
1588.02	193.469
1588.28	188.493
1588.54	183.53
1588.8	205.441
1589.06	174.616
1589.32	214.45
1589.58	184.61
1589.84	195.576
1590.1	191.597
1590.36	187.611
1590.62	204.551
1590.88	185.651
1591.14	189.65
1591.4	199.6
1591.66	193.621
1591.92	181.655
1592.18	194.577
1592.44	196.521
1592.7	193.47
1592.96	195.411
1593.22	194.383
1593.48	191.325
1593.74	190.251
1594	196.13
1594.26	196.076
1594.52	192.073
1594.78	195.05
1595.04	189.111
1595.3	203.056
1595.56	187.182
1595.82	202.084
1596.08	186.097
1596.34	185.096
1596.6	196.019
1596.86	195.024
1597.12	204.961
1597.38	185.106
1597.64	198.034
1597.9	198.049
1598.16	205.989
1598.42	197.025
1598.68	190.034
1598.94	204.873
1599.2	194.893
1599.46	201.801
1599.72	212.679
1599.98	193.788
1600.24	191.768
1600.5	189.749
1600.76	187.726
1601.02	187.676
1601.28	192.57
1601.54	203.401
1601.8	191.446
1602.06	196.341
1602.32	205.207
1602.58	209.123
1602.84	191.262
1603.1	176.371
1603.36	192.155
1603.62	204.972
1603.88	185.166
1604.14	198.001
1604.4	207.881
1604.66	205.904
1604.92	202.941
1605.17	200.963
1605.43	199.975
1605.69	183.17
1605.95	198.016
1606.21	189.135
1606.47	190.146
1606.73	202.04
1606.99	203.048
1607.25	199.017
1607.51	195.13
1607.77	199.135
1608.03	196.993
1608.29	190.414
1608.55	186.529
1608.81	194.08
1609.07	200.618
1609.32	181.309
1609.58	193.891
1609.84	198.666
1610.1	194.978
1610.36	200.223
1610.62	200.796
1610.88	202.014
1611.14	185.069
1611.4	202.604
1611.66	195.103
1611.92	199.292
1612.18	197.8
1612.44	197.139
1612.69	202.594
1612.95	193.642
1613.21	197.286
1613.47	209.105
1613.73	195.322
1613.99	191.637
1614.25	197.325
1614.51	188.434
1614.77	195.407
1615.03	189.476
1615.29	184.905
1615.54	194.18
1615.8	193.685
1616.06	199.094
1616.32	195.625
1616.58	193.596
1616.84	194.128
1617.1	192.58
1617.36	194.92
1617.62	198.438
1617.88	197.946
1618.13	201.108
1618.39	202.569
1618.65	196.274
1618.91	191.358
1619.17	191.343
1619.43	202.685
1619.69	197.153
1619.95	199.263
1620.2	190.771
1620.46	193.249
1620.72	202.971
1620.98	193.799
1621.24	197.081
1621.5	207.497
1621.76	202.247
1622.02	196.865
1622.27	198.66
1622.53	201.009
1622.79	198.892
1623.05	191.532
1623.31	198.642
1623.57	193.029
1623.83	193.986
1624.09	192.346
1624.34	191.053
1624.6	189.407
1624.86	197.158
1625.12	192.64
1625.38	200.75
1625.64	199.189
1625.9	197.384
1626.15	194.177
1626.41	201.075
1626.67	200.6
1626.93	192.583
1627.19	192.682
1627.45	197.39
1627.7	197.761
1627.96	201.059
1628.22	202.129
1628.48	198.034
1628.74	192.646
1629	191.663
1629.26	193.898
1629.51	189.37
1629.77	193.015
1630.03	199.995
1630.29	199.363
1630.55	197.125
1630.81	198.259
1631.06	200.588
1631.32	200.906
1631.53	196.297
1631.79	191.391
1632.05	201.27
1632.31	202.28
1632.57	196.348
1632.84	205.264
1633.1	186.618
1633.36	192.457
1633.62	196.292
1633.88	207.099
1634.14	207.118
1634.4	183.486
1634.66	206.156
1634.93	193.338
1635.19	196.283
1635.45	211.05
1635.71	185.403
1635.97	199.175
1636.23	197.175
1636.49	205.023
1636.75	203.018
1637.02	207.907
1637.28	187.181
1637.54	196.985
1637.8	194.003
1638.06	200.879
1638.32	199.867
1638.58	204.759
1638.84	197.844
1639.1	191.93
1639.37	193.89
1639.63	213.565
1639.89	195.836
1640.15	190.901
1640.41	207.618
1640.67	209.583
1640.93	193.861
1641.19	203.724
1641.46	189.936
1641.72	193.852
1641.98	194.806
1642.24	196.752
1642.5	198.701
1642.76	197.698
1643.02	211.46
1643.28	201.6
1643.54	188.79
1643.8	201.571
1644.06	193.672
1644.33	193.641
1644.59	191.633
1644.85	187.663
1645.11	197.485
1645.37	199.458
1645.63	198.491
1645.89	193.576
1646.15	195.537
1646.41	192.556
1646.67	200.395
1646.93	187.575
1647.19	194.439
1647.46	199.327
1647.72	207.164
1647.98	194.351
1648.24	201.221
1648.5	205.153
1648.76	211.081
1649.02	190.451
1649.28	201.364
1649.54	190.564
1649.8	204.316
1650.06	192.471
1650.32	190.492
1650.58	201.369
1650.85	195.498
1651.11	200.45
1651.37	197.522
1651.63	201.48
1651.89	198.525
1652.15	200.487
1652.41	188.653
1652.67	191.607
1652.93	188.622
1653.19	196.472
1653.45	188.57
1653.71	200.384
1653.97	195.457
1654.23	199.408
1654.49	200.397
1654.75	192.511
1655.01	188.572
1655.27	210.272
1655.53	210.304
1655.8	179.783
1656.06	194.636
1656.32	193.686
1656.57	197.654
1656.84	197.662
1657.1	188.777
1657.36	188.762
1657.62	198.607
1657.88	195.614
1658.14	199.539
1658.4	199.515
1658.66	184.684
1658.92	200.433
1659.18	197.435
1659.44	201.341
1659.7	211.163
1659.96	208.164
1660.22	187.409
1660.48	201.216
1660.74	189.4
1661	191.392
1661.26	194.375
1661.52	204.267
1661.78	193.445
1662.04	209.241
1662.3	202.339
1662.56	197.216
1662.82	191.649
1663.08	206.671
1663.34	186.781
1663.6	199.598
1663.86	191.634
1664.12	199.12
1664.38	200.306
1664.64	201.333
1664.9	189.493
1665.16	198.468
1665.42	184.665
1665.68	196.301
1665.94	194.138
1666.2	181.772
1666.46	197.622
1666.72	190.671
1666.98	210.144
1667.24	183.895
1667.5	200.218
1667.76	206.087
1668.02	193.215
1668.28	202.066
1668.54	184.264
1668.8	195.111
1669.06	200.124
1669.32	197.264
1669.58	189.374
1669.84	191.344
1670.1	203.195
1670.36	204.152
1670.62	190.315
1670.88	201.273
1671.14	201.331
1671.4	184.497
1671.66	189.414
1671.92	199.28
1672.18	204.221
1672.44	208.183
1672.69	189.398
1672.95	191.364
1673.21	195.308
1673.47	195.304
1673.73	190.359
1673.99	183.442
1674.25	188.395
1674.51	193.355
1674.77	206.227
1675.03	193.384
1675.29	210.23
1675.55	201.347
1675.81	190.469
1676.07	191.452
1676.33	200.346
1676.59	200.343
1676.85	187.477
1677.11	183.514
1677.37	208.244
1677.63	194.367
1677.89	188.403
1678.14	200.24
1678.4	191.288
1678.66	206.073
1678.92	195.148
1679.18	201.044
1679.44	184.203
1679.7	191.097
1679.96	187.114
1680.22	190.05
1680.48	196.944
1680.74	192.961
1681	202.813
1681.26	203.773
1681.52	181.031
1681.78	191.885
1682.03	198.788
1682.29	193.839
1682.55	192.842
1682.81	188.885
1683.07	196.77
1683.33	195.767
1683.59	188.84
1683.85	200.684
1684.11	188.814
1684.37	194.719
1684.63	195.667
1684.89	187.74
1685.14	194.633
1685.4	197.579
1685.66	200.528
1685.92	194.592
1686.18	176.809
1686.44	194.578
1686.7	195.572
1686.96	194.614
1687.22	186.721
1687.48	188.691
1687.73	184.715
1687.99	205.426
1688.25	200.454
1688.51	186.6
1688.77	201.381
1689.03	196.406
1689.29	194.38
1689.55	191.376
1689.81	187.386
1690.06	175.501
1690.32	187.288
1690.58	193.183
1690.84	185.326
1691.1	192.246
1691.36	201.134
1691.62	194.227
1691.88	206.08
1692.13	200.166
1692.39	195.222
1692.65	191.253
1692.91	182.335
1693.17	190.183
1693.43	191.116
1693.69	195.985
1693.95	179.158
1694.2	192.91
1694.46	198.775
1694.72	194.783
1694.98	197.7
1695.24	193.747
1695.5	196.703
1695.76	194.734
1696.01	188.824
1696.27	195.724
1696.53	190.814
1696.79	190.821
1697.05	192.781
1697.31	189.797
1697.57	182.855
1697.82	188.708
1698.08	192.587
1698.34	186.63
1698.6	188.556
1698.86	194.42
1699.12	190.447
1699.38	192.391
1699.63	190.409
1699.89	179.585
1700.15	187.449
1700.41	189.41
1700.67	193.3
1700.92	201.152
1701.18	189.328
1701.44	199.144
1701.7	202.067
1701.96	191.206
1702.22	185.259
1702.47	200.945
1702.73	190.083
1702.99	197.9
1703.25	191.983
1703.51	197.863
1703.77	193.91
1704.02	184.057
1704.28	198.772
1704.54	200.745
1704.8	187.004
1705.06	198.792
1705.32	196.807
1705.57	177.134
1705.83	193.827
1706.09	202.66
1706.35	189.847
1706.61	189.796
1706.86	180.904
1707.12	191.648
1707.38	194.535
1707.64	191.539
1707.9	198.345
1708.16	188.465
1708.41	189.376
1708.67	192.246
1708.93	187.267
1709.19	188.176
1709.44	191.061
1709.7	192.98
1709.96	190.019
1710.22	196.859
1710.48	207.621
1710.73	183.143
1710.99	202.729
1711.25	185.123
1711.51	194.924
1711.77	191.992
1712.02	195.915
1712.28	194.928
1712.54	177.267
1712.8	191.894
1713.06	182.018
1713.31	199.539
1713.57	198.472
1713.83	183.727
1714.09	193.419
1714.34	187.512
1714.6	184.547
1714.86	184.52
1715.12	185.476
1715.38	187.416
1715.63	206.975
1715.89	191.377
1716.15	193.32
1716.41	199.155
1716.66	193.256
1716.92	191.251
1717.18	191.187
1717.44	192.085
1717.69	193.946
1717.95	186.038
1718.21	187.896
1718.47	181.969
1718.72	193.586
1718.98	196.455
1719.24	202.262
1719.5	184.722
1719.75	191.525
1720.01	190.531
1720.27	199.297
1720.53	195.401
1720.78	186.609
1721.04	185.591
1721.3	184.558
1721.56	177.698
1721.81	191.27
1722.07	180.519
1722.33	190.187
1722.59	198.876
1722.84	182.295
1723.1	200.701
1723.36	194.82
1723.62	189.92
1723.87	185.033
1724.13	194.731
1724.39	200.53
1724.64	180.12
1724.9	192.701
1725.16	191.669
1725.42	191.584
1725.67	180.838
1725.93	186.576
1726.19	191.366
1726.45	191.332
1726.7	199.089
1726.96	187.435
1727.22	195.149
1727.47	210.566
1727.73	189.243
1727.99	208.653
1728.24	190.224
1728.5	190.182
1728.76	190.1
1729.02	200.462
1729.27	192.42
1729.53	176.865
1729.79	194.332
1730.05	197.321
1730.3	194.489
1730.56	187.601
1730.82	177.886
1731.07	187.511
1731.33	196.411
1731.59	188.682
1731.84	190.609
1732.1	193.493
1732.36	185.741
1732.61	195.376
1732.87	199.209
1733.13	200.135
1733.39	205.877
1733.64	196.149
1733.9	181.583
1734.16	195.968
1734.41	182.396
1734.67	192.934
1734.93	183.224
1735.18	204.351
1735.44	202.349
1735.7	196.505
1735.95	186.826
1736.21	202.189
1736.47	205.047
1736.72	191.542
1736.98	194.393
1737.24	189.546
1737.49	195.28
1737.75	189.472
1738.01	192.324
1738.26	196.126
1738.52	189.345
1738.78	196.984
1739.03	192.127
1739.29	183.424
1739.55	184.321
1739.8	195.763
1740.06	194.705
1740.32	185.979
1740.57	185.898
1740.83	196.374
1741.09	186.732
1741.34	197.219
1741.6	183.754
1741.86	190.411
1742.11	198.029
1742.37	187.466
1742.63	192.232
1742.88	189.335
1743.14	200.792
1743.4	198.854
1743.65	188.31
1743.91	192.11
1744.16	187.276
1744.42	189.146
1744.68	183.369
1744.93	181.432
1745.19	190.987
1745.45	186.197
1745.7	190.97
1745.96	195.732
1746.22	189.003
1746.47	197.56
1746.73	204.19
1746.98	194.562
1747.24	188.774
1747.5	182.024
1747.75	201.07
1748.01	178.101
1748.27	187.616
1748.52	190.465
1748.78	200.003
1749.03	183.773
1749.29	199.05
1749.55	187.606
1749.8	194.311
1750.06	180.968
1750.32	185.776
1750.57	193.455
1750.83	199.221
1751.08	200.183
1751.34	194.461
1751.6	193.5
1751.85	188.686
1752.11	178.109
1752.36	191.42
1752.62	182.769
1752.88	186.539
1753.13	198.898
1753.39	203.616
1753.64	194.024
1753.9	180.623
1754.15	203.479
1754.41	187.209
1754.67	184.297
1754.92	183.305
1755.18	184.222
1755.43	184.191
1755.69	187.017
1755.95	197.457
1756.2	196.452
1756.46	192.584
1756.71	195.378
1756.97	184.834
1757.23	193.328
1757.48	180.895
1757.74	179.912
1757.99	186.537
1758.25	193.197
1758.5	191.342
1758.76	195.156
1759.02	182.781
1759.27	183.725
1759.53	195.136
1759.78	196.088
1760.04	198.93
1760.3	188.438
1760.55	189.363
1760.81	201.703
1761.06	209.28
1761.32	195.92
1761.57	203.478
1761.83	199.629
1762.08	183.433
1762.34	203.371
1762.6	190.996
1762.85	187.216
1763.11	201.49
1763.36	188.172
1763.62	185.302
1763.87	187.2
1764.13	191.007
1764.38	186.263
1764.64	191.999
1764.89	198.723
1765.15	196.841
1765.4	205.425
1765.66	189.251
1765.92	194.015
1766.17	188.3
1766.43	196.859
1766.68	196.843
1766.94	188.249
1767.19	197.745
1767.45	191.069
1767.7	197.706
1767.96	186.249
1768.21	199.532
1768.47	177.616
1768.73	191.861
1768.98	204.203
1769.24	191.747
1769.49	197.332
1769.75	201.019
1770	190.494
1770.26	182.894
1770.51	184.827
1770.77	196.265
1771.02	189.608
1771.28	197.213
1771.53	187.753
1771.79	194.467
1772.04	184.974
1772.3	197.337
1772.55	194.507
1772.81	194.537
1773.06	192.655
1773.32	186.008
1773.57	193.634
1773.83	195.549
1774.08	203.173
1774.34	197.468
1774.59	190.806
1774.85	179.38
1775.1	197.488
1775.36	197.495
1775.61	188.948
1775.87	207.131
1776.12	196.691
1776.38	196.707
1776.63	186.218
1776.89	183.34
1777.14	191.886
1777.4	184.218
1777.65	196.576
1777.91	192.72
1778.16	193.628
1778.42	196.439
1778.67	196.394
1778.93	190.629
1779.18	189.617
1779.44	196.214
1779.69	186.658
1779.95	187.597
1780.2	186.69
1780.46	196.211
1780.71	194.312
1780.97	184.801
1781.22	196.234
1781.47	180.045
1781.73	191.468
1781.98	195.284
1782.24	184.827
1782.49	182.943
1782.75	197.267
1783	186.807
1783.26	182.055
1783.51	197.314
1783.77	183.987
1784.02	183.048
1784.28	204.041
1784.53	186.904
1784.79	196.482
1785.04	189.825
1785.29	186.015
1785.55	194.593
1785.8	190.756
1786.06	183.095
1786.31	180.204
1786.57	193.552
1786.82	194.513
1787.08	196.444
1787.33	178.344
1787.58	186.021
1787.84	192.768
1788.09	192.876
1788.35	200.643
1788.6	193.108
1788.86	197.011
1789.11	184.59
1789.37	205.693
1789.62	195.224
1789.87	192.39
1790.13	179.946
1790.38	190.504
1790.64	181.893
1790.89	186.678
1791.15	187.618
1791.4	180.857
1791.65	189.355
1791.91	176.878
1792.16	192.174
1792.42	187.378
1792.67	178.757
1792.93	192.166
1793.18	195.056
1793.43	190.273
1793.69	193.143
1793.94	193.135
1794.2	184.528
1794.45	203.69
1794.7	173.973
1794.96	172.978
1795.21	187.393
1795.47	178.9
1795.72	190.5
1795.97	188.621
1796.23	195.363
1796.48	184.827
1796.74	190.616
1796.99	192.566
1797.25	171.459
1797.5	183.014
1797.75	178.229
1798.01	191.702
1798.26	188.83
1798.51	176.339
1798.77	197.494
1799.02	194.602
1799.28	176.312
1799.53	189.743
1799.78	185.858
1800.04	186.773
1800.29	188.65
1800.55	199.182
1800.8	198.187
1801.05	177.987
1801.31	183.73
1801.56	181.793
1801.81	184.665
1802.07	187.544
1802.32	174.099
1802.58	192.36
1802.83	189.493
1803.08	186.633
1803.34	180.894
1803.59	186.693
1803.84	191.525
1804.1	185.763
1804.35	190.573
1804.61	186.741
1804.86	182.919
1805.11	192.566
1805.37	181.051
1805.62	182.05
1805.87	196.531
1806.13	188.859
1806.38	190.81
1806.64	189.868
1806.89	185.067
1807.14	187.001
1807.4	186.998
1807.65	191.809
1807.9	186.018
1808.16	199.504
1808.41	193.715
1808.66	184.071
1808.92	191.779
1809.17	204.308
1809.42	182.135
1809.68	185.024
1809.93	182.13
1810.18	185.985
1810.44	184.053
1810.69	195.616
1810.94	182.098
1811.2	183.044
1811.45	190.744
1811.7	190.73
1811.96	189.753
1812.21	192.638
1812.46	177.212
1812.72	174.33
1812.97	177.238
1813.22	186.906
1813.48	167.631
1813.73	182.102
1813.98	196.593
1814.24	192.767
1814.49	175.434
1814.74	189.959
1815	188.082
1815.25	191.008
1815.5	199.726
1815.76	199.734
1816.01	190.07
1816.26	191.036
1816.52	191.037
1816.77	176.54
1817.02	185.244
1817.27	193.924
1817.53	182.287
1817.78	196.682
1818.03	190.81
1818.29	176.323
1818.54	184.073
1818.79	185.081
1819.05	191.866
1819.3	181.216
1819.55	191.851
1819.8	180.266
1820.06	182.212
1820.31	181.252
1820.56	185.132
1820.82	180.313
1821.07	198.699
1821.32	183.233
1821.58	185.183
1821.83	183.269
1822.08	190.06
1822.33	187.17
1822.59	198.793
1822.84	192.021
1823.09	192.022
1823.34	190.086
1823.6	173.616
1823.85	184.239
1824.1	172.595
1824.36	186.131
1824.61	180.329
1824.86	196.792
1825.11	189.055
1825.37	199.715
1825.62	176.487
1825.87	176.491
1826.12	185.201
1826.38	174.537
1826.63	177.436
1826.88	195.833
1827.14	192.923
1827.39	191.957
1827.64	186.154
1827.89	191.978
1828.15	181.33
1828.4	190.042
1828.65	194.869
1828.9	179.339
1829.16	174.46
1829.41	189.93
1829.66	191.85
1829.91	178.274
1830.17	187.938
1830.42	183.064
1830.67	199.493
1830.92	180.099
1831.18	188.803
1831.43	174.291
1831.68	192.705
1831.93	191.754
1832.19	198.549
1832.44	189.847
1832.69	182.113
1832.94	192.801
1833.2	184.096
1833.45	188.937
1833.7	179.238
1833.95	180.215
1834.2	179.245
1834.46	188.942
1834.71	188.883
1834.96	173.271
1835.21	178.015
1835.47	191.471
1835.72	179.793
1835.97	177.798
1836.22	190.361
1836.48	181.603
1836.73	177.491
1836.98	177.458
1837.23	194.656
1837.48	194.552
1837.74	180.843
1837.99	180.718
1838.24	188.255
1838.49	192.959
1838.74	178.433
1839	189.374
1839.25	180.789
1839.5	180.848
1839.75	194.43
1840	182.818
1840.26	197.395
1840.51	192.358
1840.76	191.243
1841.01	173.708
1841.27	178.441
1841.52	188.008
1841.77	180.186
1842.02	177.205
1842.27	180.024
1842.53	180.917
1842.78	197.241
1843.03	191.479
1843.28	179.875
1843.53	183.745
1843.78	188.555
1844.04	184.687
1844.29	170.189
1844.54	180.788
1844.79	191.412
1845.04	176.936
1845.3	185.577
1845.55	174
1845.8	187.495
1846.05	185.635
1846.3	177.02
1846.55	191.568
1846.81	183.965
1847.06	197.373
1847.31	181.641
1847.56	182.281
1847.81	182.209
1848.07	193.754
1848.32	190.955
1848.57	191.036
1848.82	181.296
1849.07	182.199
1849.32	188.935
1849.57	200.439
1849.83	183.047
1850.08	183.941
1850.33	189.646
1850.58	186.679
1850.83	187.574
1851.09	179.826
1851.34	184.58
1851.59	171.087
1851.84	191.22
1852.09	180.627
1852.34	187.33
1852.59	177.716
1852.84	183.467
1853.1	191.139
1853.35	170.959
1853.6	188.22
1853.85	180.509
1854.1	187.182
1854.35	191.916
1854.6	178.413
1854.86	186.982
1855.11	183.106
1855.36	185.944
1855.61	199.297
1855.86	191.555
1856.11	173.307
1856.36	168.492
1856.61	184.756
1856.87	179.957
1857.12	179.946
1857.37	181.843
1857.62	194.266
1857.87	183.7
1858.12	186.539
1858.37	189.371
1858.63	188.365
1858.88	193.095
1859.13	170.079
1859.38	186.286
1859.63	178.578
1859.88	183.316
1860.13	176.609
1860.38	185.204
1860.63	177.557
1860.89	191.926
1861.14	186.212
1861.39	190.056
1861.64	182.429
1861.89	188.191
1862.14	181.492
1862.39	181.473
1862.64	184.305
1862.9	180.428
1863.15	179.418
1863.4	177.452
1863.65	185.047
1863.9	187.864
1864.15	178.261
1864.4	184.905
1864.65	195.368
1864.9	166.672
1865.15	184.768
1865.4	186.619
1865.66	195.14
1865.91	185.524
1866.16	174.951
1866.41	193.93
1866.66	185.26
1866.91	172.789
1867.16	186.984
1867.41	174.525
1867.66	194.423
1867.91	178.188
1868.16	177.195
1868.41	193.327
1868.67	184.747
1868.92	186.642
1869.17	192.346
1869.42	178.074
1869.67	185.66
1869.92	178.033
1870.17	182.765
1870.42	195.102
1870.67	190.33
1870.92	182.709
1871.17	180.793
1871.42	184.582
1871.67	186.459
1871.92	190.228
1872.17	178.784
1872.42	182.552
1872.68	182.523
1872.93	190.076
1873.18	188.127
1873.43	189.04
1873.68	167.187
1873.93	179.503
1874.18	195.602
1874.43	179.422
1874.68	192.653
1874.93	184.058
1875.18	183.051
1875.43	183.937
1875.68	181.031
1875.93	181.902
1876.18	190.31
1876.43	183.602
1876.68	172.18
1876.93	174.965
1877.18	175.875
1877.43	184.283
1877.68	186.992
1877.93	187.706
1878.18	187.854
1878.44	187.599
1878.69	189.213
1878.93	178.707
1879.19	190.973
1879.44	188.308
1879.69	184.598
1879.94	187.372
1880.19	197.719
1880.44	176.869
1880.69	172.113
1880.94	188.241
1881.19	193.868
1881.44	184.381
1881.69	193.755
1881.94	188.918
1882.19	179.356
1882.44	186.806
1882.69	172.52
1882.94	182.766
1883.19	191.193
1883.44	181.612
1883.69	182.844
1883.94	191.467
1884.19	193.77
1884.44	186.236
1884.69	185.397
1884.94	186.227
1885.19	190.061
1885.44	192.983
1885.69	193.945
1885.94	183.581
1886.19	185.552
1886.44	184.643
1886.69	188.441
1886.94	190.3
1887.19	189.264
1887.44	192.041
1887.69	184.437
1887.94	186.267
1888.19	178.663
1888.44	195.571
1888.69	176.633
1888.94	184.096
1889.19	193.444
1889.44	188.665
1889.69	198.977
1889.94	190.488
1890.19	178.232
1890.44	168.825
1890.69	189.571
1890.94	176.42
1891.19	183.958
1891.43	181.116
1891.68	185.798
1891.94	176.366
1892.18	186.703
1892.43	194.216
1892.68	190.433
1892.93	188.511
1893.18	193.168
1893.43	187.441
1893.68	196.727
1893.93	192.858
1894.18	167.448
1894.43	196.607
1894.68	181.488
1894.93	180.505
1895.18	196.451
1895.43	174.839
1895.68	176.722
1895.93	188.007
1896.18	172.984
1896.43	191.795
1896.68	187.117
1896.93	185.265
1897.18	191.871
1897.42	177.779
1897.68	188.133
1897.92	188.132
1898.17	195.647
1898.42	168.347
1898.67	179.603
1898.92	180.501
1899.17	184.209
1899.42	177.571
1899.67	187.863
1899.92	181.255
1900.17	193.435
1900.42	188.703
1900.67	192.443
1900.92	191.501
1901.16	185.874
1901.41	190.595
1901.66	190.626
1901.91	178.434
1902.16	197.267
1902.41	190.722
1902.66	168.179
1902.91	186.044
1903.16	186.959
1903.41	176.583
1903.66	188.777
1903.91	178.406
1904.16	197.189
1904.41	181.186
1904.65	186.812
1904.9	195.257
1905.15	176.434
1905.4	187.697
1905.65	191.445
1905.9	179.204
1906.15	187.599
1906.4	180.007
1906.65	180.911
1906.9	181.818
1907.14	178.972
1907.39	175.193
1907.64	183.636
1907.89	180.82
1908.14	188.349
1908.39	194.012
1908.64	186.504
1908.89	172.412
1909.14	186.515
1909.39	178.078
1909.63	167.766
1909.88	183.784
1910.13	191.356
1910.38	198.939
1910.63	184.883
1910.88	187.757
1911.13	184.966
1911.38	176.51
1911.62	187.822
1911.87	181.226
1912.12	185.925
1912.37	177.425
1912.62	189.647
1912.87	184.923
1913.12	189.622
1913.37	183.962
1913.61	182.076
1913.86	183.979
1914.11	185.908
1914.36	173.706
1914.61	187.881
1914.86	183.196
1915.11	174.739
1915.36	174.765
1915.6	195.54
1915.85	188.937
1916.1	192.697
1916.35	193.614
1916.6	176.611
1916.85	199.216
1917.1	173.697
1917.34	190.629
1917.59	200.962
1917.84	183.018
1918.09	187.711
1918.34	177.336
1918.59	175.466
1918.83	187.757
1919.08	183.083
1919.33	187.849
1919.58	186.958
1919.83	180.418
1920.08	192.756
1920.33	198.454
1920.57	180.5
1920.82	196.531
1921.07	173.858
1921.32	181.455
1921.57	193.785
1921.81	195.698
1922.06	181.531
1922.31	181.538
1922.56	189.095
1922.81	187.179
1923.06	194.704
1923.31	178.593
1923.55	182.347
1923.8	173.814
1924.05	176.623
1924.3	193.598
1924.55	189.773
1924.79	193.518
1925.04	184.053
1925.29	180.272
1925.54	179.342
1925.79	170.866
1926.04	180.365
1926.28	191.755
1926.53	183.284
1926.78	199.412
1927.03	190.002
1927.28	190.034
1927.52	172.064
1927.77	186.284
1928.02	175.881
1928.27	187.259
1928.52	184.429
1928.76	184.432
1929.01	177.815
1929.26	176.882
1929.51	189.223
1929.76	191.153
1930	184.567
1930.25	196.938
1930.5	182.758
1930.75	174.252
1931	188.532
1931.24	192.335
1931.49	193.28
1931.74	174.267
1931.99	188.473
1932.24	188.437
1932.48	177.961
1932.73	183.619
1932.98	186.426
1933.23	182.612
1933.47	187.32
1933.72	187.323
1933.97	185.471
1934.22	178.91
1934.46	172.372
1934.71	185.834
1934.96	177.424
1935.21	189.933
1935.46	187.185
1935.7	184.411
1935.95	190.188
1936.2	192.907
1936.45	196.69
1936.69	174.748
1936.94	181.385
1937.19	162.283
1937.44	195.568
1937.68	187.898
1937.93	182.135
1938.18	183.042
1938.43	195.366
1938.68	179.176
1938.92	183.039
1939.17	192.574
1939.42	188.785
1939.67	195.476
1939.91	192.635
1940.16	182.178
1940.41	185.987
1940.66	185.072
1940.9	172.717
1941.15	181.411
1941.4	180.52
1941.64	182.419
1941.89	189.064
1942.14	175.63
1942.39	189.81
1942.63	170.8
1942.88	184.337
1943.13	174.824
1943.38	184.371
1943.62	168.057
1943.87	183.233
1944.12	188.88
1944.37	182.315
1944.61	187.119
1944.86	182.377
1945.11	179.546
1945.35	186.269
1945.6	186.307
1945.85	178.7
1946.1	182.555
1946.34	191.186
1946.59	195.988
1946.84	176.874
1947.09	194.091
1947.33	192.165
1947.58	189.269
1947.83	184.457
1948.07	190.181
1948.32	180.607
1948.57	172.946
1948.82	179.615
1949.06	166.227
1949.31	188.246
1949.56	177.754
1949.8	195.005
1950.05	190.262
1950.3	182.646
1950.54	176.971
1950.79	185.669
1951.04	183.812
1951.29	181
1951.53	178.191
1951.78	186.889
1952.03	182.139
1952.27	191.768
1952.52	187.948
1952.77	169.722
1953.01	177.388
1953.26	186.058
1953.51	188.019
1953.76	183.152
1954	178.269
1954.25	176.22
1954.49	181.862
1954.74	173.125
1954.99	183.572
1955.24	193.114
1955.48	185.434
1955.73	191.196
1955.98	186.449
1956.22	190.358
1956.47	187.611
1956.72	190.536
1956.96	173.31
1957.21	174.292
1957.46	178.167
1957.7	188.764
1957.95	176.301
1958.2	189.772
1958.44	182.094
1958.69	182.098
1958.94	180.176
1959.18	181.112
1959.43	186.831
1959.68	185.841
1959.92	177.177
1960.17	192.51
1960.42	179.981
1960.66	189.547
1960.91	187.583
1961.16	187.537
1961.4	180.773
1961.65	177.855
1961.9	181.665
1962.14	191.259
1962.39	184.542
1962.63	190.299
1962.88	179.74
1963.13	185.498
1963.37	186.456
1963.62	178.773
1963.87	190.29
1964.11	192.211
1964.36	183.585
1964.61	184.556
1964.85	186.464
1965.1	186.439
1965.35	185.473
1965.59	174.894
1965.84	189.291
1966.08	181.619
1966.33	195.093
1966.58	173.994
1966.82	184.595
1967.07	203.837
1967.32	176.941
1967.56	191.344
1967.81	187.491
1968.05	178.847
1968.3	192.303
1968.55	191.341
1968.79	191.328
1969.04	173.035
1969.29	175.877
1969.53	187.352
1969.78	180.557
1970.02	170.884
1970.27	178.508
1970.52	187.098
1970.76	178.423
1971.01	178.381
1971.25	186.018
1971.5	191.742
1971.75	185.957
1971.99	192.646
1972.24	183.059
1972.48	189.783
1972.73	187.865
1972.98	193.61
1973.22	180.153
1973.47	185.866
1973.71	188.69
1973.96	191.52
1974.21	188.608
1974.45	187.623
1974.7	196.232
1974.94	178.012
1975.19	184.718
1975.44	198.146
1975.68	181.864
1975.93	185.719
1976.17	191.49
1976.42	186.705
1976.66	192.463
1976.91	194.38
1977.16	200.127
1977.4	182.845
1977.65	189.536
1977.89	190.463
1978.14	193.299
1978.39	186.545
1978.63	183.633
1978.88	192.229
1979.12	188.373
1979.37	181.653
1979.61	189.318
1979.86	179.724
1980.1	189.307
1980.35	188.343
1980.6	182.563
1980.84	178.686
1981.09	197.808
1981.33	191.073
1981.58	184.33
1981.82	191.961
1982.07	192.896
1982.31	189.048
1982.56	179.453
1982.81	182.286
1983.05	179.372
1983.3	192.719
1983.54	192.65
1983.79	194.509
1984.03	190.653
1984.28	187.759
1984.52	185.817
1984.77	200.133
1985.02	188.63
1985.26	182.85
1985.51	195.217
1985.75	199.005
1986	193.261
1986.24	188.485
1986.49	191.37
1986.73	188.526
1986.98	197.139
1987.22	184.691
1987.47	178.958
1987.71	191.345
1987.96	182.674
1988.21	200.755
1988.45	197.801
1988.7	200.564
1988.94	196.609
1989.19	178.562
1989.43	184.439
1989.68	198.67
1989.92	194.482
1990.17	188.975
1990.41	180.806
1990.66	196.83
1990.9	193.108
1991.15	201.322
1991.39	184.835
1991.64	198.838
1991.88	193.405
1992.13	188.72
1992.37	194.688
1992.62	188.334
1992.86	196.994
1993.11	188.784
1993.35	197.942
1993.6	190.865
1993.84	200.148
1994.09	190.472
1994.33	201.585
1994.58	199.682
1994.82	190.535
1995.07	191.617
1995.31	197.002
1995.56	197.903
1995.8	195.234
1996.05	188.288
1996.29	197.568
1996.54	188.555
1996.78	191.879
1997.03	188.847
1997.27	193.409
1997.52	193.839
1997.76	187.149
1998.01	201.458
1998.25	189.214
1998.5	200.589
1998.74	189.501
1998.99	197.158
1999.23	194.005
1999.48	194.45
1999.72	191.807
1999.97	191.569
2000.21	196.362
2000.46	187.673
2000.7	190.39
2000.95	194.807
2001.19	188.869
2001.43	194.194
2001.68	196.393
2001.92	193.09
2002.17	198.775
2002.41	190.212
2002.66	185.759
2002.9	198.088
2003.15	198.064
2003.39	201.51
2003.64	201.694
2003.88	196.4
2004.13	195.651
2004.37	192.891
2004.61	194.93
2004.86	198.505
2005.1	200.808
2005.35	206.655
2005.59	199.625
2005.84	196.142
2006.08	196.232
2006.33	195.498
2006.57	195.812
2006.81	196.482
2007.06	192.634
2007.3	197.074
2007.55	195.079
2007.79	189.957
2008.04	199.458
2008.28	199.276
2008.53	188.27
2008.77	195.462
2009.01	196.863
2009.26	199.24
2009.5	195.84
2009.75	195.808
2009.99	197.974
2010.24	196.107
2010.48	185.816
2010.73	198.721
2010.97	198.341
2011.21	193.535
2011.46	200.523
2011.7	203.094
2011.95	200.255
2012.19	195.091
2012.43	202.343
2012.68	197.614
2012.92	196.654
2013.17	207.906
2013.42	191.833
2013.67	205.844
2013.91	198.259
2014.16	190.664
2014.41	194.336
2014.66	208.316
2014.9	194.138
2015.15	192.232
2015.4	197.867
2015.64	196.012
2015.89	187.592
2016.14	203.571
2016.39	191.341
2016.63	195.14
2016.88	185.879
2017.13	187.781
2017.37	184.006
2017.62	200.889
2017.87	199.899
2018.11	188.565
2018.36	190.367
2018.61	194.039
2018.86	201.47
2019.1	184.514
2019.35	195.686
2019.6	191.864
2019.84	193.697
2020.09	191.793
2020.34	195.521
2020.58	193.639
2020.83	188.006
2021.08	186.122
2021.33	199.24
2021.57	194.565
2021.82	186.131
2022.07	192.675
2022.31	179.542
2022.56	202.922
2022.81	187.901
2023.05	192.532
2023.3	191.538
2023.55	181.203
2023.8	187.707
2024.04	200.754
2024.29	195.097
2024.54	197.86
2024.78	187.514
2025.03	194.919
2025.27	206.99
2025.52	191.052
2025.77	202.191
2026.02	187.206
2026.26	183.407
2026.51	194.612
2026.76	195.612
2027	200.398
2027.25	183.725
2027.5	201.644
2027.74	192.388
2027.99	188.616
2028.23	198.78
2028.48	188.32
2028.73	187.814
2028.98	183.629
2029.22	190.846
2029.47	191.403
2029.72	197.193
2029.96	194.981
2030.21	184.496
2030.45	179.623
2030.7	198.263
2030.95	192.508
2031.19	187.978
2031.44	186.217
2031.69	197.381
2031.93	186.182
2032.18	180.584
2032.43	189.032
2032.67	190.956
2032.92	174.208
2033.17	191.078
2033.41	178.038
2033.66	187.417
2033.91	198.688
2034.15	184.684
2034.4	182.716
2034.64	187.262
2034.89	185.204
2035.14	185.153
2035.38	189.892
2035.63	176.881
2035.87	188.185
2036.12	192.054
2036.37	181.858
2036.61	195.875
2036.86	192.032
2037.11	188.294
2037.35	191.139
2037.6	196.744
2037.84	185.51
2038.09	180.813
2038.34	175.178
2038.58	198.516
2038.83	184.463
2039.08	193.774
2039.32	193.739
2039.57	189.032
2039.81	178.723
2040.06	188.017
2040.31	180.493
2040.55	178.573
2040.8	185.987
2041.04	177.544
2041.29	187.762
2041.54	182.131
2041.78	188.638
2042.03	189.555
2042.27	191.389
2042.52	188.567
2042.77	193.182
2043.01	178.256
2043.26	171.729
2043.5	182.921
2043.75	185.761
2044	187.695
2044.24	185.901
2044.49	179.394
2044.73	174.717
2044.98	171.874
2045.23	184.845
2045.47	192.131
2045.72	179.302
2045.96	182.15
2046.21	179.598
2046.45	194.853
2046.7	180.661
2046.95	187.958
2047.19	174.751
2047.44	192.489
2047.68	185.896
2047.93	196.003
2048.17	176.382
2048.42	184.775
2048.67	179.186
2048.91	176.396
2049.16	191.329
2049.4	187.643
2049.65	188.611
2049.89	195.192
2050.14	194.325
2050.39	199.041
2050.63	182.28
2050.88	177.633
2051.12	186.046
2051.37	176.688
2051.61	189.725
2051.86	196.202
2052.11	191.528
2052.35	186.859
2052.6	184.081
2052.84	187.821
2053.09	181.3
2053.33	182.259
2053.58	180.422
2053.82	176.725
2054.07	177.738
2054.31	174.026
2054.56	184.334
2054.8	181.529
2055.05	199.295
2055.3	174.96
2055.54	179.62
2055.79	181.444
2056.03	199.185
2056.28	181.407
2056.52	182.321
2056.77	190.711
2057.01	178.543
2057.26	193.493
2057.5	186.02
2057.75	182.291
2058	184.179
2058.24	175.787
2058.49	175.809
2058.73	185.202
2058.98	180.561
2059.22	186.21
2059.47	181.554
2059.71	182.497
2059.96	185.311
2060.2	179.694
2060.45	189.029
2060.69	180.573
2060.94	185.229
2061.18	183.375
2061.43	188.077
2061.67	178.73
2061.92	171.244
2062.16	182.479
2062.41	182.481
2062.65	183.426
2062.9	180.632
2063.14	175.97
2063.39	181.618
2063.63	187.266
2063.88	191.035
2064.12	179.805
2064.37	195.751
2064.61	177.952
2064.86	183.593
2065.1	183.616
2065.35	180.841
2065.59	186.52
2065.84	186.567
2066.08	187.546
2066.33	191.334
2066.57	189.478
2066.82	176.336
2067.06	187.62
2067.31	196.091
2067.55	182.013
2067.8	175.457
2068.04	171.723
2068.29	182.08
2068.53	188.674
2068.78	183.981
2069.02	180.244
2069.27	184.003
2069.51	179.273
2069.76	180.158
2070	177.259
2070.25	188.495
2070.49	193.205
2070.73	173.548
2070.98	191.492
2071.22	194.408
2071.47	179.342
2071.71	175.524
2071.96	178.542
2072.2	177.667
2072.45	189.893
2072.69	182.342
2072.94	187.04
2073.18	176.664
2073.43	177.601
2073.67	179.47
2073.92	184.182
2074.16	168.177
2074.4	185.132
2074.65	192.682
2074.89	194.598
2075.14	198.414
2075.38	185.282
2075.63	183.474
2075.87	185.452
2076.12	190.233
2076.36	185.544
2076.6	189.321
2076.85	191.213
2077.09	178.917
2077.34	177.933
2077.58	188.268
2077.83	180.634
2078.07	184.381
2078.31	178.74
2078.56	172.171
2078.8	175.012
2079.05	189.176
2079.29	183.537
2079.54	176.969
2079.78	180.824
2080.03	190.301
2080.27	178.994
2080.51	179.018
2080.76	191.322
2081	181.871
2081.25	182.793
2081.49	170.493
2081.74	191.27
2081.98	180.871
2082.22	174.247
2082.47	184.65
2082.71	180.88
2082.96	171.436
2083.2	178.996
2083.45	178.044
2083.69	187.482
2083.93	195.03
2084.18	175.183
2084.42	173.291
2084.67	182.734
2084.91	193.128
2085.15	177.065
2085.4	181.787
2085.64	190.288
2085.89	179.889
2086.13	178.008
2086.37	180.885
2086.62	165.807
2086.86	173.408
2087.11	189.503
2087.35	183.845
2087.59	179.14
2087.84	177.26
2088.08	182.936
2088.32	181.988
2088.57	181.989
2088.81	178.207
2089.06	186.731
2089.3	179.163
2089.54	175.4
2089.79	183.947
2090.03	185.886
2090.28	194.424
2090.52	184.957
2090.76	191.598
2091.01	190.664
2091.25	172.677
2091.5	183.117
2091.74	174.602
2091.98	176.538
2092.23	185.12
2092.47	189.918
2092.72	185.229
2092.96	172.948
2093.2	185.334
2093.45	192.974
2093.69	184.469
2093.93	186.41
2094.18	189.295
2094.42	187.425
2094.66	183.629
2094.91	174.117
2095.15	179.809
2095.39	188.348
2095.64	181.66
2095.88	179.722
2096.13	177.792
2096.37	186.319
2096.61	183.451
2096.86	175.84
2097.1	174.879
2097.34	177.701
2097.59	188.108
2097.83	177.623
2098.07	173.807
2098.32	183.287
2098.56	180.426
2098.8	184.193
2099.05	187.036
2099.29	174.689
2099.53	187.013
2099.78	182.255
2100.02	182.248
2100.27	165.163
2100.51	181.298
2100.75	177.507
2101	187.962
2101.24	179.458
2101.48	178.539
2101.73	184.256
2101.97	185.213
2102.21	177.61
2102.45	188.05
2102.7	178.549
2102.94	184.233
2103.18	181.35
2103.43	175.613
2103.67	184.133
2103.92	178.428
2104.16	174.617
2104.4	186.957
2104.64	176.526
2104.89	180.346
2105.13	182.268
2105.37	192.737
2105.62	185.167
2105.86	170.001
2106.1	176.681
2106.35	185.251
2106.59	175.76
2106.83	189.073
2107.08	170.064
2107.32	183.386
2107.56	189.093
2107.8	166.251
2108.05	180.474
2108.29	179.473
2108.53	184.17
2108.78	175.569
2109.02	171.73
2109.26	177.409
2109.51	183.11
2109.75	185.051
2109.99	180.335
2110.23	177.482
2110.48	186.029
2110.72	186.024
2110.96	183.17
2111.21	176.516
2111.45	177.46
2111.69	177.444
2111.93	181.215
2112.18	183.092
2112.42	179.278
2112.66	179.273
2112.91	174.538
2113.15	186.899
2113.39	182.168
2113.63	179.357
2113.88	189.844
2114.12	184.155
2114.36	180.338
2114.61	182.219
2114.85	171.757
2115.09	179.364
2115.33	182.215
2115.58	180.301
2115.82	181.231
2116.06	186.915
2116.31	174.543
2116.55	167.855
2116.79	184.914
2117.03	164
2117.28	171.585
2117.52	179.17
2117.76	191.519
2118	188.647
2118.25	170.575
2118.49	177.187
2118.73	181.882
2118.97	179.927
2119.22	195.058
2119.46	184.582
2119.7	176.955
2119.94	175.019
2120.19	181.617
2120.43	170.216
2120.67	174.941
2120.91	181.574
2121.16	185.391
2121.4	185.404
2121.64	183.545
2121.88	191.171
2122.13	183.621
2122.37	179.86
2122.61	180.838
2122.85	169.472
2123.1	179.931
2123.34	176.151
2123.58	183.756
2123.82	181.86
2124.07	184.69
2124.31	187.513
2124.55	196.018
2124.79	189.322
2125.03	180.708
2125.28	167.347
2125.52	171.06
2125.76	173.84
2126	177.571
2126.25	168.049
2126.49	176.519
2126.73	185.94
2126.97	181.167
2127.21	181.124
2127.46	176.354
2127.7	182.008
2127.94	189.558
2128.18	176.307
2128.43	186.682
2128.67	172.488
2128.91	176.265
2129.15	185.714
2129.39	181.922
2129.64	182.848
2129.88	172.436
2130.12	177.149
2130.36	173.356
2130.6	189.406
2130.85	183.718
2131.09	177.082
2131.33	181.78
2131.57	178.916
2131.81	184.55
2132.06	185.464
2132.3	173.168
2132.54	180.697
2132.78	175.938
2133.02	181.564
2133.27	179.655
2133.51	171.156
2133.75	171.159
2133.99	186.26
2134.23	174.933
2134.48	174.936
2134.72	170.219
2134.96	180.591
2135.2	179.638
2135.44	182.46
2135.68	185.277
2135.93	178.65
2136.17	169.181
2136.41	182.329
2136.65	173.786
2136.89	186.954
2137.14	186.957
2137.38	169.048
2137.62	183.189
2137.86	180.376
2138.1	182.296
2138.34	181.335
2138.59	179.394
2138.83	179.352
2139.07	192.579
2139.31	186.978
2139.55	178.527
2139.79	184.092
2140.03	174.594
2140.28	173.618
2140.52	184.893
2140.76	185.807
2141	181.074
2141.24	187.648
2141.49	165.026
2141.73	181.977
2141.97	177.228
2142.21	184.715
2142.45	174.341
2142.69	174.337
2142.93	184.722
2143.18	180.98
2143.42	174.525
2143.66	189.525
2143.9	176.836
2144.14	169.313
2144.38	183.438
2144.62	175.036
2144.87	182.615
2145.11	175.121
2145.35	169.376
2145.59	168.446
2145.83	171.27
2146.07	168.435
2146.31	174.998
2146.55	178.739
2146.8	173.08
2147.04	181.522
2147.28	170.221
2147.52	173.012
2147.76	176.743
2148	185.172
2148.24	177.634
2148.48	187.002
2148.73	172.889
2148.97	170.984
2149.21	172.831
2149.45	185.933
2149.69	179.316
2149.93	172.671
2150.17	179.193
2150.42	181.015
2150.66	186.599
2150.9	174.391
2151.14	180.944
2151.38	187.516
2151.62	176.293
2151.86	174.431
2152.1	187.582
2152.34	180.088
2152.58	172.605
2152.83	181.954
2153.07	189.426
2153.31	178.137
2153.55	168.729
2153.79	156.526
2154.03	170.565
2154.27	193.022
2154.51	179.855
2154.75	168.552
2154.99	176.901
2155.24	179.635
2155.48	178.615
2155.72	172.009
2155.96	172.889
2156.2	167.234
2156.44	174.672
2156.68	183.992
2156.92	174.638
2157.16	182.102
2157.4	175.559
2157.64	174.634
2157.89	177.456
2158.13	178.419
2158.37	174.704
2158.61	173.773
2158.85	177.506
2159.09	171.886
2159.33	181.212
2159.57	176.513
2159.81	175.546
2160.05	165.231
2160.29	181.063
2160.53	184.748
2160.77	171.635
2161.01	186.529
2161.25	185.571
2161.5	173.426
2161.74	186.469
2161.98	174.318
2162.22	183.637
2162.46	159.376
2162.7	168.701
2162.94	178.023
2163.18	185.466
2163.42	176.11
2163.66	175.154
2163.9	189.119
2164.14	175.108
2164.38	174.151
2164.62	178.77
2164.86	181.515
2165.11	179.618
2165.35	182.416
2165.59	179.634
2165.83	177.768
2166.07	176.834
2166.31	180.559
2166.55	176.807
2166.79	179.579
2167.03	166.506
2167.27	178.576
2167.51	178.546
2167.75	184.086
2167.99	174.72
2168.23	178.353
2168.47	167.112
2168.71	178.238
2168.95	182.877
2169.19	177.305
2169.43	168.026
2169.67	186.656
2169.91	181.122
2170.15	173.735
2170.39	175.659
2170.63	182.212
2170.87	166.392
2171.11	177.551
2171.35	171.926
2171.59	182.146
2171.83	189.514
2172.07	170.779
2172.31	166.994
2172.56	174.393
2172.79	179.935
2173.04	174.331
2173.28	186.4
2173.51	177.102
2173.76	176.166
2174	184.537
2174.24	177.122
2174.48	183.639
2174.72	171.561
2174.96	177.136
2175.2	184.565
2175.44	167.828
2175.68	174.319
2175.92	171.515
2176.16	173.363
2176.4	177.067
2176.64	177.977
2176.88	180.732
2177.12	163.067
2177.36	180.712
2177.6	180.713
2177.84	177.925
2178.08	189.993
2178.32	172.345
2178.55	186.258
2178.8	180.632
2179.03	183.377
2179.28	181.511
2179.52	175.015
2179.75	175.014
2180	186.153
2180.23	177.792
2180.47	181.5
2180.71	187.061
2180.95	179.618
2181.19	178.674
2181.43	187.948
2181.67	175.864
2181.91	179.552
2182.15	179.527
2182.39	176.729
2182.63	172.991
2182.87	176.681
2183.11	189.649
2183.35	169.202
2183.59	173.796
2183.83	172.815
2184.07	179.262
2184.31	171.816
2184.55	181.979
2184.79	173.628
2185.03	171.776
2185.27	162.522
2185.51	173.65
2185.75	180.147
2185.99	176.457
2186.23	168.139
2186.47	176.51
2186.7	180.246
2186.95	181.221
2187.18	180.343
2187.42	172.037
2187.66	167.439
2187.9	171.186
2188.14	177.693
2188.38	167.454
2188.62	172.064
2188.86	183.167
2189.1	173.842
2189.34	182.148
2189.58	170.962
2189.82	179.248
2190.06	182.903
2190.3	188.437
2190.54	166.178
2190.78	169.885
2191.01	177.312
2191.25	177.322
2191.49	174.537
2191.73	169.906
2191.97	187.535
2192.21	179.201
2192.45	171.793
2192.69	176.441
2192.93	178.308
2193.17	183.9
2193.41	181.144
2193.65	185.81
2193.89	184.919
2194.13	184.993
2194.36	172.998
2194.6	178.627
2194.84	176.795
2195.08	173.992
2195.32	173.038
2195.56	168.37
2195.8	167.41
2196.04	174.803
2196.28	186.824
2196.52	180.256
2196.76	174.625
2197	173.65
2197.23	193.097
2197.47	178.219
2197.71	183.753
2197.95	162.417
2198.19	164.273
2198.43	185.622
2198.67	174.528
2198.91	174.567
2199.15	174.615
2199.38	182.1
2199.62	171.93
2199.86	176.629
2200.1	183.19
2200.34	176.763
2200.58	171.269
2200.82	186.241
2201.06	175.135
2201.3	170.524
2201.54	182.677
2201.77	179.804
2202.01	170.311
2202.25	186.665
2202.49	165.995
2202.73	174.447
2202.97	188.685
2203.21	175.805
2203.45	175.751
2203.68	182.219
2203.92	171.205
2204.16	185.752
2204.4	166.872
2204.64	176.179
2204.88	187.396
2205.12	177.945
2205.36	166.611
2205.59	174.849
2205.83	174.749
2206.07	170.999
2206.31	176.577
2206.55	177.544
2206.79	182.195
2207.03	180.265
2207.26	179.342
2207.5	191.453
2207.74	188.694
2207.98	158.032
2208.22	174.809
2208.46	182.288
2208.7	177.666
2208.93	179.556
2209.17	187.958
2209.41	186.111
2209.65	176.806
2209.89	173.078
2210.13	179.588
2210.36	173.071
2210.6	164.706
2210.84	171.247
2211.08	177.793
2211.32	173.158
2211.56	175.044
2211.8	174.137
2212.03	181.63
2212.27	177.002
2212.51	174.226
2212.75	175.168
2212.99	178.884
2213.23	183.525
2213.46	173.245
2213.7	178.809
2213.94	166.653
2214.18	166.659
2214.42	178.811
2214.66	163.953
2214.89	161.212
2215.13	168.693
2215.37	163.102
2215.61	178.98
2215.85	170.581
2216.08	183.653
2216.32	177.114
2216.56	164.037
2216.8	185.502
2217.04	178.955
2217.28	178.01
2217.51	170.538
2217.75	180.81
2217.99	182.682
2218.23	182.677
2218.47	165.866
2218.7	173.338
2218.94	170.55
2219.18	175.24
2219.42	176.201
2219.66	175.296
2219.9	179.983
2220.13	174.395
2220.37	180.016
2220.61	165.054
2220.85	163.174
2221.09	176.248
2221.32	179.03
2221.56	180.852
2221.8	176.13
2222.04	173.286
2222.27	168.582
2222.51	167.623
2222.75	178.816
2222.99	171.357
2223.23	170.444
2223.46	175.135
2223.7	176.094
2223.94	167.724
2224.18	160.293
2224.42	172.491
2224.65	177.211
2224.89	169.769
2225.13	173.544
2225.37	182.935
2225.6	187.656
2225.84	179.28
2226.08	173.697
2226.32	186.843
2226.56	161.584
2226.79	170.038
2227.03	162.573
2227.27	182.286
2227.51	178.561
2227.74	185.143
2227.98	166.396
2228.22	165.45
2228.46	163.559
2228.69	173.857
2228.93	171.966
2229.17	181.329
2229.41	178.503
2229.64	170.999
2229.88	183.213
2230.12	170.127
2230.36	177.669
2230.6	177.697
2230.83	174.912
2231.07	178.698
2231.31	163.71
2231.55	172.196
2231.78	175.992
2232.02	166.626
2232.26	169.475
2232.5	165.745
2232.73	165.773
2232.97	178.964
2233.21	160.185
2233.45	178.082
2233.68	173.407
2233.92	181.905
2234.16	176.28
2234.39	177.237
2234.63	179.106
2234.87	167.794
2235.11	175.299
2235.34	172.442
2235.58	180.842
2235.82	168.568
2236.06	180.793
2236.29	168.572
2236.53	175.16
2236.77	180.81
2237	171.408
2237.24	176.116
2237.48	171.45
2237.72	163.013
2237.95	184.724
2238.19	181.971
2238.43	166.962
2238.67	170.774
2238.9	180.242
2239.14	177.464
2239.38	186.958
2239.61	171.872
2239.85	169.967
2240.09	180.316
2240.33	171.776
2240.56	177.387
2240.8	175.478
2241.04	178.377
2241.27	175.611
2241.51	183.167
2241.75	169.965
2241.99	180.355
2242.22	168.094
2242.46	187.925
2242.7	165.288
2242.93	187.962
2243.17	170.969
2243.41	179.455
2243.64	181.316
2243.88	177.51
2244.12	172.774
2244.36	180.315
2244.59	164.274
2244.83	169.958
2245.07	167.172
2245.3	176.682
2245.54	175.797
2245.78	165.438
2246.01	165.467
2246.25	169.28
2246.49	178.768
2246.72	181.633
2246.96	175.025
2247.2	174.102
2247.43	177.909
2247.67	180.763
2247.91	167.517
2248.14	174.137
2248.38	167.499
2248.62	176.003
2248.85	179.773
2249.09	185.438
2249.33	171.23
2249.56	176.897
2249.8	174.085
2250.04	174.102
2250.27	169.365
2250.51	160.823
2250.75	172.142
2250.98	170.211
2251.22	164.493
2251.46	170.133
2251.69	177.668
2251.93	175.764
2252.17	164.422
2252.4	172.946
2252.64	177.698
2252.88	170.163
2253.11	161.697
2253.35	172.195
2253.59	176.992
2253.82	174.199
2254.06	172.341
2254.3	181.847
2254.53	172.399
2254.77	163.885
2255.01	167.677
2255.24	171.45
2255.48	166.714
2255.72	181.882
2255.95	172.403
2256.19	170.51
2256.42	173.381
2256.66	169.615
2256.9	169.641
2257.13	176.307
2257.37	174.435
2257.61	177.308
2257.84	169.736
2258.08	178.297
2258.32	172.606
2258.55	165.013
2258.79	171.668
2259.02	169.781
2259.26	175.502
2259.5	167.924
2259.73	167.936
2259.97	176.499
2260.2	169.863
2260.44	167.976
2260.68	163.236
2260.91	169.903
2261.15	177.533
2261.39	182.341
2261.62	174.765
2261.86	171.916
2262.1	170.019
2262.33	172.885
2262.57	180.51
2262.8	158.639
2263.04	164.381
2263.28	184.412
2263.51	171.122
2263.75	166.407
2263.98	166.461
2264.22	164.616
2264.46	169.444
2264.69	174.27
2264.93	182.908
2265.16	164.808
2265.4	178.208
2265.64	171.55
2265.87	174.418
2266.11	176.332
2266.34	176.315
2266.58	169.588
2266.81	162.861
2267.05	173.317
2267.29	184.728
2267.52	172.289
2267.76	189.433
2267.99	170.322
2268.23	167.42
2268.47	168.341
2268.7	165.467
2268.94	157.841
2269.17	164.534
2269.41	182.689
2269.65	174.147
2269.88	170.375
2270.12	175.196
2270.35	173.343
2270.59	172.439
2270.82	151.446
2271.06	179.176
2271.3	170.609
2271.53	180.197
2271.77	163.004
2272	163.98
2272.24	168.79
2272.47	169.761
2272.71	164.021
2272.95	166.895
2273.18	167.857
2273.42	173.605
2273.65	175.524
2273.89	166.917
2274.12	160.224
2274.36	175.542
2274.6	168.846
2274.83	165.98
2275.07	183.216
2275.3	170.781
2275.54	187.062
2275.77	166.964
2276.01	173.658
2276.24	164.104
2276.48	172.76
2276.72	165.135
2276.95	162.293
2277.18	169.99
2277.42	169.066
2277.66	174.872
2277.89	168.218
2278.13	175.959
2278.36	176.03
2278.6	165.489
2278.83	174.142
2279.07	180.864
2279.3	166.447
2279.54	174.116
2279.78	160.638
2280.01	176.879
2280.24	169.148
2280.48	178.691
2280.72	167.138
2280.95	169.019
2281.19	170.908
2281.42	170.888
2281.66	174.697
2281.89	169.885
2282.13	161.273
2282.36	172.784
2282.6	173.764
2282.83	174.754
2283.07	169.996
2283.3	168.112
2283.54	175.834
2283.77	181.661
2284.01	158.689
2284.24	184.699
2284.48	180.936
2284.71	178.096
2284.95	178.114
2285.19	179.114
2285.42	165.679
2285.65	172.424
2285.89	185.899
2286.12	157.952
2286.36	179.049
2286.59	167.498
2286.83	171.355
2287.06	159.835
2287.3	183.006
2287.54	169.594
2287.77	175.394
2288	171.557
2288.24	174.491
2288.47	174.475
2288.71	168.666
2288.94	171.526
2289.18	162.825
2289.41	187.801
2289.65	164.632
2289.88	177.077
2290.12	181.808
2290.35	173.126
2290.59	175.027
2290.82	175.986
2291.06	172.141
2291.29	173.124
2291.53	170.281
2291.76	166.486
2292	172.294
2292.23	162.695
2292.47	171.384
2292.7	179.117
2292.94	172.414
2293.17	181.119
2293.41	178.257
2293.64	163.825
2293.88	175.405
2294.11	174.448
2294.34	163.83
2294.58	176.334
2294.81	157.996
2295.05	177.23
2295.28	177.201
2295.52	180.062
2295.75	166.551
2295.99	174.227
2296.22	156.874
2296.46	170.308
2296.69	162.538
2296.93	168.298
2297.16	171.195
2297.39	173.14
2297.63	172.206
2297.86	174.167
2298.1	167.472
2298.33	165.599
2298.57	168.522
2298.8	176.252
2299.04	156.042
2299.27	172.469
2299.51	172.503
2299.74	173.495
2299.97	177.367
2300.21	175.431
2300.44	182.181
2300.68	167.704
2300.91	156.143
2301.15	160.99
2301.38	182.239
2301.61	172.604
2301.85	179.369
2302.08	168.752
2302.32	173.569
2302.55	174.515
2302.79	180.29
2303.02	164.849
2303.25	162.911
2303.49	179.304
2303.72	163.857
2303.96	173.507
2304.19	167.73
2304.43	176.443
2304.66	167.778
2304.89	177.45
2305.13	153.327
2305.36	164.944
2305.6	166.892
2305.83	173.659
2306.07	174.636
2306.3	183.352
2306.53	170.807
2306.77	170.811
2307	179.51
2307.24	174.671
2307.47	178.528
2307.7	172.709
2307.94	160.121
2308.17	169.768
2308.41	179.411
2308.64	169.731
2308.87	171.659
2309.11	163.934
2309.34	173.619
2309.58	173.645
2309.81	167.884
2310.04	169.868
2310.28	162.163
2310.51	169.914
2310.75	175.719
2310.98	172.808
2311.21	185.361
2311.45	161.138
2311.68	181.338
2311.92	169.627
2312.15	174.391
2312.38	164.69
2312.62	168.523
2312.85	174.279
2313.08	181.007
2313.32	172.316
2313.55	180.053
2313.79	178.174
2314.02	168.583
2314.25	170.561
2314.49	175.439
2314.72	178.389
2314.95	167.816
2315.19	171.739
2315.42	167.895
2315.66	173.65
2315.89	176.503
2316.12	177.431
2316.36	163.848
2316.59	176.312
2316.82	166.601
2317.06	164.642
2317.29	170.428
2317.52	171.399
2317.76	177.199
2317.99	167.583
2318.23	175.339
2318.46	173.344
2318.69	172.345
2318.93	178.112
2319.16	180.011
2319.39	177.081
2319.63	190.562
2319.86	166.413
2320.09	165.432
2320.33	176.043
2320.56	177.009
2320.79	177.969
2321.03	164.471
2321.26	167.388
2321.5	178.031
2321.73	170.337
2321.96	182.925
2322.2	176.211
2322.43	184.96
2322.66	167.606
2322.9	179.22
2323.13	172.441
2323.36	182.113
2323.6	181.156
2323.83	181.163
2324.06	173.436
2324.3	173.438
2324.53	184.063
2324.76	188.885
2325	176.268
2325.23	193.604
2325.46	196.429
2325.7	189.618
2325.93	189.577
2326.16	207.879
2326.4	209.763
2326.63	234.805
2326.86	266.589
2327.09	291.608
2327.33	347.477
2327.56	412.961
2327.79	441.818
2328.03	419.57
2328.26	378.076
2328.49	300.984
2328.73	254.717
2328.96	242.189
2329.19	226.718
2329.43	213.18
2329.66	202.523
2329.89	189.016
2330.13	190.93
2330.36	178.429
2330.59	185.154
2330.82	176.467
2331.06	179.336
2331.29	170.658
2331.52	173.555
2331.76	169.724
2331.99	173.602
2332.22	171.713
2332.46	169.735
2332.69	180.292
2332.92	173.521
2333.16	160.012
2333.39	179.242
2333.62	173.439
2333.85	180.154
2334.09	161.846
2334.32	174.33
2334.55	175.258
2334.79	172.323
2335.02	163.637
2335.25	174.194
2335.48	170.337
2335.72	176.093
2335.95	167.441
2336.18	172.258
2336.41	167.44
2336.65	173.188
2336.88	175.095
2337.11	163.546
2337.34	164.497
2337.58	157.754
2337.81	165.435
2338.04	173.107
2338.28	163.478
2338.51	165.389
2338.74	165.377
2338.97	175.941
2339.21	159.603
2339.44	161.526
2339.67	173.056
2339.91	166.318
2340.14	166.3
2340.37	160.509
2340.6	168.165
2340.84	163.328
2341.07	178.655
2341.3	158.437
2341.53	156.462
2341.77	165.034
2342	160.185
2342.23	168.784
2342.46	170.669
2342.7	172.556
2342.93	161.029
2343.16	168.684
2343.39	173.469
2343.63	162.923
2343.86	159.077
2344.09	177.278
2344.32	174.401
2344.56	176.326
2344.79	180.163
2345.02	171.526
2345.25	184.931
2345.49	172.447
2345.72	173.373
2345.95	168.533
2346.18	175.203
2346.41	166.547
2346.65	165.573
2346.88	164.602
2347.11	178.953
2347.34	167.443
2347.58	166.469
2347.81	177.95
2348.04	156.887
2348.27	171.255
2348.5	169.356
2348.74	167.451
2348.97	170.319
2349.2	167.426
2349.43	167.394
2349.67	170.189
2349.9	160.546
2350.13	158.548
2350.36	159.405
2350.59	165.013
2350.83	179.097
2351.06	172.05
2351.29	168.508
2351.52	162.391
2351.75	176.917
2351.99	160.306
2352.22	159.168
2352.45	182.085
2352.68	172.558
2352.91	165.77
2353.15	155.129
2353.38	168.349
2353.61	172.199
2353.84	177.896
2354.07	168.333
2354.31	159.759
2354.54	174.035
2354.77	169.312
2355	165.537
2355.23	171.245
2355.47	171.23
2355.7	171.21
2355.93	177.858
2356.16	170.213
2356.39	182.56
2356.63	170.12
2356.86	173.841
2357.09	162.356
2357.32	172.78
2357.55	159.433
2357.79	166.058
2358.02	151.77
2358.25	168.853
2358.48	175.484
2358.71	174.515
2358.94	168.773
2359.18	162.101
2359.41	166.835
2359.64	174.421
2359.87	162.998
2360.1	166.764
2360.33	163.875
2360.57	169.528
2360.8	169.484
2361.03	175.133
2361.26	167.499
2361.49	174.092
2361.72	183.526
2361.96	170.205
2362.19	161.628
2362.42	165.367
2362.65	167.213
2362.88	170.958
2363.11	164.292
2363.34	157.633
2363.58	164.229
2363.81	165.151
2364.04	155.667
2364.27	164.159
2364.5	171.698
2364.73	179.234
2364.97	160.29
