#Acq. time (s)=	30
#Accumulations=	2
#Range (cm-¹)=	1200...2400
#Windows=	4
#Auto scanning=	Off
#Autofocus=	Off
#Macrospot=	Off
#AutoExposure=	Off
#Spike filter=	Multiple accum.
#Delay time (s)=	2
#Binning=	1
#Readout mode=	Signal
#DeNoise=	Off
#ICS correction=	On
#Dark correction=	Off
#Inst. Process=	Off
#Detector Gain=	Best Dynamic
#Detector ADC=	50 kHz HS
#Detector temperature (°C)=	-60.09
#Instrument=	LabRAM HR Evol
#Detector=	SIN-EM FIVIS
#Objective=	x100_VIS
#Grating=	1800 (450-850nm)
#ND Filter=	100%
#Laser=	532nm_Edge
#Hole=	49.98
#Temperature=	0
#Range=	Visible
#StageXY=	75x50mm Scan+
#StageZ=	Z motor
#X (µm)=	0
#Y (µm)=	0
#Z (µm)=	-245.5
#Full time(mm:ss)=	4:27
#Project=	21_11_04
#Sample=	BU19w
#Site=	
#Title=	BU19w-E-FF11b-FI06-V_1800 (450-850nm)_532nm_Edge_100%_x100_VIS_H50um_30sX2
#Remark=	
#Date=	04.11.2021 18:08
#Acquired=	04.11.2021 18:08:13
1200.19	30.709
1200.46	28.5498
1200.74	28.5357
1201.02	30.6664
1201.3	26.3457
1201.57	28.4836
1201.85	23.11
1202.13	30.661
1202.41	26.4062
1202.69	27.462
1202.96	29.6046
1203.24	24.197
1203.52	31.7215
1203.8	27.4049
1204.08	30.6422
1204.35	31.7145
1204.63	28.4817
1204.91	27.3949
1205.19	27.3838
1205.47	29.5168
1205.74	29.503
1206.02	27.3445
1206.3	30.5471
1206.58	26.2479
1206.85	32.665
1207.13	28.3747
1207.41	29.4387
1207.69	28.3639
1207.97	26.2169
1208.24	27.2785
1208.52	30.4799
1208.8	29.404
1209.08	30.4709
1209.36	28.3312
1209.63	29.3964
1209.91	33.6627
1210.19	27.2391
1210.46	27.229
1210.74	30.4223
1211.02	29.3445
1211.3	31.4682
1211.57	27.1905
1211.85	28.2472
1212.13	32.5019
1212.41	30.3616
1212.69	26.0936
1212.96	29.2838
1213.24	32.473
1213.52	26.0822
1213.79	28.2126
1214.07	28.2134
1214.35	25.0195
1214.63	26.0836
1214.9	30.3409
1215.18	26.0811
1215.46	29.2701
1215.74	28.1974
1216.01	28.1863
1216.29	28.1744
1216.57	28.1643
1216.85	29.2185
1217.12	27.0856
1217.4	26.0166
1217.68	28.1341
1217.95	27.0662
1218.23	32.3678
1218.51	27.0592
1218.79	32.3622
1219.06	30.2374
1219.34	25.9889
1219.62	25.986
1219.89	32.3501
1220.17	33.4097
1220.45	32.3473
1220.73	30.2214
1221	29.1564
1221.28	30.2099
1221.56	28.0805
1221.84	32.3055
1222.11	30.1726
1222.39	33.3316
1222.67	33.3171
1222.94	31.1866
1223.22	33.2896
1223.5	31.164
1223.77	30.0982
1224.05	31.1481
1224.33	31.1419
1224.61	29.0282
1224.88	27.9727
1225.16	26.9218
1225.44	27.9804
1225.71	35.374
1225.99	32.2037
1226.27	34.3116
1226.54	31.1384
1226.82	31.1293
1227.1	33.2167
1227.37	32.135
1227.65	33.1694
1227.93	37.3545
1228.21	31.0136
1228.48	33.1001
1228.76	29.9758
1229.03	31.1011
1229.31	33.2385
1229.59	39.5319
1229.86	34.2367
1230.14	33.1785
1230.42	28.9615
1230.69	33.1319
1230.97	30.9968
1231.25	33.1013
1231.52	32.0498
1231.8	33.098
1232.08	34.1462
1232.35	30.9932
1232.63	36.2433
1232.91	32.0389
1233.18	35.1906
1233.46	30.991
1233.74	27.8419
1234.01	29.9467
1234.29	31.0026
1234.57	33.1085
1234.84	33.1112
1235.12	37.32
1235.4	32.0673
1235.67	33.1202
1235.95	32.0665
1236.23	26.806
1236.5	34.1588
1236.78	33.0985
1237.06	35.1877
1237.33	33.0751
1237.61	32.0138
1237.88	30.9527
1238.16	27.7954
1238.44	29.8866
1238.71	30.9304
1238.99	30.9265
1239.27	31.972
1239.54	26.7293
1239.82	36.1624
1240.1	28.8254
1240.37	33.0194
1240.65	25.6833
1240.92	30.9252
1241.2	31.9681
1241.48	33.0106
1241.75	31.9603
1242.03	30.915
1242.3	31.9641
1242.58	25.6818
1242.86	29.8764
1243.13	30.923
1243.41	30.9248
1243.68	31.9753
1243.96	26.7316
1244.24	37.2123
1244.51	27.7748
1244.79	30.9106
1245.06	31.9506
1245.34	31.9377
1245.62	37.1631
1245.89	27.7396
1246.17	30.8776
1246.44	25.6451
1246.72	26.6904
1247	27.7347
1247.27	30.8742
1247.55	27.7291
1247.82	35.0398
1248.1	30.853
1248.38	26.6692
1248.65	32.9471
1248.93	27.7185
1249.2	29.8079
1249.48	27.7159
1249.75	29.8064
1250.03	32.9353
1250.31	29.7912
1250.58	33.9653
1250.86	37.0936
1251.13	28.7295
1251.41	32.9026
1251.69	30.8079
1251.96	30.8021
1252.24	33.928
1252.51	31.8336
1252.79	31.8286
1253.06	27.6527
1253.34	31.8288
1253.61	28.7031
1253.89	29.7528
1254.17	34.9784
1254.44	31.8476
1254.72	34.9813
1254.99	27.6731
1255.27	31.8495
1255.54	32.8934
1255.82	36.0282
1256.09	31.8545
1256.37	32.9025
1256.65	29.7692
1256.92	30.8108
1257.2	30.8071
1257.47	36.0257
1257.75	32.8904
1258.02	33.9317
1258.3	39.1447
1258.57	37.0513
1258.85	30.7907
1259.13	34.9684
1259.4	33.9371
1259.67	33.9394
1259.95	31.8436
1260.23	33.9209
1260.5	38.084
1260.78	31.8169
1261.05	40.157
1261.33	39.1334
1261.6	38.1284
1261.88	37.1419
1262.15	41.2938
1262.43	36.0174
1262.7	41.1867
1262.98	42.2488
1263.25	38.109
1263.53	42.3164
1263.8	46.5507
1264.08	46.5352
1264.35	38.1516
1264.63	33.9668
1264.9	41.2843
1265.18	37.0954
1265.45	39.1819
1265.73	32.9137
1266	31.872
1266.28	36.0576
1266.55	37.1103
1266.83	35.0283
1267.1	37.13
1267.38	36.0948
1267.66	35.0609
1267.93	38.2202
1268.2	39.2769
1268.48	43.4741
1268.75	41.3854
1269.03	37.1984
1269.31	37.1917
1269.58	41.372
1269.85	38.2185
1270.13	35.0703
1270.4	41.3419
1270.68	37.1505
1270.95	40.2872
1271.23	35.052
1271.5	38.1968
1271.78	42.3937
1272.05	34.0305
1272.33	37.185
1272.6	39.2896
1272.88	42.4441
1273.15	37.214
1273.43	33.0296
1273.7	38.2812
1273.98	40.3836
1274.25	34.0905
1274.53	37.2363
1274.8	42.4828
1275.07	38.2921
1275.35	39.3478
1275.62	35.1578
1275.9	38.3146
1276.17	38.3218
1276.45	41.4787
1276.72	40.436
1277	32.0416
1277.27	37.3034
1277.54	38.3627
1277.82	40.4725
1278.1	41.5336
1278.37	36.2845
1278.64	36.2909
1278.92	38.3974
1279.19	37.3431
1279.47	43.6502
1279.74	40.4911
1280.02	42.5952
1280.29	40.4947
1280.56	45.7611
1280.84	45.7747
1281.11	54.2065
1281.39	58.4196
1281.66	58.421
1281.94	73.168
1282.21	83.6957
1282.49	98.4097
1282.76	122.527
1283.03	137.155
1283.31	141.343
1283.58	147.617
1283.86	149.988
1284.13	121.692
1284.41	87.993
1284.68	67.9513
1284.95	58.4421
1285.23	53.1664
1285.5	43.6981
1285.78	42.6528
1286.05	41.5921
1286.32	36.3246
1286.6	37.3767
1286.87	38.4259
1287.15	34.209
1287.42	37.3607
1287.69	36.3061
1287.97	33.1496
1288.24	32.0982
1288.52	32.1017
1288.79	36.318
1289.06	32.113
1289.34	33.1723
1289.61	36.3395
1289.89	30.0237
1290.16	31.074
1290.43	33.1777
1290.71	35.2832
1290.98	34.2298
1291.26	31.0697
1291.53	28.9618
1291.8	30.0166
1292.08	30.0187
1292.35	35.2802
1292.62	32.1198
1292.9	32.1232
1293.17	27.9234
1293.45	33.2045
1293.72	27.9463
1293.99	34.2714
1294.27	32.1637
1294.54	32.1603
1294.82	30.0619
1295.09	31.1314
1295.36	25.8704
1295.64	26.9458
1295.91	31.1803
1296.18	32.2385
1296.46	30.1246
1296.73	31.1768
1297.01	30.1145
1297.28	30.1081
1297.55	33.2695
1297.83	31.1514
1298.1	30.1002
1298.37	33.2634
1298.65	25.8675
1298.92	31.1423
1299.19	29.0274
1299.47	30.0849
1299.74	24.8113
1300.02	29.0365
1300.29	29.0366
1300.56	30.091
1300.84	26.9233
1301.11	30.0937
1301.38	27.9868
1301.65	26.9343
1301.93	29.0486
1302.2	29.049
1302.47	26.9356
1302.75	30.102
1303.02	31.1541
1303.29	32.2061
1303.57	32.2058
1303.84	27.9826
1304.12	33.2623
1304.39	26.9252
1304.66	27.9772
1304.94	32.1939
1305.21	27.9656
1305.48	30.0692
1305.75	29.0076
1306.03	23.7299
1306.3	33.2201
1306.57	31.1121
1306.85	30.0595
1307.12	27.9505
1307.39	25.8406
1307.67	26.8962
1307.94	26.8961
1308.21	25.841
1308.49	31.118
1308.76	30.0676
1309.03	36.403
1309.31	25.8549
1309.58	26.9114
1309.85	26.9101
1310.13	32.1855
1310.4	24.7992
1310.67	30.0772
1310.94	26.9125
1311.22	27.9693
1311.49	31.1398
1311.76	30.0894
1312.04	27.9811
1312.31	30.0944
1312.58	26.9233
1312.85	27.9759
1313.13	31.1421
1313.4	30.0835
1313.67	29.0266
1313.95	31.1385
1314.22	29.0297
1314.49	26.9215
1314.76	27.9808
1315.04	26.9282
1315.31	31.1565
1315.58	29.0464
1315.86	30.1009
1316.13	31.1554
1316.4	29.0421
1316.67	27.9856
1316.95	30.0993
1317.22	33.2722
1317.49	27.9933
1317.77	27.9948
1318.04	24.8265
1318.31	29.0528
1318.58	25.8833
1318.86	29.0517
1319.13	29.0507
1319.4	23.7689
1319.67	26.9394
1319.95	29.052
1320.22	29.0495
1320.49	27.9883
1320.76	31.1492
1321.04	30.0843
1321.31	25.8554
1321.58	30.0699
1321.85	26.8988
1322.13	31.1141
1322.4	29.0007
1322.67	30.0497
1322.94	23.7222
1323.22	25.8331
1323.49	28.9975
1323.76	31.1062
1324.03	25.8339
1324.31	27.9423
1324.58	28.9981
1324.85	27.9418
1325.12	27.9324
1325.4	27.919
1325.67	28.9528
1325.94	27.8854
1326.21	27.8791
1326.48	26.8288
1326.76	30.0015
1327.03	27.9102
1327.3	31.0806
1327.57	26.8762
1327.85	30.0501
1328.12	26.8968
1328.39	25.8492
1328.66	25.8469
1328.93	26.9029
1329.21	29.0138
1329.48	25.8472
1329.75	29.0094
1330.02	25.841
1330.3	27.9448
1330.57	27.9376
1330.84	28.9826
1331.11	27.9167
1331.38	23.6932
1331.66	30.0024
1331.93	28.9416
1332.2	29.9846
1332.47	22.6118
1332.74	23.6556
1333.01	28.9032
1333.29	25.7426
1333.56	24.6849
1333.83	27.8287
1334.1	32.0211
1334.37	28.8648
1334.65	25.711
1334.92	28.8536
1335.19	29.8975
1335.46	27.7947
1335.73	27.7902
1336.01	26.7379
1336.28	30.928
1336.55	27.7799
1336.82	24.6329
1337.09	26.7271
1337.37	27.7717
1337.64	26.7152
1337.91	24.6158
1338.18	28.8019
1338.45	29.8438
1338.72	27.7478
1339	29.8418
1339.27	28.7966
1339.54	26.7036
1339.81	30.8927
1340.08	29.8471
1340.35	25.6586
1340.63	29.8466
1340.9	27.7508
1341.17	26.7013
1341.44	29.8389
1341.71	23.5528
1341.98	26.687
1342.26	24.5871
1342.53	26.6734
1342.8	28.7628
1343.07	26.6693
1343.34	27.7147
1343.61	30.8522
1343.88	23.5319
1344.16	28.7605
1344.43	25.6198
1344.7	24.5696
1344.97	26.6539
1345.24	30.8253
1345.51	26.6387
1345.79	28.7167
1346.06	25.5721
1346.33	31.8255
1346.6	27.6433
1346.87	27.635
1347.14	22.4154
1347.41	28.6664
1347.68	29.7055
1347.95	27.6187
1348.23	29.7003
1348.5	29.6952
1348.77	26.5644
1349.04	25.5178
1349.31	27.596
1349.58	25.5087
1349.86	27.5862
1350.13	31.7437
1350.4	26.5333
1350.67	30.6887
1350.94	29.6425
1351.21	30.6769
1351.48	28.5956
1351.75	27.5567
1352.02	28.601
1352.3	29.6486
1352.57	26.5337
1352.84	27.5861
1353.11	28.6541
1353.38	29.7016
1353.65	27.5847
1353.92	26.5079
1354.19	28.5715
1354.46	29.6142
1354.73	31.6895
1355.01	29.5991
1355.28	36.8714
1355.55	30.6545
1355.82	27.5304
1356.09	29.6044
1356.36	31.679
1356.63	29.5993
1356.9	26.4807
1357.17	31.6685
1357.44	31.6634
1357.71	31.6579
1357.99	31.6521
1358.26	30.6095
1358.53	30.6025
1358.8	32.6718
1359.07	27.4823
1359.34	34.7374
1359.61	29.5429
1359.88	31.6076
1360.15	27.4547
1360.42	31.5946
1360.69	29.5214
1360.96	34.7007
1361.23	27.4482
1361.5	31.5894
1361.78	31.5849
1362.05	29.5112
1362.32	32.6146
1362.59	32.6147
1362.86	32.618
1363.13	32.6244
1363.4	30.556
1363.67	35.7391
1363.94	32.6293
1364.21	35.7343
1364.48	32.6228
1364.75	33.6517
1365.02	33.644
1365.29	32.6011
1365.56	35.6981
1365.83	32.5866
1366.11	32.5785
1366.38	33.6024
1366.65	32.5585
1366.92	33.5885
1367.19	34.6207
1367.46	36.6932
1367.73	38.7627
1368	35.6639
1368.27	35.6661
1368.54	38.7701
1368.81	40.8413
1369.08	41.8757
1369.35	35.6672
1369.62	38.7644
1369.89	36.6912
1370.16	36.6829
1370.43	35.6447
1370.7	33.5711
1370.97	34.5937
1371.24	43.872
1371.51	41.7911
1371.78	40.7444
1372.05	40.7315
1372.32	41.7532
1372.59	40.716
1372.86	34.5269
1373.13	43.7977
1373.4	42.7631
1373.67	44.8205
1373.94	42.7569
1374.21	43.7842
1374.48	41.7197
1374.75	47.8975
1375.02	48.9313
1375.29	46.8741
1375.56	57.1771
1375.83	53.0528
1376.1	56.1294
1376.37	57.1437
1376.64	63.2971
1376.91	48.8784
1377.18	56.0912
1377.45	67.4333
1377.72	61.2825
1377.99	63.3767
1378.26	65.4638
1378.53	70.6247
1378.8	62.3718
1379.07	70.6101
1379.34	71.6295
1379.61	83.9753
1379.88	77.7441
1380.15	82.8398
1380.42	78.685
1380.69	78.6788
1380.96	81.7637
1381.23	90.9885
1381.5	86.8339
1381.77	85.7662
1382.04	90.8675
1382.31	79.5422
1382.58	81.5687
1382.85	75.3894
1383.12	83.5761
1383.39	75.3581
1383.66	75.354
1383.93	82.5342
1384.2	75.3673
1384.47	81.5353
1384.74	74.3836
1385.01	84.6703
1385.28	87.7737
1385.55	89.8396
1385.82	115.531
1386.09	133.01
1386.36	175.133
1386.62	225.448
1386.89	311.263
1387.16	317.848
1387.43	271.36
1387.7	185.555
1387.97	121.331
1388.24	87.6626
1388.51	73.3938
1388.78	61.0866
1389.05	58.0203
1389.32	52.8828
1389.59	50.8045
1389.86	49.7308
1390.13	44.6125
1390.4	46.6437
1390.67	47.6573
1390.94	37.4077
1391.21	39.451
1391.47	40.4656
1391.74	37.3828
1392.01	37.3755
1392.28	38.3936
1392.55	36.3414
1392.82	37.3612
1393.09	37.3576
1393.36	37.3544
1393.63	41.4449
1393.9	37.3492
1394.17	32.231
1394.44	29.1607
1394.71	35.3066
1394.97	36.3352
1395.24	37.3628
1395.51	36.3397
1395.78	35.3142
1396.05	33.2637
1396.32	35.3063
1396.59	31.2089
1396.86	32.2254
1397.13	35.2891
1397.4	36.3098
1397.66	32.2192
1397.93	30.1763
1398.2	37.3408
1398.47	31.2046
1398.74	31.2074
1399.01	30.189
1399.28	32.2391
1399.55	31.2176
1399.82	32.2423
1400.09	31.2246
1400.35	33.2791
1400.62	27.137
1400.89	31.2336
1401.16	31.2362
1401.43	30.2156
1401.7	28.1789
1401.97	26.1449
1402.24	32.3144
1402.5	34.3797
1402.77	27.203
1403.04	33.3657
1403.31	31.3104
1403.58	28.2209
1403.85	32.3166
1404.12	33.3446
1404.39	30.2638
1404.65	31.2854
1404.92	34.3566
1405.19	29.2235
1405.46	26.143
1405.73	33.315
1406	31.2618
1406.27	28.1861
1406.54	31.2628
1406.8	30.2403
1407.07	35.3685
1407.34	38.4465
1407.61	34.3476
1407.88	38.4512
1408.15	35.3774
1408.42	40.5081
1408.68	42.563
1408.95	39.4895
1409.22	33.3378
1409.49	33.3395
1409.76	34.3628
1410.03	34.3552
1410.29	29.219
1410.56	33.3108
1410.83	27.1556
1411.1	30.2251
1411.37	27.1486
1411.64	30.2231
1411.9	26.1301
1412.17	28.1896
1412.44	26.1637
1412.71	24.1377
1412.98	27.2224
1413.25	26.1618
1413.51	26.1455
1413.78	29.2343
1414.05	26.1748
1414.32	27.2061
1414.59	22.0728
1414.86	25.1534
1415.12	27.207
1415.39	25.1552
1415.66	25.1574
1415.93	27.2138
1416.2	28.2436
1416.47	24.1383
1416.73	25.1685
1417	28.254
1417.27	29.2841
1417.54	26.2027
1417.81	26.2033
1418.07	25.1776
1418.34	22.0949
1418.61	26.207
1418.88	23.1232
1419.15	27.2302
1419.41	21.0608
1419.68	30.3014
1419.95	24.134
1420.22	25.1557
1420.49	26.1772
1420.75	22.0674
1421.02	25.1458
1421.29	28.2282
1421.56	24.1313
1421.83	27.2191
1422.09	26.2033
1422.36	25.1904
1422.63	24.1878
1422.9	27.294
1423.17	22.0436
1423.43	24.1048
1423.7	29.2167
1423.97	26.1159
1424.24	26.1345
1424.5	28.179
1424.77	29.2451
1425.04	28.1931
1425.31	24.1073
1425.58	27.1854
1425.84	24.1063
1426.11	25.1261
1426.38	23.0693
1426.65	27.1628
1426.91	24.0809
1427.18	25.0939
1427.45	26.1123
1427.72	20.9897
1427.98	26.1085
1428.25	23.0379
1428.52	26.1116
1428.79	27.1382
1429.06	25.0934
1429.32	28.171
1429.59	26.1286
1429.86	27.1609
1430.12	27.1659
1430.39	23.0741
1430.66	25.137
1430.93	26.1703
1431.2	24.1205
1431.46	27.1983
1431.73	23.0875
1432	25.1342
1432.26	28.2083
1432.53	22.0455
1432.8	24.0874
1433.07	26.1261
1433.33	24.0686
1433.6	26.1123
1433.87	27.1366
1434.14	24.0788
1434.4	27.1544
1434.67	25.1059
1434.94	24.0812
1435.21	23.0558
1435.47	25.1041
1435.74	22.0288
1436.01	25.1009
1436.28	22.0253
1436.54	25.0963
1436.81	25.0947
1437.08	25.094
1437.34	24.0671
1437.61	24.0669
1437.88	26.1178
1438.15	24.0727
1438.41	24.0746
1438.68	26.1246
1438.95	26.127
1439.21	25.1071
1439.48	24.0884
1439.75	17.9423
1440.01	23.0712
1440.28	22.0469
1440.55	23.0732
1440.82	23.0735
1441.08	16.9188
1441.35	23.0681
1441.62	23.0687
1441.88	25.1228
1442.15	24.0998
1442.42	25.1275
1442.69	26.1495
1442.95	28.1961
1443.22	23.0667
1443.49	17.9395
1443.75	22.04
1444.02	26.1444
1444.29	26.1515
1444.55	24.1074
1444.82	23.0855
1445.09	24.1095
1445.35	25.1333
1445.62	24.1056
1445.89	25.1295
1446.15	26.1533
1446.42	25.1259
1446.69	23.073
1446.95	26.1466
1447.22	26.1437
1447.49	15.8902
1447.76	24.0932
1448.02	26.1492
1448.29	21.0254
1448.56	25.1289
1448.82	24.1024
1449.09	19.998
1449.35	26.1476
1449.62	23.0677
1449.89	27.1652
1450.15	22.038
1450.42	26.1362
1450.69	25.1093
1450.96	24.0824
1451.22	26.1295
1451.49	22.0289
1451.75	26.1256
1452.02	21.0027
1452.29	24.0769
1452.55	22.0296
1452.82	27.156
1453.09	24.0834
1453.35	26.1325
1453.62	23.0566
1453.89	22.0313
1454.15	25.1056
1454.42	24.0809
1454.68	26.1291
1454.95	24.0786
1455.22	23.0565
1455.48	26.1347
1455.75	23.0614
1456.02	25.1108
1456.28	24.0831
1456.55	24.0789
1456.82	25.1006
1457.08	26.1234
1457.35	19.9756
1457.61	23.0484
1457.88	23.0487
1458.15	25.0986
1458.41	25.1002
1458.68	25.1012
1458.95	25.1024
1459.21	23.0532
1459.48	24.0767
1459.74	27.1486
1460.01	27.1468
1460.28	25.0958
1460.54	23.0445
1460.81	24.0658
1461.08	24.0628
1461.34	20.9878
1461.61	23.0315
1461.87	22.0039
1462.14	23.0227
1462.41	21.9947
1462.67	21.9897
1462.94	24.0296
1463.2	23.0029
1463.47	19.9374
1463.74	24.0379
1464	23.0243
1464.27	23.0324
1464.53	24.0695
1464.8	24.0256
1465.07	25.0154
1465.33	22.9588
1465.6	27.0469
1465.86	19.9069
1466.13	21.9422
1466.39	24.9925
1466.66	20.9146
1466.93	26.0157
1467.19	20.9131
1467.46	23.9721
1467.72	21.9313
1467.99	23.9712
1468.26	26.0106
1468.52	21.929
1468.79	26.006
1469.05	19.8845
1469.32	21.9189
1469.58	22.9333
1469.85	23.9487
1470.12	22.9269
1470.38	24.9621
1470.65	25.9798
1470.91	23.9375
1471.18	23.9332
1471.44	23.9307
1471.71	18.8381
1471.97	18.8376
1472.24	21.8918
1472.51	24.9458
1472.77	24.9434
1473.04	23.9213
1473.3	26.9715
1473.57	19.8448
1473.83	19.8439
1474.1	22.8974
1474.36	20.8647
1474.63	22.9011
1474.9	19.8477
1475.16	22.9001
1475.43	21.88
1475.69	22.8944
1475.96	22.8928
1476.22	20.856
1476.49	23.9036
1476.75	25.9342
1477.02	21.8651
1477.29	21.8645
1477.55	24.9147
1477.81	21.8606
1478.08	23.8896
1478.34	22.8698
1478.61	26.9315
1478.88	24.8947
1479.14	21.8421
1479.41	24.8846
1479.67	21.832
1479.94	19.7945
1480.2	23.8489
1480.47	20.8011
1480.73	20.7987
1481	22.826
1481.26	22.8287
1481.53	22.8326
1481.79	21.822
1482.06	21.8261
1482.32	20.8131
1482.59	26.9058
1482.85	27.9241
1483.12	23.8635
1483.38	25.8943
1483.65	18.783
1483.92	26.8933
1484.18	20.7893
1484.44	25.8298
1484.71	22.7676
1484.97	24.776
1485.24	20.7384
1485.5	23.8106
1485.77	18.7509
1486.03	22.8014
1486.3	25.8293
1486.56	17.7329
1486.83	22.7991
1487.09	19.7539
1487.36	23.8014
1487.62	24.8107
1487.89	19.7437
1488.15	25.8129
1488.42	18.7229
1488.68	26.8151
1488.95	24.7889
1489.21	24.7869
1489.48	24.7859
1489.74	19.7274
1490.01	18.7149
1490.27	22.7579
1490.54	23.7647
1490.8	20.7276
1491.07	21.7371
1491.33	23.7585
1491.6	26.792
1491.86	24.7704
1492.12	20.7254
1492.39	25.7792
1492.65	26.7898
1492.92	21.7345
1493.18	23.7549
1493.45	23.7545
1493.71	22.7444
1493.98	19.7134
1494.24	23.7582
1494.51	21.7346
1494.77	25.7729
1495.04	24.7543
1495.3	19.6958
1495.56	23.7302
1495.83	24.736
1496.09	22.7139
1496.36	22.7107
1496.62	22.7089
1496.89	19.681
1497.15	21.6989
1497.42	23.7163
1497.68	24.7253
1497.94	23.7165
1498.21	24.7264
1498.47	24.7273
1498.74	19.6819
1499	19.6834
1499.27	22.7137
1499.53	21.7057
1499.8	23.7254
1500.06	21.7058
1500.32	22.7148
1500.59	23.7232
1500.85	25.7381
1501.12	23.7162
1501.38	21.6968
1501.64	21.6962
1501.91	21.6952
1502.17	21.6921
1502.44	21.6872
1502.7	22.6929
1502.97	23.6975
1503.23	21.6781
1503.5	25.7126
1503.76	20.6725
1504.02	19.6648
1504.29	24.7069
1504.55	22.6885
1504.81	25.7107
1505.08	24.6982
1505.34	26.7043
1505.61	24.6836
1505.87	23.675
1506.13	20.652
1506.4	25.6923
1506.66	21.664
1506.93	23.6804
1507.19	24.6889
1507.46	22.6727
1507.72	21.6634
1507.98	21.6629
1508.25	22.6713
1508.51	19.6491
1508.77	23.6798
1509.04	22.6716
1509.3	23.6798
1509.57	22.6761
1509.83	22.6743
1510.09	20.6551
1510.36	22.6655
1510.62	23.6673
1510.89	21.6465
1511.15	25.662
1511.41	21.625
1511.68	20.6092
1511.94	26.6277
1512.21	24.6099
1512.47	20.5869
1512.73	21.5865
1513	22.5866
1513.26	26.6016
1513.52	23.5994
1513.79	25.6154
1514.05	23.6061
1514.31	24.6073
1514.58	26.6087
1514.84	21.5832
1515.1	23.5844
1515.37	23.5772
1515.63	22.5674
1515.9	28.5812
1516.16	24.5677
1516.42	23.5631
1516.69	22.5592
1516.95	22.559
1517.21	24.565
1517.48	24.5679
1517.74	18.554
1518	22.5669
1518.27	25.5776
1518.53	23.5732
1518.79	22.572
1519.06	29.5965
1519.32	21.5709
1519.58	21.57
1519.85	25.5808
1520.11	22.5707
1520.37	24.5788
1520.64	22.5746
1520.9	22.5763
1521.16	23.5799
1521.43	20.5686
1521.69	21.5699
1521.95	20.5643
1522.22	22.5681
1522.48	25.574
1522.75	22.5606
1523.01	23.5556
1523.27	21.5434
1523.53	19.5346
1523.8	20.5324
1524.06	24.5346
1524.32	24.533
1524.59	19.5281
1524.85	21.5319
1525.11	25.5398
1525.38	23.5404
1525.64	24.5474
1525.9	27.56
1526.17	21.5504
1526.43	20.549
1526.69	20.5477
1526.95	23.552
1527.22	20.544
1527.48	29.5609
1527.74	23.5463
1528.01	23.5437
1528.27	25.5448
1528.53	20.5345
1528.8	23.5387
1529.06	21.5347
1529.32	21.5326
1529.58	27.5384
1529.85	23.5329
1530.11	22.5345
1530.37	24.5426
1530.64	23.5453
1530.9	24.5499
1531.16	24.5496
1531.42	21.543
1531.69	22.5442
1531.95	26.5509
1532.21	21.5449
1532.48	23.5561
1532.74	25.5698
1533	23.5702
1533.27	19.5606
1533.53	23.5743
1533.79	24.5769
1534.05	23.5723
1534.32	25.5762
1534.58	25.5738
1534.84	24.5682
1535.1	25.5631
1535.37	22.5461
1535.63	24.5437
1535.89	21.5326
1536.15	19.5228
1536.42	24.5197
1536.68	23.5131
1536.94	24.5092
1537.2	23.5058
1537.47	21.504
1537.73	23.4984
1537.99	22.4934
1538.25	20.4916
1538.52	23.4911
1538.78	22.4999
1539.04	19.5123
1539.31	21.5275
1539.57	23.541
1539.83	23.5513
1540.09	22.5576
1540.36	26.5745
1540.62	22.5606
1540.88	23.5573
1541.14	21.5495
1541.41	22.546
1541.67	24.544
1541.93	25.5395
1542.19	22.5294
1542.45	26.5287
1542.72	24.521
1542.98	23.5139
1543.24	23.5054
1543.5	20.5011
1543.77	25.5024
1544.03	22.5046
1544.29	25.5117
1544.55	21.5152
1544.81	21.5218
1545.08	22.5303
1545.34	25.5389
1545.6	25.5425
1545.86	24.5416
1546.13	25.5428
1546.39	22.5395
1546.65	21.5402
1546.91	24.5491
1547.17	23.5476
1547.44	29.5479
1547.7	26.5354
1547.96	24.5318
1548.22	25.5403
1548.49	25.5356
1548.75	22.5082
1549.01	25.4899
1549.27	22.4928
1549.53	24.5087
1549.79	25.5422
1550.06	24.5717
1550.32	22.5948
1550.58	27.6201
1550.84	25.6035
1551.1	29.6202
1551.37	28.6062
1551.63	25.595
1551.89	22.5953
1552.15	23.6034
1552.41	24.6054
1552.68	29.6104
1552.94	22.5731
1553.2	27.5864
1553.46	25.577
1553.72	19.5543
1553.99	26.5661
1554.25	23.5498
1554.51	27.5512
1554.77	22.5396
1555.03	20.5351
1555.3	22.5389
1555.56	24.5444
1555.82	27.5474
1556.08	26.5434
1556.34	25.5427
1556.6	26.5461
1556.87	23.5421
1557.13	23.542
1557.39	27.547
1557.65	27.5397
1557.91	28.5337
1558.17	24.5218
1558.43	25.5144
1558.7	27.5075
1558.96	27.5007
1559.22	27.4952
1559.48	23.492
1559.74	26.4876
1560	24.4863
1560.26	24.4844
1560.53	28.4806
1560.79	27.4815
1561.05	26.4853
1561.31	24.4913
1561.57	23.4992
1561.83	26.5039
1562.1	22.5031
1562.36	25.5019
1562.62	26.5012
1562.88	25.5011
1563.14	25.4986
1563.4	21.5006
1563.66	29.5119
1563.93	29.5207
1564.19	27.5211
1564.45	29.5169
1564.71	26.4898
1564.97	26.4367
1565.23	30.3596
1565.49	29.3876
1565.76	27.4805
1566.02	25.4968
1566.28	28.4786
1566.54	26.4767
1566.8	26.5002
1567.06	24.5124
1567.32	30.502
1567.58	27.4909
1567.84	26.4947
1568.11	25.498
1568.37	28.4984
1568.63	26.4932
1568.89	25.4854
1569.15	21.4847
1569.41	27.4815
1569.67	29.4819
1569.93	25.4849
1570.19	26.4844
1570.45	26.4837
1570.72	24.4835
1570.98	30.4761
1571.24	28.4728
1571.5	26.4716
1571.76	28.4677
1572.02	26.4659
1572.28	25.4627
1572.54	31.4495
1572.8	25.4553
1573.07	26.4493
1573.33	26.4469
1573.59	28.4451
1573.85	28.4508
1574.11	26.4604
1574.37	27.4655
1574.63	32.4673
1574.89	27.4785
1575.15	31.4798
1575.41	29.481
1575.67	27.481
1575.94	27.4798
1576.2	30.472
1576.46	28.4642
1576.72	28.4537
1576.98	28.4436
1577.24	29.4318
1577.5	23.4383
1577.76	28.4178
1578.02	27.4168
1578.28	25.4218
1578.54	26.4185
1578.8	28.4123
1579.06	30.4067
1579.32	25.4244
1579.58	28.4189
1579.85	31.4121
1580.11	23.4345
1580.37	26.4244
1580.63	28.4149
1580.89	29.4077
1581.15	31.3966
1581.41	30.3934
1581.67	28.3958
1581.93	26.4013
1582.19	31.3803
1582.45	29.3858
1582.71	26.3961
1582.97	32.3719
1583.23	28.3859
1583.49	29.3799
1583.75	29.3809
1584.01	29.3832
1584.27	29.385
1584.53	28.3896
1584.79	29.3848
1585.06	27.3915
1585.32	27.3904
1585.58	33.3616
1585.84	31.3623
1586.1	29.3645
1586.36	31.3502
1586.62	28.361
1586.88	27.3631
1587.14	29.3509
1587.4	31.3398
1587.66	31.3409
1587.92	26.3685
1588.18	34.3332
1588.44	31.3519
1588.7	26.3787
1588.96	32.355
1589.22	32.3574
1589.48	29.371
1589.74	30.3674
1590	29.3745
1590.26	28.3821
1590.52	32.3669
1590.78	31.3705
1591.04	31.3696
1591.3	26.3884
1591.56	34.3498
1591.82	33.3454
1592.08	28.3601
1592.34	28.355
1592.6	30.3377
1592.86	33.3094
1593.12	33.2956
1593.38	34.2772
1593.64	31.2898
1593.9	27.314
1594.16	33.2746
1594.42	31.293
1594.68	28.3176
1594.94	26.334
1595.2	30.3021
1595.46	33.2733
1595.72	33.2728
1595.98	29.3
1596.24	34.2666
1596.5	32.2817
1596.76	32.2841
1597.02	30.3003
1597.28	31.2952
1597.54	37.2544
1597.8	36.2567
1598.06	31.2832
1598.32	35.2464
1598.58	35.2386
1598.84	32.2549
1599.1	29.2726
1599.36	37.2046
1599.62	33.2307
1599.88	33.225
1600.14	32.2265
1600.4	27.2613
1600.66	31.2168
1600.92	33.1878
1601.17	29.2161
1601.43	34.1596
1601.69	29.203
1601.95	36.1254
1602.21	37.1019
1602.47	34.1589
1602.73	34.1072
1602.99	33.1486
1603.25	34.1566
1603.51	33.2787
1603.77	32.5677
1604.03	33.3922
1604.29	34.0308
1604.55	30.5125
1604.81	34.9285
1605.07	35.4015
1605.33	36.3012
1605.59	33.3644
1605.85	34.2471
1606.11	34.1475
1606.37	34.3378
1606.63	32.2004
1606.88	38.4174
1607.14	32.5929
1607.4	36.4618
1607.66	36.8919
1607.92	32.5553
1608.18	35.2925
1608.44	36.2304
1608.7	33.4864
1608.96	33.7011
1609.22	37.0261
1609.48	37.2123
1609.74	35.351
1610	34.5445
1610.26	35.0208
1610.51	34.5665
1610.77	32.8888
1611.03	32.4547
1611.29	34.7717
1611.55	34.3785
1611.81	35.8245
1612.07	38.1595
1612.33	34.3703
1612.59	35.5088
1612.85	35.3875
1613.11	35.4467
1613.37	38.3159
1613.62	38.6837
1613.88	38.6493
1614.14	37.0996
1614.4	33.9718
1614.66	39.5156
1614.92	35.1403
1615.18	36.0453
1615.44	38.9042
1615.7	39.318
1615.96	35.7063
1616.21	36.4902
1616.47	36.7152
1616.73	35.3929
1616.99	37.8359
1617.25	39.6895
1617.51	34.53
1617.77	37.1568
1618.03	37.9676
1618.28	36.7823
1618.54	40.0125
1618.8	38.8754
1619.06	36.0394
1619.32	34.9518
1619.58	36.6886
1619.84	38.5223
1620.1	39.9421
1620.35	38.7636
1620.61	38.4166
1620.87	39.9518
1621.13	40.8056
1621.39	38.6907
1621.65	38.8854
1621.91	40.7748
1622.17	38.6153
1622.42	38.8781
1622.68	38.7193
1622.94	41.6094
1623.2	40.4182
1623.46	40.5494
1623.72	40.6428
1623.98	37.1106
1624.23	36.7539
1624.49	38.1387
1624.75	39.0478
1625.01	40.3884
1625.27	39.9039
1625.53	39.8615
1625.79	38.0171
1626.04	40.2294
1626.3	41.3449
1626.56	37.3581
1626.82	38.1159
1627.08	39.11
1627.34	36.9849
1627.59	38.1902
1627.85	37.0839
1628.11	35.0601
1628.37	37.588
1628.63	39.5444
1628.81	40.8937
1629.07	33.9931
1629.33	42.858
1629.59	36.9451
1629.85	40.8837
1630.12	39.8958
1630.38	37.9203
1630.64	37.9208
1630.9	38.909
1631.16	36.9456
1631.42	34.982
1631.68	40.8998
1631.95	39.914
1632.21	44.8585
1632.47	40.929
1632.73	41.8953
1632.99	36.9507
1633.25	39.906
1633.51	40.898
1633.78	39.918
1634.04	36.9628
1634.3	43.8633
1634.56	37.9485
1634.82	36.9613
1635.08	40.9012
1635.34	40.8977
1635.6	43.8495
1635.87	40.8884
1636.13	43.8387
1636.39	40.8775
1636.65	38.9009
1636.91	35.9409
1637.17	39.8769
1637.43	37.9058
1637.69	44.7935
1637.95	42.8204
1638.21	45.7717
1638.48	40.8505
1638.74	40.8506
1639	42.8191
1639.26	41.8346
1639.52	38.8807
1639.78	37.8954
1640.04	39.868
1640.3	32.9833
1640.57	38.8954
1640.83	38.8956
1641.09	43.8152
1641.35	44.7957
1641.61	41.8395
1641.87	39.8688
1642.13	41.8358
1642.39	36.9127
1642.65	36.9114
1642.91	42.8169
1643.17	36.9095
1643.44	39.8587
1643.7	43.7904
1643.96	42.7986
1644.22	37.8762
1644.48	41.8103
1644.74	38.8649
1645	40.8366
1645.26	38.8723
1645.52	46.7434
1645.78	38.8666
1646.04	41.8136
1646.31	39.842
1646.57	40.8239
1646.83	42.7855
1647.09	40.8149
1647.35	41.7943
1647.61	40.8119
1647.87	43.7641
1648.13	39.8391
1648.39	39.8474
1648.65	37.9049
1648.91	38.887
1649.17	39.8687
1649.43	37.8947
1649.69	41.8345
1649.95	40.8669
1650.21	49.7375
1650.47	41.8675
1650.74	41.8754
1651	40.8947
1651.26	44.8381
1651.52	40.8962
1651.78	35.9693
1652.04	37.9424
1652.3	44.834
1652.56	40.8883
1652.82	40.8871
1653.08	42.8585
1653.34	38.92
1653.6	40.8953
1653.86	43.854
1654.12	40.8995
1654.38	39.9174
1654.64	40.9094
1654.9	38.947
1655.16	39.9458
1655.42	45.8801
1655.68	40.9556
1655.94	41.9484
1656.21	46.8872
1656.47	41.9531
1656.73	40.9642
1656.99	37.9993
1657.25	41.9432
1657.51	42.9274
1657.77	44.8974
1658.03	42.9189
1658.29	39.9533
1658.55	39.9475
1658.81	40.9278
1659.07	45.8522
1659.33	42.8867
1659.59	36.9666
1659.85	37.9562
1660.11	41.9057
1660.37	38.9542
1660.63	37.9751
1660.89	40.9425
1661.15	37.0026
1661.41	33.0601
1661.67	37.9809
1661.93	40.9416
1662.19	41.0119
1662.45	36.0892
1662.71	38.0504
1662.97	40.0271
1663.23	40.9693
1663.49	40.9315
1663.75	34.0549
1664.01	38.0093
1664.27	38.0186
1664.53	35.0738
1664.79	39.0205
1665.05	38.9593
1665.31	34.0514
1665.57	34.1121
1665.83	40.0444
1666.09	37.0844
1666.35	34.9867
1666.61	39.9126
1666.87	38.0047
1667.13	37.9963
1667.39	37.0052
1667.65	36.9998
1667.91	40.9409
1668.17	38.9728
1668.43	38.9972
1668.69	39.0125
1668.95	37.0397
1669.21	42.9675
1669.47	38.0303
1669.72	34.0724
1669.98	37.0426
1670.24	41.0191
1670.51	35.0928
1670.76	34.1006
1671.02	34.0988
1671.28	33.1089
1671.54	34.1007
1671.8	36.0799
1672.06	37.0697
1672.32	39.046
1672.58	36.081
1672.84	37.0708
1673.1	33.1183
1673.36	30.155
1673.62	37.0803
1673.88	37.0858
1674.14	33.1339
1674.4	34.1279
1674.66	36.1142
1674.92	27.2129
1675.18	34.1426
1675.44	31.1734
1675.69	35.1315
1675.95	28.2058
1676.21	33.156
1676.47	27.2183
1676.73	38.1046
1676.99	37.1125
1677.25	34.1401
1677.51	31.1665
1677.77	34.1276
1678.03	31.1532
1678.29	35.1034
1678.55	32.1328
1678.81	29.1633
1679.07	32.1266
1679.33	33.1116
1679.59	37.0617
1679.84	33.106
1680.1	29.1499
1680.36	34.0873
1680.62	34.0846
1680.88	39.023
1681.14	34.083
1681.4	34.0829
1681.66	35.0709
1681.92	31.1197
1682.18	31.1201
1682.44	32.1067
1682.7	34.0818
1682.95	34.0816
1683.21	29.142
1683.47	28.1532
1683.73	34.0772
1683.99	32.0974
1684.25	30.12
1684.51	34.0686
1684.77	33.0802
1685.03	31.1049
1685.29	34.0673
1685.55	33.0802
1685.8	32.094
1686.06	28.1476
1686.32	28.1527
1686.58	28.1551
1686.84	31.1186
1687.1	28.1525
1687.36	31.1123
1687.62	34.0717
1687.88	28.1435
1688.14	26.1655
1688.39	31.097
1688.65	32.0779
1688.91	31.0856
1689.17	29.1067
1689.43	32.06
1689.69	27.1218
1689.95	32.0557
1690.2	25.1562
1690.46	27.1325
1690.72	23.1879
1690.98	28.1227
1691.24	26.153
1691.5	27.1415
1691.76	31.0889
1692.02	30.0999
1692.28	30.0945
1692.53	31.0753
1692.79	31.0678
1693.05	31.059
1693.31	28.0924
1693.57	30.059
1693.83	28.0819
1694.09	30.0464
1694.34	28.0726
1694.6	25.1184
1694.86	29.0606
1695.12	25.1215
1695.38	30.0492
1695.64	23.1544
1695.89	28.0855
1696.15	28.0875
1696.41	31.043
1696.67	30.054
1696.93	22.1663
1697.19	25.115
1697.45	22.1546
1697.7	23.1347
1697.96	28.0523
1698.22	27.0636
1698.48	26.0763
1698.74	25.0909
1699	29.0265
1699.26	24.1082
1699.51	28.0444
1699.77	24.108
1700.03	25.0875
1700.29	25.0868
1700.55	24.1019
1700.81	24.1003
1701.06	29.0157
1701.32	28.0272
1701.58	24.0888
1701.84	27.0335
1702.1	26.0454
1702.35	25.0588
1702.61	27.0229
1702.87	23.0914
1703.13	29.9676
1703.39	25.0527
1703.65	29.9644
1703.9	24.0724
1704.16	24.075
1704.42	24.0753
1704.68	22.1088
1704.94	24.0729
1705.19	28.0034
1705.45	22.107
1705.71	22.1032
1705.97	23.0805
1706.23	27.0026
1706.48	24.0507
1706.74	26.0079
1707	22.0771
1707.26	27.9564
1707.52	24.025
1707.77	24.9977
1708.03	24.0093
1708.29	25.9599
1708.55	23.9935
1708.81	25.9467
1709.06	22.0275
1709.32	22.0263
1709.58	20.0683
1709.84	23.9846
1710.1	25.9436
1710.35	23.9884
1710.61	24.9708
1710.87	23.0145
1711.13	23.996
1711.39	20.0797
1711.64	23.9973
1711.9	21.0557
1712.16	25.9437
1712.42	22.9972
1712.67	24.9432
1712.93	21.0231
1713.19	21.9918
1713.45	23.9392
1713.71	23.9353
1713.96	22.9556
1714.22	24.9072
1714.48	23.9292
1714.74	19.0457
1714.99	21.0048
1715.25	21.9847
1715.51	22.9611
1715.77	24.9128
1716.02	22.9551
1716.28	20.02
1716.54	23.9192
1716.8	18.0547
1717.05	25.8506
1717.31	21.9373
1717.57	23.8779
1717.83	26.791
1718.08	24.8352
1718.34	22.8827
1718.6	20.9332
1718.86	25.8017
1719.12	21.9065
1719.37	18.0108
1719.63	22.8818
1719.89	24.8289
1720.14	19.958
1720.4	22.8741
1720.66	21.8942
1720.92	23.8362
1721.17	21.8856
1721.43	19.9356
1721.69	21.8749
1721.95	20.8973
1722.2	22.8354
1722.46	22.8301
1722.72	25.7392
1722.98	23.7928
1723.23	22.8194
1723.49	23.7909
1723.75	18.9334
1724	21.8454
1724.26	21.841
1724.52	21.8346
1724.78	19.8855
1725.03	21.818
1725.29	18.9018
1725.55	18.8979
1725.8	19.8654
1726.06	20.8362
1726.32	22.7719
1726.58	24.7054
1726.83	20.8231
1727.09	18.8872
1727.35	20.8288
1727.6	21.7952
1727.86	18.8851
1728.12	20.8095
1728.38	23.678
1728.63	19.7855
1728.89	17.8504
1729.15	21.7231
1729.4	19.8019
1729.66	21.7371
1729.92	22.6908
1730.18	22.6855
1730.43	23.6563
1730.69	17.8784
1730.95	20.7788
1731.2	22.7119
1731.46	23.6777
1731.72	18.8442
1731.97	17.876
1732.23	22.7047
1732.49	21.735
1732.74	22.6956
1733	19.7918
1733.26	20.7485
1733.51	20.7406
1733.77	21.6986
1734.03	20.7277
1734.29	22.6484
1734.54	21.6776
1734.8	18.7813
1735.06	20.7022
1735.31	19.7354
1735.57	20.6953
1735.82	18.7685
1736.08	19.7287
1736.34	24.5374
1736.6	22.6098
1736.85	20.6825
1737.11	21.6418
1737.37	20.6771
1737.62	19.7116
1737.88	18.746
1738.14	22.5867
1738.39	22.5818
1738.65	20.6548
1738.91	22.5693
1739.16	22.5601
1739.42	20.6307
1739.67	19.663
1739.93	21.5733
1740.19	20.6084
1740.44	17.7287
1740.7	19.6408
1740.96	16.7629
1741.21	20.5903
1741.47	18.6721
1741.73	18.6705
1741.98	17.7121
1742.24	20.5824
1742.5	20.5803
1742.75	21.5366
1743.01	17.7075
1743.26	18.6621
1743.52	18.6579
1743.78	19.6119
1744.03	20.5653
1744.29	18.6517
1744.55	19.6082
1744.8	18.6522
1745.06	16.739
1745.32	20.5637
1745.57	20.5607
1745.83	15.7757
1746.09	22.4623
1746.34	18.6332
1746.6	21.4954
1746.85	18.6234
1747.11	16.7101
1747.37	18.6151
1747.62	19.5685
1747.88	21.4774
1748.13	20.5233
1748.39	16.7058
1748.65	19.5712
1748.9	19.5738
1749.16	15.7573
1749.42	21.4918
1749.67	18.6306
1749.93	17.6794
1750.18	19.5948
1750.44	15.7723
1750.7	18.6424
1750.95	19.5983
1751.21	19.595
1751.46	18.6333
1751.72	18.6278
1751.98	21.489
1752.23	19.5746
1752.49	18.6155
1752.74	19.5659
1753	18.6081
1753.26	17.6508
1753.51	21.4636
1753.77	20.505
1754.02	16.6866
1754.28	17.6376
1754.53	19.5417
1754.79	17.6332
1755.05	17.6308
1755.3	18.5805
1755.56	17.6238
1755.81	18.5717
1756.07	21.4229
1756.33	18.5604
1756.58	17.6031
1756.84	19.5013
1757.09	16.6454
1757.35	18.5463
1757.6	19.4998
1757.86	20.4563
1758.12	20.4579
1758.37	18.5553
1758.63	19.5071
1758.88	18.5561
1759.14	18.5568
1759.39	19.5078
1759.65	16.6518
1759.91	18.5532
1760.16	16.6487
1760.42	18.5491
1760.67	22.3502
1760.93	17.5914
1761.18	20.4407
1761.44	20.4385
1761.69	21.3875
1761.95	18.5363
1762.21	18.5393
1762.46	19.4919
1762.72	16.6394
1762.97	17.5899
1763.23	18.5415
1763.48	16.6413
1763.74	18.5453
1763.99	14.7453
1764.25	18.5564
1764.5	18.5594
1764.76	18.5618
1765.02	18.5635
1765.27	15.7086
1765.53	19.5174
1765.78	22.3735
1766.04	19.5165
1766.29	17.6109
1766.55	18.5622
1766.8	20.4653
1767.06	20.4635
1767.31	17.6054
1767.57	17.6032
1767.82	16.6494
1768.08	19.503
1768.33	22.3537
1768.59	20.4413
1768.84	19.4803
1769.1	16.6205
1769.36	18.5161
1769.61	18.5171
1769.86	17.5732
1770.12	17.5759
1770.38	20.4267
1770.63	22.329
1770.89	18.5348
1771.14	17.5901
1771.4	17.5912
1771.65	17.5927
1771.91	16.645
1772.16	17.6
1772.42	19.5055
1772.67	19.5079
1772.93	16.6551
1773.18	18.5605
1773.44	16.6585
1773.69	19.5158
1773.95	19.5169
1774.2	18.5659
1774.46	21.4257
1774.71	18.5703
1774.97	16.6695
1775.22	18.5837
1775.48	16.6813
1775.73	16.6831
1775.99	18.5902
1776.24	17.6357
1776.5	19.5396
1776.75	15.7243
1777.01	17.6284
1777.26	18.5779
1777.51	16.6695
1777.77	15.7141
1778.03	18.5678
1778.28	16.6597
1778.53	19.5104
1778.79	16.6509
1779.04	20.4542
1779.3	19.5039
1779.55	18.5573
1779.81	15.7034
1780.06	18.5601
1780.32	16.6581
1780.57	19.5155
1780.83	14.7561
1781.08	20.4693
1781.34	18.5672
1781.59	17.6177
1781.85	19.5259
1782.1	17.6249
1782.36	19.5332
1782.61	19.5356
1782.86	13.8195
1783.12	14.7746
1783.37	17.6367
1783.63	18.593
1783.88	16.6895
1784.14	17.6474
1784.39	22.4202
1784.65	19.5594
1784.9	15.7428
1785.15	17.65
1785.41	20.51
1785.66	20.5084
1785.92	18.6013
1786.17	16.6954
1786.43	15.7442
1786.68	18.6111
1786.94	20.5261
1787.19	18.625
1787.44	17.6809
1787.7	20.5617
1787.95	18.6603
1788.21	18.6671
1788.46	18.6705
1788.72	17.7182
1788.97	21.557
1789.23	15.812
1789.48	15.8141
1789.73	22.5264
1789.99	15.8181
1790.24	20.6114
1790.5	19.6521
1790.75	15.8112
1791	18.6776
1791.26	16.7603
1791.51	19.6322
1791.77	18.6751
1792.02	18.6758
1792.28	16.7618
1792.53	17.7218
1792.78	16.7653
1793.04	17.7233
1793.29	16.7665
1793.55	19.6427
1793.8	18.6857
1794.05	17.726
1794.31	18.682
1794.56	19.6499
1794.82	19.6644
1795.07	17.7541
1795.32	16.7983
1795.58	17.7613
1795.83	18.7249
1796.09	17.7682
1796.34	15.8506
1796.6	20.6582
1796.85	19.7011
1797.1	17.7819
1797.36	16.8229
1797.61	18.7477
1797.86	15.8649
1798.12	15.8659
1798.37	16.8274
1798.63	15.8648
1798.88	16.8243
1799.13	18.744
1799.39	18.7403
1799.64	17.7763
1799.9	18.7346
1800.15	16.8112
1800.4	18.731
1800.66	13.9275
1800.91	13.9272
1801.16	15.8484
1801.42	17.7702
1801.67	15.8504
1801.93	18.7343
1802.18	15.8545
1802.43	19.7015
1802.69	17.7832
1802.94	17.7872
1803.19	16.8285
1803.45	17.7916
1803.7	17.7926
1803.95	17.7955
1804.21	17.799
1804.46	17.8024
1804.71	18.7693
1804.97	17.8114
1805.22	21.6679
1805.48	17.8197
1805.73	17.8228
1805.98	18.7893
1806.24	16.8645
1806.49	16.8658
1806.74	18.7939
1807	15.9027
1807.25	18.7942
1807.5	16.8669
1807.76	16.8673
1808.01	17.8317
1808.26	15.9046
1808.52	17.8332
1808.77	17.834
1809.02	18.7987
1809.28	18.7996
1809.53	14.944
1809.79	16.8728
1810.04	17.8372
1810.29	19.7643
1810.55	18.7994
1810.8	14.9431
1811.05	17.8349
1811.3	19.7629
1811.56	18.7993
1811.81	16.8723
1812.06	15.9101
1812.32	17.8414
1812.57	17.8447
1812.82	17.8469
1813.08	16.8836
1813.33	15.9214
1813.58	18.8208
1813.84	17.8605
1814.09	18.8319
1814.34	20.7696
1814.6	15.9426
1814.85	17.8776
1815.1	15.9462
1815.36	17.88
1815.61	15.9479
1815.86	14.9821
1816.12	14.9836
1816.37	18.8509
1816.62	16.9169
1816.88	18.8457
1817.13	20.7686
1817.38	18.8324
1817.63	17.8681
1817.89	17.8718
1818.14	21.7424
1818.39	16.9119
1818.64	18.8445
1818.9	17.8797
1819.15	15.9489
1819.4	15.9507
1819.66	17.8859
1819.91	16.9213
1820.16	17.8907
1820.42	19.8269
1820.67	19.8291
1820.92	17.8972
1821.18	19.8353
1821.43	18.8705
1821.68	16.937
1821.93	15.0028
1822.19	17.9077
1822.44	19.8449
1822.69	19.8459
1822.94	18.877
1823.2	18.8755
1823.45	15.002
1823.7	17.9059
1823.95	16.9395
1824.21	18.8772
1824.46	16.9427
1824.71	14.0397
1824.96	15.9781
1825.22	18.8844
1825.47	17.9162
1825.72	16.9477
1825.98	18.8853
1826.23	18.8858
1826.48	17.9178
1826.73	18.8879
1826.99	15.9837
1827.24	15.0168
1827.49	18.8939
1827.74	18.8936
1828	15.9863
1828.25	16.9532
1828.5	15.9822
1828.75	13.0754
1829.01	13.075
1829.26	18.8854
1829.51	17.9159
1829.76	15.9769
1830.02	15.9753
1830.27	19.846
1830.52	15.0061
1830.77	18.8812
1831.03	16.947
1831.28	16.9494
1831.53	17.9203
1831.78	17.9227
1832.04	22.7701
1832.29	16.9602
1832.54	18.9009
1832.79	15.993
1833.04	15.0243
1833.3	16.9649
1833.55	18.9043
1833.8	18.9059
1834.05	15.9917
1834.31	16.9513
1834.56	17.9114
1834.81	13.0645
1835.06	15.9637
1835.31	17.8937
1835.57	16.9275
1835.82	17.8893
1836.07	18.9545
1836.32	16.0141
1836.58	16.9633
1836.83	16.9586
1837.08	17.9128
1837.33	14.0317
1837.58	17.8825
1837.84	15.9414
1838.09	18.84
1838.34	17.9101
1838.59	15.9811
1838.85	15.0178
1839.1	16.9574
1839.35	15.9909
1839.6	15.994
1839.85	16.9449
1840.11	16.9341
1840.36	16.9243
1840.61	18.8493
1840.86	15.9419
1841.11	17.8664
1841.36	17.8594
1841.62	15.9229
1841.87	19.7764
1842.12	18.8066
1842.37	13.987
1842.62	16.8793
1842.88	14.952
1843.13	15.9163
1843.38	17.8453
1843.63	15.9146
1843.88	17.8441
1844.14	18.8108
1844.39	13.9874
1844.64	17.8435
1844.89	18.8088
1845.14	17.8458
1845.39	15.9234
1845.65	17.8613
1845.9	19.8014
1846.15	14.0124
1846.4	14.9678
1846.65	15.9096
1846.9	15.8869
1847.16	19.7331
1847.41	17.8101
1847.66	15.8929
1847.91	14.9336
1848.16	16.8527
1848.41	17.8121
1848.67	17.8119
1848.92	17.8081
1849.17	15.8783
1849.42	18.7595
1849.67	16.83
1849.92	17.7855
1850.18	18.7414
1850.43	15.8542
1850.68	15.8508
1850.93	17.769
1851.18	17.7665
1851.43	16.8047
1851.68	16.8041
1851.94	18.7245
1852.19	16.8041
1852.44	16.8041
1852.69	14.8831
1852.94	15.8422
1853.19	16.8003
1853.44	17.7565
1853.69	17.7514
1853.95	14.8678
1854.2	16.782
1854.45	13.9032
1854.7	17.7355
1854.95	17.7298
1855.2	16.7663
1855.45	16.7637
1855.71	16.7623
1855.96	19.6351
1856.21	16.7618
1856.46	16.7616
1856.71	14.8453
1856.96	18.6745
1857.21	15.7997
1857.46	19.6275
1857.72	16.7524
1857.97	21.5343
1858.22	16.7451
1858.47	15.7846
1858.72	18.6499
1858.97	16.7328
1859.22	18.6424
1859.47	17.6865
1859.72	18.6424
1859.98	15.7759
1860.23	17.6918
1860.48	20.564
1860.73	15.7842
1860.98	17.701
1861.23	18.6605
1861.48	16.7472
1861.73	15.7892
1861.98	18.6568
1862.24	18.6527
1862.49	17.6919
1862.74	17.6878
1862.99	18.6396
1863.24	17.68
1863.49	18.6321
1863.74	14.8075
1863.99	18.6256
1864.24	15.7572
1864.49	19.573
1864.74	14.7952
1864.99	19.5619
1865.25	18.6013
1865.5	17.6404
1865.75	19.5393
1866	19.5308
1866.25	17.6181
1866.5	19.5145
1866.75	15.7005
1867	17.597
1867.25	15.6903
1867.5	17.5895
1867.75	16.637
1868	14.7348
1868.25	16.6367
1868.51	16.6376
1868.76	17.5879
1869.01	18.5376
1869.26	13.7835
1869.51	14.7333
1869.76	16.6336
1870.01	15.6824
1870.26	19.4835
1870.51	14.7311
1870.76	19.4828
1871.01	17.5806
1871.26	22.3295
1871.51	16.6253
1871.76	15.6737
1872.01	17.5718
1872.26	17.5682
1872.52	16.6153
1872.77	17.5626
1873.02	15.6635
1873.27	15.6621
1873.52	16.6088
1873.77	18.5034
1874.02	15.6531
1874.27	17.5461
1874.52	15.6452
1874.77	19.4326
1875.02	13.7411
1875.27	16.5779
1875.52	17.5148
1875.77	17.5092
1876.02	17.504
1876.27	15.6081
1876.52	17.4976
1876.77	16.5423
1877.02	14.6425
1877.27	16.5128
1877.52	18.4234
1877.77	19.4416
1878.02	15.6145
1878.27	18.4503
1878.52	16.5572
1878.78	20.3633
1879.02	15.6329
1879.27	17.521
1879.52	16.5694
1879.78	16.569
1880.03	20.3553
1880.28	8.99615
1880.53	20.3546
1880.78	16.5666
1881.03	17.5053
1881.28	17.4966
1881.53	15.5971
1881.78	19.3677
1882.03	18.412
1882.28	16.5128
1882.53	18.394
1882.78	14.6241
1883.03	16.6014
1883.28	16.5261
1883.53	14.6059
1883.78	16.4945
1884.03	17.4447
1884.28	15.5523
1884.53	17.4448
1884.78	17.4529
1885.03	19.3424
1885.28	17.4587
1885.53	16.5225
1885.78	13.6931
1886.03	16.5281
1886.28	16.5255
1886.53	19.3511
1886.78	17.4592
1887.03	15.5681
1887.28	21.224
1887.52	15.5602
1887.78	14.6127
1888.03	17.4343
1888.27	18.3704
1888.52	16.481
1888.77	15.5347
1889.02	16.474
1889.27	19.2973
1889.52	15.5316
1889.77	16.475
1890.02	14.5957
1890.27	17.4242
1890.52	17.4252
1890.77	20.2498
1891.02	16.4812
1891.27	17.4226
1891.52	18.3631
1891.77	17.4208
1892.02	19.303
1892.27	18.3586
1892.52	17.4133
1892.77	17.4062
1893.02	14.5755
1893.27	18.3285
1893.52	16.4489
1893.77	20.209
1894.02	17.3835
1894.27	19.2597
1894.52	17.3798
1894.76	18.32
1895.02	18.3215
1895.26	18.3235
1895.51	17.386
1895.76	14.5687
1896.01	18.3315
1896.26	14.5741
1896.51	14.5766
1896.76	18.3406
1897.01	17.4017
1897.26	16.4617
1897.51	16.4615
1897.76	18.3416
1898.01	17.3988
1898.26	17.3957
1898.51	17.3916
1898.75	15.5075
1899.01	18.324
1899.25	15.5034
1899.5	15.5012
1899.75	17.3783
1900	20.196
1900.25	18.3182
1900.5	18.3203
1900.75	18.3237
1901	15.5079
1901.25	14.571
1901.5	15.5142
1901.75	20.2208
1902	19.2838
1902.25	19.2836
1902.49	18.3414
1902.74	19.2799
1902.99	18.3373
1903.24	16.4553
1903.49	14.5738
1903.74	17.3938
1903.99	17.3934
1904.24	18.3329
1904.49	19.272
1904.74	18.3314
1904.98	15.511
1905.23	18.3299
1905.48	17.3839
1905.73	18.3183
1905.98	18.3159
1906.23	17.3747
1906.48	16.434
1906.73	13.6158
1906.98	16.4335
1907.23	19.2517
1907.47	16.4372
1907.72	16.44
1907.97	17.3808
1908.22	18.3215
1908.47	18.3237
1908.72	17.3869
1908.97	17.3907
1909.22	20.2162
1909.47	15.5196
1909.71	17.4066
1909.96	17.4129
1910.21	17.4181
1910.46	17.4219
1910.71	16.4827
1910.96	16.4843
1911.21	15.5428
1911.46	17.4267
1911.7	18.3672
1911.95	14.5988
1912.2	19.3078
1912.45	17.4242
1912.7	18.3661
1912.95	18.367
1913.2	16.4862
1913.45	18.3761
1913.69	17.4392
1913.94	18.3859
1914.19	18.39
1914.44	17.4507
1914.69	17.4542
1914.94	16.513
1915.18	17.4574
1915.43	16.5133
1915.68	17.4554
1915.93	16.5112
1916.18	17.4517
1916.43	21.2207
1916.68	18.3882
1916.92	16.4999
1917.17	17.4412
1917.42	16.4975
1917.67	18.3839
1917.92	17.4439
1918.17	17.4481
1918.42	16.5096
1918.66	15.571
1918.91	15.5761
1919.16	17.4719
1919.41	19.3671
1919.66	17.4807
1919.91	16.5362
1920.15	16.5339
1920.4	15.5912
1920.65	18.431
1920.9	17.4904
1921.15	19.3839
1921.39	18.4412
1921.64	19.3884
1921.89	19.3883
1922.14	15.6038
1922.39	16.5468
1922.64	16.5446
1922.89	17.4885
1923.13	16.5419
1923.38	17.4856
1923.63	18.428
1923.88	19.3695
1924.13	24.0913
1924.37	15.5881
1924.62	20.3129
1924.87	12.7565
1925.12	17.4852
1925.37	17.4908
1925.61	19.387
1925.86	21.2841
1926.11	15.6127
1926.36	16.5644
1926.61	19.4077
1926.86	16.5701
1927.1	21.3074
1927.35	17.5217
1927.6	18.471
1927.85	21.3151
1928.1	17.527
1928.34	20.3722
1928.59	19.4272
1928.84	18.4827
1929.09	14.6948
1929.33	18.4932
1929.58	19.4464
1929.83	17.5548
1930.08	15.6606
1930.33	15.665
1930.57	18.5141
1930.82	17.5652
1931.07	16.6142
1931.32	18.5105
1931.57	17.5589
1931.81	19.4545
1932.06	21.3496
1932.31	17.5514
1932.56	17.5511
1932.8	17.5484
1933.05	17.5502
1933.3	18.5049
1933.55	14.7168
1933.79	20.4275
1934.04	17.5935
1934.29	19.512
1934.54	20.4788
1934.79	19.5381
1935.03	16.6868
1935.28	18.5996
1935.53	19.5377
1935.78	16.6787
1936.02	14.7715
1936.27	19.5339
1936.52	16.6717
1936.77	14.7628
1937.01	16.6643
1937.26	16.6609
1937.51	15.7061
1937.76	19.5097
1938	16.6552
1938.25	18.5659
1938.5	22.3762
1938.75	18.5706
1938.99	17.6213
1939.24	17.6236
1939.49	19.5322
1939.74	16.6744
1939.98	17.6321
1940.23	16.6835
1940.48	18.6032
1940.73	17.655
1940.97	17.6543
1941.22	17.6517
1941.47	16.6912
1941.72	15.7284
1941.96	18.5975
1942.21	17.6621
1942.46	20.5293
1942.71	17.6649
1942.95	13.8393
1943.2	17.6493
1943.45	19.552
1943.7	20.5201
1943.94	16.7053
1944.19	14.7994
1944.44	18.623
1944.68	15.7619
1944.93	16.7214
1945.18	17.6813
1945.42	18.6412
1945.67	14.8201
1945.92	21.5163
1946.17	13.8676
1946.41	18.6506
1946.66	18.65
1946.91	18.6484
1947.16	17.6904
1947.4	20.5589
1947.65	17.6901
1947.9	19.6023
1948.14	19.601
1948.39	18.6462
1948.64	17.6934
1948.89	17.6971
1949.13	16.7442
1949.38	16.7486
1949.62	18.668
1949.87	22.5072
1950.12	19.6429
1950.37	14.8572
1950.61	19.6578
1950.86	18.7066
1951.11	14.8749
1951.35	16.7993
1951.6	16.8025
1951.85	16.8052
1952.1	18.7285
1952.34	19.6886
1952.59	16.8107
1952.83	19.6965
1953.08	17.7696
1953.33	17.7623
1953.58	17.7511
1953.82	17.7412
1954.07	18.6906
1954.32	16.7666
1954.56	17.7226
1954.81	18.6803
1955.06	17.7249
1955.3	16.7718
1955.55	18.6975
1955.8	17.7503
1956.04	19.675
1956.29	19.6811
1956.54	20.645
1956.78	18.729
1957.03	19.6936
1957.28	17.7757
1957.52	18.7392
1957.77	16.819
1958.02	15.859
1958.26	23.5492
1958.51	16.8193
1958.76	18.7382
1959	17.7757
1959.25	20.6572
1959.5	18.7328
1959.74	19.6904
1959.99	19.6874
1960.23	17.7637
1960.48	20.6405
1960.73	18.7173
1960.98	16.7952
1961.22	17.7535
1961.47	17.7542
1961.71	19.6747
1961.96	19.6756
1962.21	17.7569
1962.45	19.6775
1962.7	18.7184
1962.95	19.6791
1963.19	19.6799
1963.44	17.7611
1963.69	15.843
1963.93	17.7651
1964.18	23.5262
1964.42	18.7238
1964.67	16.8037
1964.92	17.7634
1965.16	17.764
1965.41	19.6868
1965.66	21.6118
1965.9	19.6953
1966.15	17.7777
1966.39	16.8194
1966.64	17.7825
1966.89	20.6657
1967.13	18.7438
1967.38	18.7455
1967.63	20.6688
1967.87	15.8629
1968.12	18.7466
1968.36	20.6673
1968.61	20.6635
1968.86	20.6583
1969.1	18.7306
1969.35	19.6849
1969.59	18.7201
1969.84	18.7164
1970.09	18.714
1970.33	21.5891
1970.58	19.6673
1970.82	21.5838
1971.07	20.6226
1971.32	21.5802
1971.56	16.7863
1971.81	16.788
1972.05	20.6263
1972.3	18.7072
1972.55	19.6647
1972.79	18.7022
1973.04	19.6569
1973.28	16.7774
1973.53	18.6925
1973.78	18.6911
1974.02	17.7321
1974.27	19.6493
1974.51	16.7745
1974.76	17.7347
1975.01	20.6135
1975.25	19.6579
1975.5	22.5377
1975.74	18.7034
1975.99	18.7046
1976.23	18.7053
1976.48	19.6646
1976.73	18.7048
1976.97	15.8261
1977.22	21.5785
1977.46	19.6573
1977.71	17.7367
1977.95	18.6931
1978.2	21.5667
1978.45	17.7317
1978.69	22.5243
1978.94	20.6081
1979.18	17.7326
1979.43	18.6921
1979.67	18.6924
1979.92	21.5658
1980.17	18.6869
1980.41	16.7676
1980.66	18.6826
1980.9	16.7638
1981.15	15.8044
1981.39	19.6345
1981.64	17.7185
1981.88	19.6333
1982.13	16.7572
1982.37	16.7545
1982.62	21.5363
1982.87	20.573
1983.11	19.6122
1983.36	19.6106
1983.6	19.6092
1983.85	19.6073
1984.09	19.6053
1984.34	19.6038
1984.58	19.6003
1984.83	21.5067
1985.08	21.5047
1985.32	18.6377
1985.56	16.736
1985.81	17.6594
1986.06	18.6779
1986.3	19.6482
1986.55	16.948
1986.79	19.5788
1987.04	17.7149
1987.28	17.8398
1987.53	19.5717
1987.77	19.4801
1988.02	19.4448
1988.26	18.4979
1988.51	21.0736
1988.75	18.6735
1989	17.5093
1989.24	17.9355
1989.49	16.3285
1989.73	18.6641
1989.98	19.6967
1990.22	18.0249
1990.47	18.0389
1990.72	19.8092
1990.96	19.7847
1991.2	18.587
1991.45	20.9354
1991.7	19.9806
1991.94	16.9822
1992.19	19.2408
1992.43	17.9369
1992.68	19.5968
1992.92	21.943
1993.17	20.2309
1993.41	19.5217
1993.66	17.712
1993.9	21.1051
1994.15	18.6708
1994.39	20.5583
1994.63	18.6071
1994.88	19.6195
1995.13	18.8416
1995.37	21.3685
1995.61	20.0821
1995.86	18.2724
1996.11	18.0841
1996.35	18.9276
1996.59	19.0712
1996.84	19.617
1997.08	19.0795
1997.33	19.2588
1997.57	19.5542
1997.82	19.5743
1998.06	19.7381
1998.31	19.3831
1998.55	19.4648
1998.8	18.0791
1999.04	19.5046
1999.29	18.9115
1999.53	18.4255
1999.78	17.9516
2000.02	18.7556
2000.27	18.792
2000.51	19.7504
2000.76	19.4721
2001	19.1925
2001.24	19.8053
2001.49	18.4963
2001.73	19.3356
2001.98	20.3072
2002.22	19.1135
2002.47	18.8287
2002.71	18.084
2002.96	19.4742
2003.2	20.1435
2003.45	19.1523
2003.69	19.04
2003.93	19.3513
2004.18	18.3838
2004.42	20.8444
2004.67	20.1869
2004.91	18.1868
2005.16	19.0398
2005.4	18.8641
2005.65	19.309
2005.89	17.2472
2006.13	17.9163
2006.38	16.9556
2006.62	18.3379
2006.87	18.5025
2007.11	18.8936
2007.36	20.8644
2007.6	18.6617
2007.81	20.3017
2008.06	18.4066
2008.31	23.1204
2008.56	19.3411
2008.8	19.335
2009.05	20.2715
2009.3	21.2091
2009.55	18.3767
2009.79	19.3144
2010.04	20.2512
2010.29	18.3665
2010.53	21.1915
2010.78	15.54
2011.03	19.3069
2011.28	16.481
2011.52	21.1887
2011.77	17.4211
2012.02	19.3031
2012.27	21.1841
2012.51	17.4142
2012.76	19.2887
2013.01	18.3398
2013.26	19.2744
2013.5	21.1467
2013.75	20.1976
2014	19.2475
2014.24	18.3013
2014.49	16.4228
2014.74	20.1779
2014.99	20.1811
2015.23	20.1845
2015.48	19.2479
2015.73	19.244
2015.97	22.0724
2016.22	16.4466
2016.47	21.1475
2016.71	19.2663
2016.96	19.263
2017.21	21.137
2017.46	19.252
2017.7	21.1216
2017.95	19.2363
2018.2	16.4154
2018.44	18.2845
2018.69	19.2143
2018.94	20.1445
2019.18	20.1415
2019.43	19.2017
2019.68	18.2642
2019.93	21.0736
2020.17	18.2628
2020.42	20.1353
2020.67	19.2004
2020.91	17.3281
2021.16	18.2647
2021.41	16.3905
2021.65	17.3254
2021.9	19.1955
2022.15	21.064
2022.4	19.1867
2022.64	19.1812
2022.89	21.0484
2023.14	21.0436
2023.38	17.2987
2023.63	18.2298
2023.88	21.0304
2024.12	18.2198
2024.37	19.1475
2024.62	18.2074
2024.86	21.0019
2025.11	19.1295
2025.36	17.2584
2025.6	20.0505
2025.85	19.1214
2026.1	19.1297
2026.34	24.7455
2026.59	19.158
2026.84	20.1093
2027.08	18.2464
2027.33	20.1129
2027.57	19.164
2027.82	17.2725
2028.07	18.1741
2028.32	21.0314
2028.56	20.1488
2028.81	17.3127
2029.06	20.1282
2029.3	18.2261
2029.55	19.1389
2029.79	15.3906
2030.04	19.1168
2030.29	20.9714
2030.53	20.0541
2030.78	20.0628
2031.03	17.2614
2031.27	19.1275
2031.52	20.0624
2031.77	18.2016
2032.01	21.0092
2032.26	20.0829
2032.5	18.2206
2032.75	20.0944
2033	21.0338
2033.24	20.1054
2033.49	19.1698
2033.74	19.16
2033.98	20.0783
2034.23	20.9928
2034.48	20.0586
2034.72	19.1332
2034.97	18.2068
2035.21	19.1529
2035.46	19.1663
2035.71	20.1108
2035.95	19.1708
2036.2	16.3583
2036.45	20.1003
2036.69	20.1038
2036.94	19.1685
2037.18	19.1673
2037.43	18.2305
2037.68	21.0325
2037.92	19.1602
2038.17	21.0261
2038.41	19.1541
2038.66	21.0194
2038.91	20.0816
2039.15	21.946
2039.4	15.4051
2039.64	15.4007
2039.89	20.9952
2040.14	21.9227
2040.38	20.9848
2040.63	20.0481
2040.87	19.1124
2041.12	22.8404
2041.37	20.9744
2041.61	17.243
2041.86	18.1731
2042.1	18.1687
2042.35	18.1682
2042.6	18.1681
2042.84	19.1021
2043.09	18.1759
2043.33	15.3862
2043.58	20.0571
2043.83	19.1261
2044.07	19.1247
2044.32	20.9846
2044.56	19.1099
2044.81	22.8159
2045.05	17.2588
2045.3	18.1912
2045.55	19.1582
2045.79	20.1242
2046.04	18.228
2046.28	21.0133
2046.53	20.0659
2046.78	21.0018
2047.02	20.0604
2047.27	21.9089
2047.51	18.1775
2047.76	19.1108
2048	18.1796
2048.25	20.978
2048.5	16.3197
2048.74	20.9862
2048.99	20.0581
2049.23	20.0643
2049.48	21.9391
2049.72	20.0773
2049.97	18.2148
2050.22	21.9542
2050.46	18.2179
2050.71	18.2164
2050.95	19.1463
2051.2	17.2738
2051.44	20.0752
2051.69	20.0761
2051.93	18.2112
2052.18	22.8821
2052.42	18.2147
2052.67	20.0864
2052.91	20.0907
2053.16	19.1622
2053.41	20.1056
2053.65	17.3034
2053.9	18.2409
2054.14	17.3059
2054.39	19.1764
2054.63	21.9816
2054.88	19.1734
2055.12	20.1043
2055.37	21.0374
2055.62	21.9712
2055.86	23.8387
2056.11	19.1625
2056.35	19.1615
2056.6	21.9658
2056.84	19.1628
2057.09	18.2297
2057.33	18.2322
2057.58	20.1052
2057.82	21.0442
2058.07	21.0494
2058.31	21.0543
2058.56	20.1228
2058.8	21.0618
2059.05	22.9353
2059.29	22.9369
2059.54	21.0642
2059.78	19.1895
2060.03	23.8659
2060.27	18.2495
2060.52	21.9959
2060.76	19.1907
2061.01	20.1288
2061.25	16.3846
2061.5	22.0027
2061.74	21.0674
2061.99	19.1964
2062.24	21.0716
2062.48	17.3283
2062.73	21.079
2062.97	21.0825
2063.22	21.0854
2063.46	19.2132
2063.7	19.2149
2063.95	22.9662
2064.19	20.1567
2064.44	20.1598
2064.68	19.2274
2064.93	18.2951
2065.18	21.1157
2065.42	19.2434
2065.66	18.3083
2065.91	18.3108
2066.15	19.2503
2066.4	20.1923
2066.64	20.1943
2066.89	16.4388
2067.13	19.2598
2067.38	20.2028
2067.62	17.3862
2067.87	21.1477
2068.11	19.2689
2068.36	23.033
2068.6	19.2719
2068.85	18.3289
2069.09	20.2024
2069.34	20.193
2069.58	17.3738
2069.83	21.1331
2070.07	19.2641
2070.31	18.3338
2070.56	22.1065
2070.8	21.1613
2071.05	21.1549
2071.29	20.2449
2071.54	20.2482
2071.78	17.421
2072.03	20.2447
2072.27	21.1859
2072.52	20.2424
2072.76	17.4182
2073.01	20.2416
2073.25	22.1259
2073.5	19.302
2073.74	22.1283
2073.98	18.3641
2074.23	19.31
2074.47	18.3733
2074.72	19.3227
2074.96	20.2749
2075.21	17.455
2075.45	24.0676
2075.69	19.3517
2075.94	21.2403
2076.18	19.3527
2076.43	24.0699
2076.67	22.1774
2076.92	17.454
2077.16	17.447
2077.41	17.4458
2077.65	22.1641
2077.9	20.2818
2078.14	20.2837
2078.38	20.2859
2078.63	19.3455
2078.87	21.2391
2079.12	23.137
2079.36	19.3635
2079.61	15.588
2079.85	19.3701
2080.09	21.2624
2080.34	21.2622
2080.58	19.3704
2080.83	19.3692
2081.07	18.424
2081.32	20.3133
2081.56	19.3683
2081.8	19.3699
2082.05	20.3164
2082.29	20.3175
2082.54	21.2629
2082.78	19.3725
2083.02	21.2616
2083.27	18.4262
2083.51	20.3163
2083.76	18.4266
2084	20.3164
2084.24	21.2619
2084.49	22.2076
2084.73	20.3177
2084.98	19.3729
2085.22	19.3729
2085.47	21.2654
2085.71	21.2714
2085.95	18.4413
2086.2	19.3909
2086.44	17.5009
2086.69	21.2879
2086.93	19.399
2087.17	18.4541
2087.42	19.4007
2087.66	21.2939
2087.9	19.4018
2088.15	20.3493
2088.39	18.4574
2088.64	16.5652
2088.88	18.4618
2089.12	22.2526
2089.37	19.4177
2089.61	18.4715
2089.85	21.3145
2090.1	22.2636
2090.34	21.3184
2090.59	25.1113
2090.83	19.428
2091.07	19.4302
2091.32	19.436
2091.56	19.4418
2091.8	20.397
2092.05	21.3528
2092.29	19.4617
2092.54	22.3157
2092.78	20.4218
2093.02	23.2775
2093.27	20.4323
2093.51	17.5849
2093.75	21.3909
2094	18.5397
2094.24	24.244
2094.49	23.2921
2094.73	20.4383
2094.97	20.4348
2095.22	21.3815
2095.46	21.3786
2095.7	22.3264
2095.95	20.4249
2096.19	19.4742
2096.43	22.3229
2096.68	20.4201
2096.92	23.2648
2097.16	18.5136
2097.41	20.4109
2097.65	19.4606
2097.89	20.4085
2098.14	19.457
2098.38	22.3044
2098.62	22.3038
2098.87	19.4554
2099.11	21.3527
2099.36	19.4545
2099.6	19.4548
2099.84	21.3537
2100.08	22.3041
2100.33	25.1548
2100.57	19.4642
2100.81	19.4679
2101.06	21.3698
2101.3	21.371
2101.54	19.4713
2101.79	17.5714
2102.03	17.5714
2102.28	19.4696
2102.52	17.567
2102.76	22.3106
2103	23.258
2103.25	23.2571
2103.49	20.4085
2103.73	24.2061
2103.98	17.5632
2104.22	18.5155
2104.46	21.3673
2104.71	22.3203
2104.95	20.4246
2105.19	19.4792
2105.44	20.433
2105.68	20.4354
2105.92	19.4869
2106.17	22.3397
2106.41	20.4396
2106.65	20.4417
2106.89	20.4419
2107.14	22.3407
2107.38	20.4352
2107.62	20.4297
2107.87	21.3741
2108.11	20.4186
2108.35	18.5157
2108.59	21.3629
2108.84	20.4149
2109.08	20.4212
2109.32	20.4242
2109.57	21.3745
2109.81	21.3746
2110.05	21.3746
2110.3	22.3246
2110.54	20.4248
2110.78	20.4246
2111.02	22.3227
2111.27	18.5204
2111.51	21.3679
2111.75	19.4674
2112	22.3166
2112.24	19.47
2112.48	22.3215
2112.72	21.3745
2112.97	18.5297
2113.21	19.4836
2113.45	20.4358
2113.7	21.3845
2113.94	22.3331
2114.18	20.4323
2114.42	21.3839
2114.67	17.5827
2114.91	21.3829
2115.15	18.5303
2115.39	22.3297
2115.64	21.3777
2115.88	22.3228
2116.12	21.369
2116.36	21.3674
2116.61	20.4168
2116.85	20.416
2117.09	22.3166
2117.34	19.4651
2117.58	19.462
2117.82	20.4079
2118.06	18.5043
2118.3	21.3448
2118.55	19.4432
2118.79	19.4391
2119.03	17.5389
2119.28	22.2746
2119.52	21.323
2119.76	21.3201
2120	18.4768
2120.24	19.4253
2120.49	19.4286
2120.73	19.4307
2120.97	18.4873
2121.22	18.4919
2121.46	20.3931
2121.7	18.5
2121.94	20.4013
2122.18	19.4554
2122.43	20.4072
2122.67	22.3081
2122.91	18.5125
2123.15	20.4117
2123.4	19.4607
2123.64	21.3568
2123.88	18.5058
2124.12	20.3981
2124.36	21.338
2124.61	21.3279
2124.85	25.1087
2125.09	21.3115
2125.33	19.4112
2125.58	20.3522
2125.82	19.4007
2126.06	22.2351
2126.3	17.5005
2126.55	21.2797
2126.79	20.3301
2127.03	21.274
2127.27	20.3276
2127.51	24.1077
2127.76	18.4334
2128	21.2683
2128.24	17.4875
2128.48	21.2686
2128.72	15.5962
2128.97	24.1013
2129.21	18.4293
2129.45	19.3736
2129.69	22.2076
2129.93	19.3715
2130.18	23.1494
2130.42	19.368
2130.66	20.3102
2130.9	22.1962
2131.14	18.4153
2131.39	19.357
2131.63	21.2436
2131.87	21.2409
2132.11	18.405
2132.35	19.3455
2132.6	20.2875
2132.84	17.4567
2133.08	18.4012
2133.32	18.4019
2133.56	21.2332
2133.81	16.5157
2134.05	20.2911
2134.29	19.3468
2134.53	22.1774
2134.77	19.3458
2135.01	20.2884
2135.26	23.1168
2135.5	21.2258
2135.74	20.2756
2135.98	22.1556
2136.22	21.2102
2136.47	17.4408
2136.71	19.3268
2136.95	22.1558
2137.19	21.2157
2137.43	19.3344
2137.67	19.3315
2137.91	20.2686
2138.16	24.0348
2138.4	23.0984
2138.64	19.3335
2138.88	20.2811
2139.12	20.2679
2139.37	18.3771
2139.61	20.2586
2139.85	21.1976
2140.09	19.311
2140.33	21.1928
2140.57	20.2494
2140.81	18.3643
2141.06	20.2486
2141.3	17.4188
2141.54	22.1218
2141.78	22.1204
2142.02	21.1794
2142.26	20.2428
2142.51	22.1291
2142.75	20.2652
2142.99	23.0777
2143.23	20.1941
2143.47	22.084
2143.71	20.2069
2143.95	19.2748
2144.19	23.0435
2144.44	18.3439
2144.68	22.0918
2144.92	18.335
2145.16	20.2161
2145.4	20.2147
2145.64	18.3327
2145.88	22.0914
2146.13	19.2697
2146.37	21.148
2146.61	20.206
2146.85	19.2634
2147.09	19.2608
2147.33	20.1979
2147.57	20.1959
2147.81	19.2543
2148.06	18.3129
2148.3	16.4324
2148.54	21.124
2148.78	21.1195
2149.02	18.2988
2149.26	19.2296
2149.5	22.9762
2149.74	21.095
2149.98	20.1537
2150.22	19.2146
2150.47	21.0891
2150.71	18.2791
2150.95	20.1571
2151.19	18.2841
2151.43	22.9757
2151.67	18.2884
2151.91	19.2282
2152.15	19.2253
2152.4	18.2848
2152.64	20.1565
2152.88	20.1534
2153.12	20.1517
2153.36	18.2753
2153.6	19.209
2153.84	19.204
2154.08	22.9428
2154.32	19.189
2154.56	20.1167
2154.8	21.0433
2155.05	20.1016
2155.29	21.0303
2155.53	20.0907
2155.77	19.1528
2156.01	19.151
2156.25	17.2819
2156.49	21.0181
2156.73	18.216
2156.97	19.1518
2157.21	21.9578
2157.45	21.0275
2157.69	17.2917
2157.94	19.1618
2158.18	18.2269
2158.42	21.03
2158.66	19.1589
2158.9	21.0253
2159.14	20.0875
2159.38	19.1492
2159.62	20.0782
2159.86	22.8742
2160.1	20.0688
2160.34	21.9316
2160.58	20.0632
2160.82	21.9283
2161.06	20.06
2161.3	18.1924
2161.54	20.0577
2161.79	19.1248
2162.03	17.2591
2162.27	20.9903
2162.51	19.1226
2162.75	20.9855
2162.99	18.1855
2163.23	20.0486
2163.47	18.1816
2163.71	20.044
2163.95	20.9712
2164.19	18.1705
2164.43	21.8945
2164.67	18.1693
2164.91	21.8981
2165.15	20.9665
2165.39	18.1713
2165.63	17.2397
2165.87	18.169
2166.12	19.0988
2166.35	19.0958
2166.6	21.8858
2166.84	20.9515
2167.08	20.9464
2167.32	15.3559
2167.56	19.0687
2167.8	18.1305
2168.04	16.2692
2168.28	18.1284
2168.52	19.0594
2168.76	19.9921
2169	20.9265
2169.24	18.1417
2169.48	17.2176
2169.72	20.0173
2169.96	15.3654
2170.2	21.8855
2170.44	18.1587
2170.68	14.4311
2170.92	19.0841
2171.16	20.9365
2171.4	18.1326
2171.64	17.1968
2171.88	19.0524
2172.12	18.12
2172.36	18.1178
2172.6	19.0464
2172.84	19.9752
2173.08	20.9043
2173.32	19.9769
2173.56	16.2623
2173.8	19.0519
2174.04	17.1939
2174.28	21.8412
2174.52	19.0528
2174.76	18.123
2175	19.9805
2175.24	13.4744
2175.48	20.9078
2175.72	19.9775
2175.96	18.1174
2176.2	19.9728
2176.44	19.0428
2176.68	16.2562
2176.92	19.9724
2177.16	18.1148
2177.4	19.0436
2177.64	19.973
2177.88	15.3263
2178.12	18.1081
2178.36	18.1049
2178.6	20.89
2178.84	19.9624
2179.08	19.9627
2179.32	20.8915
2179.56	19.0344
2179.8	18.1058
2180.04	20.8906
2180.28	19.0324
2180.52	20.8881
2180.76	16.2458
2181	20.886
2181.24	19.9553
2181.48	17.1692
2181.72	21.808
2181.96	19.9495
2182.2	16.2366
2182.44	19.9456
2182.68	19.0142
2182.92	17.155
2183.16	21.7853
2183.4	18.0735
2183.63	18.0706
2183.87	18.9948
2184.11	21.7738
2184.35	19.9217
2184.59	18.0703
2184.83	16.2182
2185.07	19.0001
2185.31	17.1487
2185.55	18.0789
2185.79	19.9366
2186.03	20.8681
2186.27	19.0188
2186.51	18.0965
2186.75	16.2454
2186.99	19.9645
2187.23	18.111
2187.47	17.1828
2187.71	18.1095
2187.95	20.8919
2188.18	18.1028
2188.43	18.0988
2188.66	18.0944
2188.9	19.017
2189.14	19.9379
2189.38	19.0058
2189.62	16.2224
2189.86	20.857
2190.1	17.1494
2190.34	19.9327
2190.58	19.9338
2190.82	16.2254
2191.06	16.2265
2191.3	19.9372
2191.54	19.9391
2191.78	15.3035
2192.01	19.9426
2192.25	16.234
2192.49	19.0205
2192.73	19.9517
2192.97	18.0989
2193.21	18.1032
2193.45	20.8983
2193.69	21.8374
2193.93	19.0556
2194.17	20.9182
2194.41	17.1978
2194.64	19.9846
2194.88	18.1237
2195.12	15.3329
2195.36	19.0458
2195.6	19.0402
2195.84	15.3196
2196.08	16.243
2196.32	18.0951
2196.56	18.0917
2196.8	16.2335
2197.04	22.7236
2197.27	17.1593
2197.51	19.0147
2197.75	20.8726
2197.99	16.2385
2198.23	15.3145
2198.47	19.9615
2198.71	20.8974
2198.95	19.0453
2199.19	16.2639
2199.42	16.2693
2199.66	16.2778
2199.9	17.2173
2200.14	20.0185
2200.38	15.3694
2200.62	19.1007
2200.86	19.1055
2201.1	19.0956
2201.34	17.2136
2201.58	14.3891
2201.81	13.4435
2202.05	16.2402
2202.29	18.1278
2202.53	20.9297
2202.77	20.9241
2203.01	17.2006
2203.25	17.226
2203.49	20.0694
2203.72	17.2505
2203.96	19.1155
2204.2	16.3189
2204.44	14.4435
2204.68	18.1547
2204.92	20.0011
2205.16	16.2719
2205.39	17.1994
2205.63	19.9897
2205.87	14.4147
2206.11	18.1334
2206.35	17.1984
2206.59	19.9889
2206.83	16.2726
2207.06	20.926
2207.3	18.1398
2207.54	19.0743
2207.78	19.0784
2208.02	18.1516
2208.26	18.1549
2208.49	18.1575
2208.73	12.5719
2208.97	19.0919
2209.21	19.0919
2209.45	18.1602
2209.69	20.0239
2209.93	17.2323
2210.17	20.0297
2210.4	15.3743
2210.64	19.1045
2210.88	19.1075
2211.12	16.3142
2211.36	17.2505
2211.6	17.254
2211.83	16.324
2212.07	18.1906
2212.31	17.2566
2212.55	19.1202
2212.79	18.186
2213.02	17.2502
2213.26	19.1124
2213.5	18.1816
2213.74	18.1855
2213.98	20.06
2214.22	18.2001
2214.45	18.2021
2214.69	16.3367
2214.93	16.3378
2215.17	20.0731
2215.41	18.2064
2215.65	16.3392
2215.88	13.538
2216.12	19.1395
2216.36	17.2715
2216.6	15.4038
2216.84	18.2046
2217.07	16.3383
2217.31	18.2064
2217.55	18.2063
2217.79	17.2726
2218.03	16.3399
2218.26	18.2093
2218.5	17.2781
2218.74	17.2814
2218.98	18.219
2219.22	15.4177
2219.45	18.2235
2219.69	17.2906
2219.93	20.0938
2220.17	16.3549
2220.41	15.4198
2220.64	17.287
2220.88	16.3484
2221.12	16.3442
2221.36	17.2744
2221.6	18.2048
2221.83	15.4024
2222.07	16.3357
2222.31	20.0713
2222.55	19.1408
2222.78	19.1437
2223.02	19.1472
2223.26	18.2178
2223.5	16.3543
2223.74	17.2943
2223.97	17.2994
2224.21	18.2391
2224.45	19.1787
2224.69	19.183
2224.93	14.508
2225.16	18.2575
2225.4	19.1979
2225.64	16.3921
2225.88	16.3958
2226.11	18.2724
2226.35	17.3394
2226.59	19.2176
2226.83	16.408
2227.07	17.3478
2227.3	17.3489
2227.54	18.2861
2227.78	16.4094
2228.02	16.4083
2228.25	17.3448
2228.49	15.469
2228.73	17.3432
2228.96	16.4059
2229.2	19.2221
2229.44	15.4758
2229.68	16.4177
2229.92	16.4207
2230.15	16.424
2230.39	20.1824
2230.63	19.2479
2230.87	15.496
2231.1	14.5605
2231.34	16.4425
2231.58	17.3857
2231.82	19.2692
2232.05	16.4527
2232.29	18.3365
2232.53	20.2212
2232.77	18.3436
2233	17.4062
2233.24	17.4096
2233.48	19.2945
2233.71	16.4728
2233.95	18.3541
2234.19	17.4116
2234.43	15.5274
2234.66	18.3472
2234.9	18.3404
2235.14	19.2765
2235.38	12.6949
2235.61	18.338
2235.85	18.3392
2236.09	16.4593
2236.33	16.46
2236.56	16.4612
2236.8	15.5245
2237.04	16.4691
2237.27	17.4173
2237.51	17.4247
2237.75	19.3158
2237.98	18.3787
2238.22	18.3838
2238.46	15.5605
2238.7	12.7358
2238.93	18.3971
2239.17	16.5087
2239.41	17.4498
2239.65	16.5015
2239.88	20.2691
2240.12	16.4963
2240.36	16.5051
2240.59	17.4537
2240.83	18.3984
2241.07	17.4562
2241.3	19.345
2241.54	16.5151
2241.78	16.5168
2242.02	16.5187
2242.25	20.2972
2242.49	20.2973
2242.73	14.6325
2242.96	16.5182
2243.2	21.2347
2243.44	17.4585
2243.67	20.2893
2243.91	14.6278
2244.15	18.406
2244.38	14.6351
2244.62	18.4197
2244.86	16.5365
2245.09	19.3758
2245.33	16.5437
2245.57	18.4385
2245.81	16.5508
2246.04	15.6078
2246.28	19.3934
2246.52	13.7196
2246.75	17.507
2246.99	14.6696
2247.23	18.4561
2247.46	17.5095
2247.7	18.455
2247.94	18.454
2248.17	18.4529
2248.41	17.5058
2248.65	15.6125
2248.88	15.612
2249.12	17.5081
2249.36	18.4565
2249.59	16.5632
2249.83	17.5074
2250.07	16.5578
2250.3	16.5545
2250.54	18.442
2250.78	18.4389
2251.01	15.6
2251.25	14.654
2251.49	17.4912
2251.72	18.439
2251.96	16.5506
2252.2	16.5541
2252.43	15.6136
2252.67	12.782
2252.91	17.5226
2253.14	15.633
2253.38	16.5843
2253.61	16.5875
2253.85	18.487
2254.09	18.4895
2254.32	14.6969
2254.56	16.5916
2254.8	17.5411
2255.03	14.6966
2255.27	16.5938
2255.51	19.4394
2255.74	16.5978
2255.98	18.4983
2256.22	19.4505
2256.45	15.6579
2256.69	16.6098
2256.92	17.5619
2257.16	18.5142
2257.4	18.5163
2257.63	19.467
2257.87	17.5687
2258.11	17.57
2258.34	19.4716
2258.58	14.7247
2258.81	15.6772
2259.05	17.5791
2259.29	18.531
2259.52	15.6821
2259.76	17.5849
2260	15.6855
2260.23	19.49
2260.47	13.788
2260.7	15.6952
2260.94	16.6498
2261.18	16.6505
2261.41	15.7002
2261.65	15.7016
2261.88	18.5582
2262.12	18.5611
2262.36	18.5653
2262.59	19.5219
2262.83	17.6222
2263.06	15.7222
2263.3	18.5875
2263.54	17.6415
2263.77	16.6944
2264.01	16.7002
2264.24	14.796
2264.48	16.7093
2264.72	18.6229
2264.95	18.6261
2265.19	17.6716
2265.42	15.7618
2265.66	17.6708
2265.9	17.6669
2266.13	15.7533
2266.37	16.7041
2266.6	17.6549
2266.84	18.6062
2267.08	19.5576
2267.31	16.6928
2267.55	18.5967
2267.78	15.7332
2268.02	19.5465
2268.26	19.5474
2268.49	19.5504
2268.73	18.6009
2268.96	13.8353
2269.2	19.566
2269.43	18.6175
2269.67	16.7139
2269.91	17.6745
2270.14	14.8112
2270.38	19.5919
2270.61	16.7285
2270.85	16.7316
2271.08	19.6025
2271.32	14.8237
2271.55	15.7831
2271.79	16.7413
2272.03	17.6985
2272.26	17.6995
2272.5	16.7438
2272.73	16.7449
2272.97	17.7028
2273.2	16.747
2273.44	17.705
2273.68	15.7919
2273.91	17.707
2274.15	17.7081
2274.38	17.7092
2274.62	15.7959
2274.85	17.7118
2275.09	15.7979
2275.32	15.7978
2275.56	15.8004
2275.79	19.6357
2276.03	15.8084
2276.27	18.6869
2276.5	17.7324
2276.74	16.778
2276.97	15.8247
2277.21	15.8308
2277.44	15.8373
2277.68	14.8835
2277.91	16.8065
2278.15	16.8078
2278.38	16.8081
2278.62	14.8867
2278.85	19.6875
2279.09	15.8428
2279.33	14.8762
2279.56	15.8314
2279.8	15.8273
2280.03	16.7827
2280.27	19.6562
2280.5	18.6948
2280.74	17.7344
2280.97	14.8567
2281.21	16.7726
2281.44	17.7331
2281.68	13.9001
2281.91	15.8198
2282.15	16.7822
2282.38	17.7454
2282.62	18.7092
2282.85	17.7552
2283.09	15.8422
2283.32	18.7315
2283.56	19.7008
2283.79	17.787
2284.03	17.7916
2284.26	15.8704
2284.5	16.8363
2284.73	15.8777
2284.97	14.9167
2285.2	17.804
2285.44	14.9133
2285.67	15.8701
2285.91	16.8317
2286.14	17.795
2286.38	19.7229
2286.61	17.8072
2286.85	16.851
2287.08	17.8165
2287.32	19.7455
2287.55	19.7504
2287.79	15.8955
2288.02	16.8564
2288.26	16.8539
2288.49	14.925
2288.73	14.9203
2288.96	16.8394
2289.2	16.8335
2289.43	19.7117
2289.67	17.7862
2289.9	22.5914
2290.14	13.9395
2290.37	17.7855
2290.61	17.7885
2290.84	15.87
2291.08	14.9131
2291.31	14.9165
2291.55	16.8443
2291.78	15.8847
2292.02	13.9621
2292.25	17.8181
2292.48	14.9321
2292.72	17.8254
2292.95	14.9371
2293.19	15.9027
2293.42	17.8312
2293.66	16.8661
2293.89	16.8642
2294.13	16.8616
2294.36	14.9318
2294.6	17.8194
2294.83	15.8909
2295.07	18.7775
2295.3	16.8494
2295.54	19.7357
2295.77	15.8806
2296.01	17.7989
2296.24	14.9121
2296.47	17.8
2296.71	17.8027
2296.94	16.8437
2297.18	16.8477
2297.41	17.8159
2297.65	16.8586
2297.88	16.8623
2298.11	15.9012
2298.35	18.7963
2298.58	14.9446
2298.82	18.8055
2299.05	16.8798
2299.29	17.8459
2299.52	16.8813
2299.76	18.8106
2299.99	16.8812
2300.23	15.9187
2300.46	16.8864
2300.69	17.8538
2300.93	14.9603
2301.16	14.9614
2301.4	16.8923
2301.63	14.9613
2301.87	15.9252
2302.1	14.9593
2302.33	15.9248
2302.57	13.9942
2302.8	14.9587
2303.04	17.8537
2303.27	18.8194
2303.5	16.8911
2303.74	17.8596
2303.97	15.9314
2304.21	17.8646
2304.44	15.9358
2304.68	18.8369
2304.91	14.0085
2305.14	16.9078
2305.38	14.0106
2305.61	14.979
2305.85	14.0143
2306.08	19.8143
2306.31	16.915
2306.55	17.8815
2306.78	18.8475
2307.02	15.9464
2307.25	14.9782
2307.48	15.9435
2307.72	15.942
2307.95	17.8731
2308.19	15.9409
2308.42	14.9758
2308.65	15.9445
2308.89	13.0479
2309.12	15.9518
2309.36	16.9239
2309.59	17.8948
2309.82	18.8639
2310.06	14.9949
2310.29	15.9618
2310.53	20.7965
2310.76	18.8573
2310.99	14.98
2311.23	17.8685
2311.46	17.8623
2311.7	16.8929
2311.93	14.96
2312.16	14.9575
2312.4	15.9206
2312.63	18.8153
2312.86	14.9577
2313.1	13.9974
2313.33	16.9
2313.56	16.9051
2313.8	15.9439
2314.03	15.9489
2314.27	15.9553
2314.5	16.9278
2314.73	16.9308
2314.97	17.8928
2315.2	15.9548
2315.43	16.9184
2315.67	16.9138
2315.9	14.0062
2316.14	17.8656
2316.37	16.8977
2316.6	16.8976
2316.84	17.8643
2317.07	15.934
2317.3	14.9727
2317.54	16.9076
2317.77	16.9011
2318	15.9332
2318.24	16.8966
2318.47	13.9979
2318.71	14.9608
2318.94	15.9237
2319.17	15.9221
2319.41	16.886
2319.64	17.8512
2319.87	15.9218
2320.11	16.8867
2320.34	15.9236
2320.57	17.8565
2320.81	15.9289
2321.04	15.932
2321.27	15.9356
2321.51	17.8725
2321.74	16.9119
2321.97	18.8497
2322.21	17.8847
2322.44	15.9504
2322.67	16.9182
2322.91	14.9859
2323.14	17.8875
2323.37	14.021
2323.61	19.8235
2323.84	14.9878
2324.07	16.921
2324.31	20.7833
2324.54	19.8105
2324.77	18.8374
2325.01	15.9358
2325.24	17.864
2325.47	17.8605
2325.71	17.8568
2325.94	17.853
2326.17	22.6733
2326.41	18.81
2326.64	18.8059
2326.87	21.6943
2327.1	27.4756
2327.34	24.5793
2327.57	36.1422
2327.8	43.8555
2328.04	40.0003
2328.27	50.6044
2328.5	35.1744
2328.74	35.1679
2328.97	27.4523
2329.2	23.5976
2329.44	21.6704
2329.67	25.5268
2329.9	21.6718
2330.13	20.7071
2330.37	24.5573
2330.6	18.7786
2330.83	19.7432
2331.07	16.8567
2331.3	14.9327
2331.53	16.8639
2331.77	19.7485
2332	17.8186
2332.23	15.89
2332.47	16.8508
2332.7	17.8114
2332.93	15.8839
2333.16	16.8448
2333.4	17.8057
2333.63	16.8409
2333.86	18.7624
2334.09	16.8336
2334.33	16.8313
2334.56	15.8679
2334.79	15.8675
2335.02	16.8283
2335.26	14.9058
2335.49	15.8687
2335.72	14.9064
2335.96	16.828
2336.19	14.9039
2336.42	16.8264
2336.66	14.9028
2336.89	15.8636
2337.12	14.9016
2337.35	16.8229
2337.59	16.8218
2337.82	12.0151
2338.05	15.8592
2338.28	15.8588
2338.52	13.9372
2338.75	19.7049
2338.98	15.86
2339.21	16.8207
2339.45	12.9749
2339.68	18.7392
2339.91	15.8536
2340.14	13.9296
2340.38	15.8474
2340.61	12.9624
2340.84	16.7976
2341.07	16.7912
2341.31	15.8273
2341.54	20.6199
2341.77	15.8219
2342	16.7783
2342.24	16.7766
2342.47	17.7343
2342.7	17.734
2342.93	20.6102
2343.17	15.8163
2343.4	14.8572
2343.63	13.899
2343.86	15.8173
2344.1	16.7766
2344.33	13.9002
2344.56	15.8165
2344.79	15.8148
2345.02	14.8539
2345.26	16.7661
2345.49	17.721
2345.72	16.76
2345.95	13.886
2346.19	17.7157
2346.42	14.8422
2346.65	14.8409
2346.88	16.7546
2347.12	16.7544
2347.35	12.9252
2347.58	16.7458
2347.81	12.9587
2348.04	15.797
2348.28	15.7731
2348.51	13.0926
2348.74	19.3703
2348.97	15.7237
2349.2	16.815
2349.44	15.1053
2349.67	14.1051
2349.9	18.3716
2350.13	16.5236
2350.37	15.5727
2350.6	13.9609
2350.83	16.6371
2351.06	13.4597
2351.29	15.7636
2351.53	15.968
2351.76	15.023
2351.99	17.2958
2352.22	18.1816
2352.45	15.6982
2352.69	15.8672
2352.92	13.4124
2353.15	14.0884
2353.38	16.2451
2353.61	16.8066
2353.85	14.3738
2354.08	17.5629
2354.31	15.3234
2354.54	16.737
2354.77	17.429
2355.01	15.7202
2355.24	16.1362
2355.47	15.7598
2355.7	17.1713
2355.93	17.9178
2356.17	15.1335
2356.4	15.8306
2356.63	17.8839
2356.86	15.2613
2357.09	17.4342
2357.32	15.3791
2357.56	14.5468
2357.79	14.731
2358.02	15.0808
2358.25	17.2157
2358.48	16.0928
2358.71	16.701
2358.95	15.1784
2359.18	17.458
2359.41	15.5857
2359.64	15.6297
2359.87	14.8554
2360.1	16.2951
2360.34	15.2873
2360.57	13.8755
2360.8	16.0669
2361.03	15.8879
2361.26	15.3921
2361.49	13.1926
2361.73	15.6461
2361.96	15.283
2362.19	14.0299
2362.42	13.1466
2362.65	14.4619
2362.88	15.8418
2363.11	15.3538
2363.35	16.2741
2363.58	17.0338
2363.81	16.7823
2364.04	13.6793
2364.27	15.8746
2364.5	12.9466
2364.73	15.0264
2364.97	14.9348
2365.2	13.9861
2365.43	14.5065
2365.66	13.9762
2365.89	15.2625
2366.12	14.9186
2366.36	17.3345
2366.59	15.7311
2366.82	15.5767
2367.05	14.5692
2367.28	15.1301
2367.51	15.6568
2367.74	15.0114
2367.97	14.5481
2368.2	15.2157
2368.44	14.9642
2368.67	15.8402
2368.9	15.8952
2368.98	15.5721
2369.22	15.5686
2369.45	12.7349
2369.69	13.6748
2369.92	17.4427
2370.15	18.3814
2370.39	14.6082
2370.62	14.6053
2370.86	13.6606
2371.09	17.4266
2371.33	16.483
2371.56	14.5976
2371.79	15.5366
2372.03	14.5926
2372.26	13.6488
2372.5	16.4702
2372.73	14.5865
2372.97	13.6447
2373.2	16.4668
2373.43	15.5234
2373.67	17.401
2373.9	12.6956
2374.14	16.4546
2374.37	14.5715
2374.6	13.6289
2374.84	16.4451
2375.07	14.5628
2375.31	17.3794
2375.54	15.4994
2375.77	14.5591
2376.01	13.6186
2376.24	14.555
2376.48	19.2468
2376.71	16.4287
2376.94	15.4887
2377.18	16.4257
2377.41	15.4845
2377.65	16.4194
2377.88	15.4788
2378.11	15.4758
2378.35	14.5349
2378.58	16.4069
2378.82	13.5908
2379.05	13.586
2379.28	14.518
2379.52	15.4512
2379.75	15.4494
2379.98	16.3844
2380.22	14.5107
2380.45	15.4459
2380.69	13.573
2380.92	16.3809
2381.15	14.509
2381.39	15.4458
2381.62	15.4456
2381.85	17.3164
2382.09	15.4439
2382.32	15.4431
2382.56	16.3776
2382.79	14.5048
2383.02	16.3758
2383.26	14.5038
2383.49	15.439
2383.72	16.3745
2383.96	16.3747
2384.19	14.5028
2384.42	13.5662
2384.66	12.6297
2384.89	12.6279
2385.13	12.6257
2385.36	14.4934
2385.59	14.4895
2385.83	14.4855
2386.06	16.3509
2386.29	20.082
2386.53	17.2742
2386.76	14.4689
2386.99	15.397
2387.23	16.3258
2387.46	15.3918
2387.69	15.3921
2387.93	16.3251
2388.16	13.5262
2388.4	13.5254
2388.63	17.2549
2388.86	15.3878
2389.1	15.3875
2389.33	15.3868
2389.56	12.5886
2389.8	13.5209
2390.03	16.3183
2390.26	13.5213
2390.5	14.4547
2390.73	15.3884
2390.96	16.3218
2391.2	17.2549
2391.43	13.5238
2391.66	13.5229
2391.9	16.3193
2392.13	13.5205
2392.36	17.2481
2392.59	18.1736
2392.83	10.7139
2393.06	17.2291
2393.3	12.5673
2393.53	17.2173
2393.76	16.2835
2394	12.5606
2394.23	15.3478
2394.46	11.624
2394.69	16.2747
2394.93	16.2777
2395.16	14.4226
2395.39	16.3159
2395.63	14.4538
2395.86	14.4532
2396.09	17.2634
2396.33	16.338
2396.56	16.3257
2396.79	14.4569
2397.02	15.3884
2397.26	13.5231
2397.49	17.2541
2397.73	15.389
2397.96	15.3882
2398.19	14.4551
2398.42	14.455
2398.66	19.1176
2398.89	12.5894
2399.12	13.5226
2399.36	13.5228
2399.59	13.5231
2399.82	12.5903
