#Acq. time (s)=	60
#Accumulations=	2
#Range (cm-¹)=	100...4000
#Windows=	1
#Auto scanning=	Off
#Autofocus=	Off
#Macrospot=	Off
#AutoExposure=	Off
#Spike filter=	Multiple accum.
#Delay time (s)=	2
#Binning=	1
#Readout mode=	Signal
#DeNoise=	Off
#ICS correction=	On
#Dark correction=	Off
#Inst. Process=	Off
#Detector Gain=	Best Dynamic
#Detector ADC=	50 kHz HS
#Detector temperature (°C)=	-60.09
#Instrument=	LabRAM HR Evol
#Detector=	SIN-EM FIVIS
#Objective=	x100_VIS
#Grating=	150 (500nm)
#ND Filter=	100%
#Laser=	633nm_Edge
#Hole=	49.98
#Temperature=	0
#Range=	Visible
#StageXY=	75x50mm Scan+
#StageZ=	Z motor
#X (µm)=	0
#Y (µm)=	0
#Z (µm)=	-257.1
#Full time(mm:ss)=	2:04
#Project=	21_11_04
#Sample=	BU19w
#Site=	
#Title=	BU19w-E-FF11-FI03-V_150 (500nm)_633nm_Edge_100%_x100_VIS_H50um_60sX2
#Remark=	
#Date=	04.11.2021 16:50
#Acquired=	04.11.2021 16:50:57
102.881	379.931
106.139	363.885
109.397	347.848
112.653	343.249
115.908	330.993
119.161	329.194
122.414	336.965
125.664	329.42
128.914	378.313
132.162	376.481
135.409	392.802
138.654	419.598
141.898	388.027
145.14	385.202
148.383	414.908
151.622	471.451
154.861	561.588
158.098	586.64
161.335	544.66
164.569	438.449
167.801	338.852
171.034	307.257
174.264	255.486
177.494	255.441
180.721	237.163
183.949	242.787
187.173	206.261
190.396	218.527
193.62	207.84
196.84	222.015
200.061	225.724
203.279	217.122
206.496	229.506
209.712	230.412
212.926	262.795
216.139	280.87
219.352	348.51
222.562	456.133
225.772	611.253
228.979	709.815
232.185	727.429
235.392	601.516
238.595	452.941
241.797	354.871
244.999	339.632
248.199	342.424
251.397	353.714
254.595	386.811
257.791	383.86
260.985	372.393
264.178	360.939
267.371	340.023
270.561	347.587
273.75	338.093
276.939	378.875
280.125	374.103
283.31	332.319
286.494	328.451
289.678	299.917
292.859	302.629
296.039	302.5
299.217	299.536
302.396	344.809
305.572	398.53
308.746	501.353
311.919	642.827
315.093	922.998
318.263	1142.55
321.433	1172.5
324.601	994.946
327.768	755.169
330.935	571.17
334.099	461.706
337.262	399.406
340.423	397.475
343.584	381.394
346.743	393.555
349.902	433.049
353.058	444.208
356.213	444.021
359.367	437.226
362.52	405.96
365.671	354.03
368.821	301.219
371.971	269.132
375.119	249.265
378.265	234.123
381.41	220.873
384.553	230.189
387.696	207.711
390.837	208.734
393.976	210.741
397.116	214.67
400.253	217.753
403.389	217.989
406.524	235.186
409.657	247.699
412.789	243.193
415.92	270.749
419.05	294.596
422.178	307.974
425.305	350.529
428.431	352.111
431.555	375.311
434.678	348.471
437.8	372.539
440.921	360.796
444.04	400.735
447.158	426.443
450.275	444.54
453.391	448.589
456.505	398.498
459.618	359.807
462.73	309.163
465.84	281.049
468.949	253.899
472.057	257.555
475.164	250.1
478.27	262.249
481.374	252.953
484.477	247.372
487.579	254.839
490.679	256.723
493.778	275.401
496.876	293.133
499.973	313.681
503.068	350.129
506.162	351.147
509.255	383.897
512.346	394.308
515.436	372.064
518.525	404.049
521.613	377.26
524.7	373.858
527.785	377.059
530.869	362.513
533.952	342.349
537.033	327.776
540.113	299.908
543.192	292.662
546.27	257.987
549.347	260.902
552.423	262.903
555.497	245.057
558.568	221.428
561.64	232.623
564.711	219.244
567.78	216.195
570.848	236.619
573.915	216.54
576.979	214.306
580.043	233.619
583.107	254.806
586.169	250.748
589.228	278.47
592.287	276.418
595.345	279.996
598.402	286.47
601.458	285.653
604.511	307.309
607.565	314.083
610.617	335.872
613.667	310.049
616.716	309.557
619.764	302.503
622.811	261.65
625.856	247.997
628.9	239.817
631.944	219.246
634.986	207.048
638.026	214.562
641.066	209.744
644.104	229.316
647.14	212.199
650.177	218.613
653.211	215.541
656.244	205.874
659.276	193.422
662.308	171.643
665.336	170.493
668.365	160.02
671.393	138.458
674.418	131.952
677.443	130.095
680.467	131.954
683.489	127.332
686.511	121.8
689.53	125.643
692.549	135.134
695.567	129.671
698.582	135.439
701.598	129.014
704.611	133.836
707.624	134.885
710.635	139.66
713.646	132.087
716.655	131.104
719.662	111.329
722.669	124.455
725.674	125.327
728.679	119.592
731.681	130.731
734.683	124.996
737.683	124.882
740.683	128.512
743.681	111.597
746.678	119.921
749.673	123.578
752.669	133.801
755.661	128.168
758.654	140.318
761.645	132.964
764.635	117.239
767.623	121.146
770.611	131.624
773.597	118.682
776.582	125.416
779.565	122.732
782.549	119.073
785.53	111.619
788.511	138.073
791.489	127.763
794.466	124.967
797.444	123.088
800.419	129.663
803.394	130.554
806.366	117.293
809.339	135.115
812.309	129.36
815.278	130.172
818.247	139.416
821.214	134.564
824.18	125.033
827.145	127.681
830.108	141.576
833.072	136.862
836.033	130.332
838.992	140.675
841.952	141.753
844.909	143.746
847.865	140.131
850.822	159.054
853.776	144.211
856.728	163.21
859.681	165.315
862.631	179.692
865.58	192.22
868.528	205.725
871.476	204.066
874.422	207.072
877.366	228.042
880.311	229.09
883.253	223.462
886.194	227.277
889.134	225.358
892.074	226.252
895.012	217.639
897.948	229.808
900.883	212.522
903.818	215.102
906.751	224.281
909.683	208.893
912.614	234.989
915.543	226.227
918.473	217.586
921.4	238.136
924.326	251.252
927.251	251.279
930.174	279.639
933.098	299.561
936.019	344.157
938.94	350.393
941.859	422.841
944.777	440.661
947.693	479.49
950.61	494.712
953.525	485.172
956.438	495.557
959.35	488.664
962.261	481.673
965.171	514.752
968.08	533.491
970.988	604.901
973.894	699.269
976.801	775.189
979.705	848.797
982.608	855.954
985.51	819.859
988.411	752.158
991.311	644.348
994.209	593.088
997.107	561.065
1000	518.666
1002.9	518.345
1005.79	541.01
1008.68	549.5
1011.58	602.145
1014.47	655.88
1017.36	672.393
1020.25	651.751
1023.13	609.314
1026.02	543.991
1028.9	469.94
1031.79	422.581
1034.67	396.289
1037.55	389.206
1040.43	365.718
1043.31	356.626
1046.19	341.731
1049.07	301.527
1051.94	290.231
1054.82	284.695
1057.69	280.064
1060.56	276.325
1063.44	256.97
1066.31	274.406
1069.17	263.676
1072.04	265.58
1074.91	309.198
1077.77	349.832
1080.64	370.035
1083.5	429.967
1086.37	497.597
1089.23	602.084
1092.09	713.278
1094.95	727.595
1097.8	694.433
1100.66	630.353
1103.52	531.573
1106.37	454.361
1109.22	436.027
1112.08	374.321
1114.93	372.952
1117.78	352.228
1120.63	349.81
1123.48	333.651
1126.32	382.77
1129.17	388.138
1132.01	423.821
1134.86	478.202
1137.7	527.781
1140.54	568.701
1143.38	693.106
1146.22	793.872
1149.06	865.346
1151.89	768.361
1154.73	583.395
1157.56	423.833
1160.4	347.886
1163.23	289.556
1166.06	255.881
1168.89	234.057
1171.72	232.852
1174.55	206.174
1177.38	199.105
1180.2	196.974
1183.03	182.183
1185.85	182.133
1188.67	176.275
1191.49	149.922
1194.31	153.915
1197.13	152.061
1199.95	146.347
1202.77	114.217
1205.58	131.101
1208.4	123.476
1211.21	125.676
1214.02	127.911
1216.84	119.288
1219.65	120.559
1222.46	105.93
1225.27	113.166
1228.07	117.432
1230.88	117.691
1233.68	111.904
1236.49	109.092
1239.29	117.318
1242.09	110.401
1244.89	116.555
1247.69	111.58
1250.49	108.585
1253.29	116.697
1256.08	115.676
1258.88	125.729
1261.67	119.587
1264.47	116.479
1267.26	125.474
1270.05	150.549
1272.84	245.967
1275.63	248.721
1278.42	145.049
1281.2	118.819
1283.99	109.689
1286.77	124.613
1289.56	118.527
1292.34	118.466
1295.12	114.437
1297.9	112.427
1300.68	112.426
1303.46	101.466
1306.23	109.535
1309.01	108.639
1311.78	109.798
1314.56	106.957
1317.33	105.117
1320.1	101.268
1322.87	98.4254
1325.64	111.769
1328.41	101.86
1331.18	103.083
1333.94	102.254
1336.71	109.566
1339.47	99.5344
1342.24	89.4408
1345	98.7482
1347.76	95.773
1350.52	107.14
1353.28	114.413
1356.04	100.114
1358.79	109.411
1361.55	112.53
1364.3	108.432
1367.06	107.397
1369.81	123.821
1372.56	135.097
1375.31	233.683
1378.06	363.039
1380.81	209.972
1383.56	113.43
1386.3	108.271
1389.05	114.402
1391.79	107.217
1394.53	115.446
1397.28	114.508
1400.02	126.924
1402.76	115.697
1405.5	112.699
1408.23	96.3138
1410.97	96.4033
1413.71	113.016
1416.44	102.811
1419.17	98.7887
1421.91	95.7993
1424.64	106.292
1427.37	105.388
1430.1	98.2491
1432.83	108.785
1435.55	93.2878
1438.28	102.798
1441.01	103.961
1443.73	103.053
1446.45	101.081
1449.17	106.414
1451.89	102.286
1454.62	99.1885
1457.33	92.9182
1460.05	105.532
1462.77	104.483
1465.48	99.2233
1468.2	97.1085
1470.91	99.1944
1473.63	103.384
1476.34	107.586
1479.05	104.458
1481.76	108.681
1484.47	105.563
1487.17	94.05
1489.88	103.566
1492.59	105.743
1495.29	103.728
1497.99	97.4975
1500.7	91.2669
1503.4	95.5911
1506.1	105.221
1508.8	107.479
1511.5	97.0231
1514.19	99.2926
1516.89	95.1957
1519.59	101.747
1522.28	110.455
1524.97	108.514
1527.67	107.628
1530.36	101.383
1533.05	104.806
1535.74	113.607
1538.42	100.829
1541.11	102.047
1543.8	99.99
1546.48	102.207
1549.16	100.063
1551.85	104.377
1554.53	97.8351
1557.21	97.7644
1559.89	110.668
1562.57	110.617
1565.25	97.6174
1567.93	104.035
1570.6	103.978
1573.28	106.079
1575.95	110.343
1578.62	101.723
1581.29	108.184
1583.97	104.963
1586.64	110.365
1589.3	103.93
1591.97	109.355
1594.64	101.864
1597.3	100.852
1599.97	114.953
1602.63	105.33
1605.3	115.167
1607.96	106.645
1610.62	113.3
1613.28	106.971
1615.94	108.252
1618.59	104.1
1621.25	110.855
1623.91	106.689
1626.56	106.89
1629.21	99.4021
1631.87	102.882
1634.52	103.044
1637.17	108.699
1639.82	112.076
1642.47	105.522
1645.12	107.821
1647.76	109.004
1650.41	117.928
1653.05	105.804
1655.7	119.146
1658.34	115.849
1660.98	109.215
1663.62	113.666
1666.26	101.474
1668.9	115.895
1671.54	107.024
1674.18	107.024
1676.81	98.1394
1679.45	114.768
1682.08	112.521
1684.71	110.254
1687.34	114.634
1689.98	103.52
1692.61	110.139
1695.23	101.285
1697.86	114.607
1700.49	102.518
1703.12	102.782
1705.74	114.168
1708.36	116.65
1710.99	104.285
1713.61	103.127
1716.23	114.368
1718.85	123.507
1721.47	112.456
1724.09	111.408
1726.7	120.482
1729.32	118.365
1731.94	103.888
1734.55	112.987
1737.16	115.346
1739.77	113.204
1742.39	115.567
1745	116.806
1747.61	118.031
1750.21	115.852
1752.82	119.314
1755.43	118.246
1758.03	108.098
1760.64	110.38
1763.24	117.192
1765.84	114.952
1768.44	114.983
1771.05	113.885
1773.64	107.121
1776.24	116.242
1778.84	116.313
1781.44	119.806
1784.03	113.084
1786.63	125.697
1789.22	122.418
1791.81	117.994
1794.41	112.421
1797	112.555
1799.59	117.285
1802.18	116.3
1804.76	116.462
1807.35	122.358
1809.94	129.394
1812.52	116.867
1815.11	121.603
1817.69	109.045
1820.27	110.314
1822.85	126.627
1825.43	117.509
1828.01	122.281
1830.59	122.429
1833.17	117.927
1835.74	114.592
1838.32	114.717
1840.89	108.997
1843.47	116.096
1846.04	109.189
1848.61	118.627
1851.18	126.913
1853.75	121.129
1856.32	121.218
1858.89	120.147
1861.45	114.398
1864.02	112.159
1866.58	121.689
1869.15	121.808
1871.71	123.084
1874.27	113.737
1876.83	123.249
1879.39	119.782
1881.95	122.217
1884.51	116.369
1887.07	116.425
1889.63	121.176
1892.18	127.092
1894.74	106.995
1897.29	123.563
1899.84	120.054
1902.39	123.692
1904.94	128.549
1907.49	116.815
1910.04	124.089
1912.59	129.037
1915.14	122.111
1917.68	121.104
1920.23	123.541
1922.77	116.462
1925.32	120.163
1927.86	121.478
1930.4	129.982
1932.94	124.109
1935.48	123.016
1938.02	117.108
1940.56	118.393
1943.09	114.858
1945.63	129.361
1948.16	125.812
1950.7	119.835
1953.23	121.069
1955.76	127.118
1958.29	125.931
1960.82	129.561
1963.35	125.953
1965.88	115.106
1968.41	124.73
1970.93	116.265
1973.46	116.231
1975.98	114.995
1978.51	124.594
1981.03	126.965
1983.55	130.539
1986.07	124.493
1988.59	122.063
1991.11	126.85
1993.63	138.855
1996.15	124.418
1998.66	128.023
2001.18	123.222
2003.69	129.251
2006.2	134.095
2008.72	123.308
2011.23	130.581
2013.74	127.022
2016.25	122.256
2018.76	128.313
2021.27	133.174
2023.77	134.447
2026.28	120.051
2028.78	127.38
2031.29	132.32
2033.79	130.028
2036.29	124.098
2038.79	113.312
2041.3	138.9
2043.79	131.757
2046.29	133.116
2048.79	128.397
2051.29	130.973
2053.78	128.624
2056.28	133.628
2058.77	125.225
2061.27	124.141
2063.76	147.545
2066.25	139.134
2068.74	139.283
2071.23	134.516
2073.72	137.119
2076.21	145.876
2078.69	133.696
2081.18	138.753
2083.66	138.868
2086.15	146.38
2088.63	145.234
2091.11	131.745
2093.59	143.015
2096.07	139.458
2098.55	132.173
2101.03	150.969
2103.51	154.891
2105.99	137.654
2108.46	139.091
2110.94	151.784
2113.41	162.026
2115.89	145.988
2118.36	151.236
2120.83	147.697
2123.3	154.213
2125.77	150.656
2128.24	145.819
2130.71	149.808
2133.17	139.872
2135.64	155.248
2138.11	145.275
2140.57	144.165
2143.03	140.507
2145.49	144.464
2147.96	149.687
2150.42	149.797
2152.88	154.999
2155.34	137.219
2157.79	151.335
2160.25	137.345
2162.71	154.002
2165.16	146.365
2167.62	139.989
2170.07	141.295
2172.52	151.581
2174.97	150.359
2177.43	140.166
2179.88	146.582
2182.32	154.269
2184.77	146.57
2187.22	141.447
2189.67	145.304
2192.11	144.059
2194.56	155.626
2197	149.288
2199.44	140.4
2201.89	136.649
2204.33	139.327
2206.77	148.447
2209.21	151.167
2211.64	147.466
2214.08	142.471
2216.52	134.898
2218.95	141.531
2221.39	144.3
2223.82	144.484
2226.26	145.965
2228.69	144.852
2231.12	143.735
2233.55	146.523
2235.98	153.229
2238.41	157.339
2240.84	134.002
2243.26	151.19
2245.69	152.697
2248.12	126.645
2250.54	145.201
2252.96	144.063
2255.39	144.24
2257.81	143.11
2260.23	151.219
2262.65	146.11
2265.07	140.971
2267.49	153.03
2269.9	147.855
2272.32	141.331
2274.74	145.407
2277.15	137.521
2279.57	148.223
2281.98	148.274
2284.39	144.315
2286.8	146.992
2289.21	144.353
2291.62	157.677
2294.03	147.047
2296.44	152.399
2298.84	144.465
2301.25	157.846
2303.66	145.94
2306.06	156.72
2308.46	151.517
2310.87	159.687
2313.27	151.831
2315.67	154.689
2318.07	157.57
2320.47	169.854
2322.87	157.964
2325.26	151.445
2327.66	150.303
2330.06	150.511
2332.45	156.144
2334.85	138.782
2337.24	148.492
2339.63	150.084
2342.02	146.254
2344.41	146.506
2346.8	150.882
2349.19	159.354
2351.58	154.149
2353.97	155.771
2356.35	142.248
2358.74	152.073
2361.12	149.458
2363.51	149.613
2365.89	158.061
2368.27	147.178
2370.65	144.565
2373.03	141.941
2375.41	162.875
2377.79	145
2380.17	142.336
2382.55	153.55
2384.92	152.236
2387.3	150.913
2389.67	159.314
2392.05	155.17
2394.42	159.371
2396.79	141.277
2399.16	156.585
2401.53	148.237
2403.9	149.612
2406.27	155.164
2408.64	148.232
2411.01	158.083
2413.37	144.308
2415.74	154.361
2418.1	153.405
2420.47	156.538
2422.83	145.467
2425.19	144.14
2427.55	141.48
2429.91	161.393
2432.27	144.671
2434.63	149.121
2436.99	160.675
2439.34	160.918
2441.7	159.738
2444.05	152.864
2446.41	163.062
2448.76	167.587
2451.11	156.413
2453.47	152.349
2455.82	145.406
2458.17	162.836
2460.51	155.887
2462.86	171.942
2465.21	164.981
2467.56	169.534
2469.9	162.533
2472.25	164.183
2474.59	164.393
2476.94	155.91
2479.28	157.568
2481.62	149.04
2483.96	146.304
2486.3	161.031
2488.64	178.704
2490.98	161.362
2493.32	162.986
2495.65	180.723
2497.99	157.468
2500.32	163.485
2502.66	163.636
2504.99	175.53
2507.32	171.264
2509.66	153.739
2511.99	167.095
2514.32	161.308
2516.65	161.407
2518.98	168.9
2521.3	167.563
2523.63	172.13
2525.96	163.386
2528.28	175.348
2530.61	168.077
2532.93	165.259
2535.25	165.413
2537.57	175.969
2539.89	174.661
2542.22	159.96
2544.53	172.042
2546.85	155.834
2549.17	164.963
2551.49	175.607
2553.8	160.836
2556.12	175.964
2558.43	159.632
2560.75	177.806
2563.06	179.503
2565.37	175.212
2567.68	155.855
2569.99	174.154
2572.3	181.933
2574.61	165.536
2576.92	168.761
2579.23	188.642
2581.53	169.108
2583.84	166.197
2586.14	189.087
2588.45	166.398
2590.75	166.441
2593.05	169.566
2595.35	175.766
2597.66	178.962
2599.96	176.047
2602.26	177.688
2604.55	177.798
2606.85	182.481
2609.15	178
2611.44	176.538
2613.74	165.903
2616.03	184.323
2618.33	179.82
2620.62	179.895
2622.91	169.257
2625.2	189.272
2627.49	190.915
2629.78	175.722
2632.07	182.049
2634.36	183.798
2636.64	179.432
2638.93	179.719
2641.22	186.177
2643.5	184.927
2645.78	186.789
2648.07	187.079
2650.35	185.811
2652.63	195.448
2654.91	192.551
2657.19	180.243
2659.47	191.329
2661.75	191.478
2664.03	182.221
2666.3	199.541
2668.58	184.043
2670.85	181.072
2673.13	196.984
2675.4	183.138
2677.67	192.979
2679.95	177.69
2682.22	198.688
2684.49	184.857
2686.76	196.412
2689.03	190.473
2691.29	202.023
2693.56	199.202
2695.83	181.733
2698.09	193.13
2700.36	182.116
2702.62	191.944
2704.89	192.129
2707.15	193.921
2709.41	194.092
2711.67	192.645
2713.93	183.141
2716.19	180.134
2718.45	180.308
2720.7	199.908
2722.96	182.266
2725.22	198.608
2727.47	201.983
2729.73	200.473
2731.98	207.041
2734.23	189.265
2736.49	205.585
2738.74	202.395
2740.99	194.372
2743.24	191.233
2745.49	199.509
2747.73	209.447
2749.98	183.547
2752.23	201.822
2754.47	198.822
2756.72	208.858
2758.96	200.839
2761.21	184.568
2763.45	189.65
2765.69	191.479
2767.93	201.55
2770.17	183.61
2772.41	200.278
2774.65	197.21
2776.89	187.556
2779.13	196.088
2781.36	191.447
2783.6	203.388
2785.84	205.398
2788.07	190.748
2790.3	189.389
2792.54	196.372
2794.77	203.366
2797	212.019
2799.23	200.551
2801.46	180.631
2803.69	211.112
2805.92	191.124
2808.14	203.111
2810.37	206.676
2812.59	188.285
2814.82	195.185
2817.04	197.019
2819.27	197.17
2821.49	187.164
2823.71	195.797
2825.93	190.875
2828.15	185.935
2830.37	199.674
2832.59	204.922
2834.81	194.852
2837.03	193.287
2839.24	200.242
2841.46	193.566
2843.67	200.54
2845.89	207.551
2848.1	199.189
2850.31	207.942
2852.53	192.755
2854.74	192.993
2856.95	198.39
2859.16	183.156
2861.37	212.677
2863.57	206.089
2865.78	202.958
2867.99	199.818
2870.19	191.465
2872.4	186.551
2874.6	207.697
2876.81	195.84
2879.01	180.469
2881.21	191.258
2883.41	196.846
2885.61	188.441
2887.81	199.308
2890.01	194.371
2892.21	187.647
2894.41	196.781
2896.6	207.753
2898.8	201.06
2901	196.102
2903.19	215.97
2905.38	180.695
2907.58	204.145
2909.77	202.655
2911.96	201.108
2914.15	206.701
2916.34	217.674
2918.53	207.173
2920.72	211.022
2922.91	182.515
2925.09	218.777
2927.28	186.635
2929.47	194.131
2931.65	212.509
2933.83	196.49
2936.02	207.6
2938.2	202.368
2940.38	204.37
2942.56	206.383
2944.74	202.923
2946.92	204.882
2949.1	205.025
2951.28	201.529
2953.46	216.276
2955.63	209.124
2957.81	200.129
2959.98	202.101
2962.16	204.085
2964.33	207.908
2966.5	202.587
2968.68	197.264
2970.85	212.139
2973.02	210.499
2975.19	207.018
2977.36	223.789
2979.52	211.093
2981.69	215.002
2983.86	218.949
2986.03	209.97
2988.19	219.506
2990.36	221.659
2992.52	236.837
2994.68	201.823
2996.85	207.712
2999.01	217.363
3001.17	240.137
3003.33	216.204
3005.49	220.325
3007.65	230.087
3009.8	226.703
3011.96	232.689
3014.12	229.3
3016.27	227.812
3018.43	241.485
3020.58	236.233
3022.74	225.233
3024.89	221.776
3027.04	235.426
3029.19	239.55
3031.34	258.955
3033.49	242.021
3035.64	238.426
3037.79	238.62
3039.94	250.406
3042.09	250.666
3044.23	243.206
3046.38	256.89
3048.52	253.26
3050.67	245.764
3052.81	265.262
3054.95	251.988
3057.09	263.819
3059.24	271.79
3061.38	277.837
3063.51	254.826
3065.65	278.327
3067.79	282.452
3069.93	267.155
3072.07	282.946
3074.2	277.365
3076.34	279.571
3078.47	279.833
3080.61	280.093
3082.74	288.166
3084.87	294.351
3087	273.153
3089.14	285.275
3091.27	291.571
3093.39	307.744
3095.52	316.127
3097.65	314.671
3099.78	307.277
3101.91	305.816
3104.03	316.276
3106.16	322.823
3108.28	313.482
3110.41	330.05
3112.53	344.699
3114.65	331.349
3116.77	329.996
3118.89	344.715
3121.01	357.521
3123.13	330.025
3125.25	342.888
3127.37	341.638
3129.49	360.733
3131.61	355.512
3133.72	335.959
3135.84	371.575
3137.95	356.037
3140.06	356.841
3142.18	361.739
3144.29	368.685
3146.4	354.933
3148.51	376.366
3150.62	374.962
3152.73	398.435
3154.84	376.119
3156.95	382.932
3159.06	393.944
3161.16	400.809
3163.27	422.371
3165.37	383.076
3167.48	406.699
3169.58	392.473
3171.69	433.105
3173.79	404.126
3175.89	404.545
3177.99	396.452
3180.09	407.35
3182.19	407.642
3184.29	412.15
3186.39	378.481
3188.49	433.782
3190.58	400.114
3192.68	419.563
3194.77	394.415
3196.87	411.877
3198.96	395.403
3201.06	396.124
3203.15	398.958
3205.24	416.827
3207.33	415.516
3209.42	399.133
3211.51	384.851
3213.6	383.498
3215.69	403.831
3217.78	380.821
3219.86	379.406
3221.95	371.451
3224.04	372.19
3226.12	375.136
3228.2	358.349
3230.29	365.623
3232.37	348.743
3234.45	369.196
3236.53	361.007
3238.61	355.045
3240.7	355.761
3242.77	329.834
3244.85	328.363
3246.93	337.916
3249.01	313.977
3251.08	287.588
3253.16	310.409
3255.23	317.505
3257.31	299.894
3259.38	289.12
3261.46	314.388
3263.53	310.431
3265.6	286.179
3267.67	291.597
3269.74	294.338
3271.81	295.065
3273.88	293.267
3275.95	291.262
3278.02	291.568
3280.08	271.263
3282.15	289.871
3284.21	276.403
3286.28	281.274
3288.34	290.744
3290.41	286.42
3292.47	286.68
3294.53	275.407
3296.59	261.804
3298.65	262.043
3300.71	278.518
3302.77	267.217
3304.83	267.481
3306.89	300.199
3308.95	270.319
3311	282.172
3313.06	261.486
3315.11	278.022
3317.17	268.954
3319.22	285.546
3321.27	262.516
3323.33	279.194
3325.38	270.179
3327.43	263.515
3329.48	245.1
3331.53	266.66
3333.58	264.797
3335.63	286.484
3337.67	253.922
3339.72	249.541
3341.77	273.521
3343.81	257.21
3345.86	262.219
3347.9	243.418
3349.95	253.154
3351.99	289.066
3354.03	248.83
3356.07	246.721
3358.11	268.479
3360.15	266.387
3362.19	254.739
3364.23	266.986
3366.27	240.897
3368.31	236.353
3370.34	251.022
3372.38	248.86
3374.42	239.451
3376.45	254.086
3378.48	251.857
3380.52	225.504
3382.55	237.721
3384.58	237.873
3386.61	223.521
3388.64	245.412
3390.68	233.446
3392.7	223.887
3394.73	238.561
3396.76	229.041
3398.79	231.639
3400.82	248.784
3402.84	224.624
3404.87	212.58
3406.89	236.992
3408.92	229.81
3410.94	203.133
3412.96	222.682
3414.98	208.161
3417	249.653
3419.03	218.074
3421.05	240.089
3423.06	223.1
3425.08	218.303
3427.1	225.727
3429.12	220.968
3431.14	213.774
3433.15	209.027
3435.17	223.863
3437.18	214.253
3439.2	221.795
3441.21	212.183
3443.22	214.846
3445.23	224.922
3447.25	220.287
3449.26	200.848
3451.27	223.305
3453.28	228.555
3455.28	223.949
3457.29	206.97
3459.3	214.776
3461.31	225.101
3463.31	200.582
3465.32	213.417
3467.32	216.295
3469.33	201.633
3471.33	206.984
3473.33	217.275
3475.34	215.079
3477.34	210.368
3479.34	203.118
3481.34	198.367
3483.34	211.31
3485.34	209.078
3487.33	201.758
3489.33	214.74
3491.33	209.943
3493.32	205.122
3495.32	207.918
3497.32	203.045
3499.31	213.488
3501.3	223.936
3503.3	211.317
3505.29	219.186
3507.28	201.377
3509.27	209.173
3511.26	198.977
3513.25	209.315
3515.24	206.812
3517.23	209.442
3519.22	212.073
3521.2	219.846
3523.19	196.762
3525.18	204.554
3527.16	199.489
3529.15	209.83
3531.13	209.934
3533.11	210.099
3535.1	199.975
3537.08	189.863
3539.06	218.548
3541.04	200.657
3543.02	211.213
3545	213.989
3546.98	198.586
3548.96	196.13
3550.93	201.436
3552.91	201.449
3554.89	219.714
3556.86	217.219
3558.84	209.534
3560.81	204.459
3562.78	215.034
3564.76	220.424
3566.73	231.075
3568.7	226.125
3570.67	205.419
3572.64	221.346
3574.61	229.46
3576.58	216.611
3578.55	216.899
3580.52	211.94
3582.48	241.258
3584.45	209.932
3586.41	228.756
3588.38	226.444
3590.35	229.426
3592.31	200.541
3594.27	208.811
3596.23	211.779
3598.2	209.407
3600.16	215.015
3602.12	204.591
3604.08	210.203
3606.04	199.724
3608	218.729
3609.95	173.281
3611.91	219.172
3613.87	214.029
3615.83	195.367
3617.78	192.86
3619.74	201.122
3621.69	209.348
3623.64	190.513
3625.6	195.981
3627.55	212.27
3629.5	185.281
3631.45	212.36
3633.4	201.579
3635.35	204.349
3637.3	193.611
3639.25	191.023
3641.2	188.473
3643.15	202.226
3645.09	194.275
3647.04	194.512
3648.98	180.954
3650.93	191.931
3652.87	194.767
3654.82	181.231
3656.76	192.22
3658.7	189.577
3660.64	206.03
3662.58	178.802
3664.53	178.877
3666.47	200.826
3668.4	200.935
3670.34	184.621
3672.28	203.865
3674.22	212.22
3676.16	201.427
3678.09	190.639
3680.03	182.595
3681.96	171.806
3683.9	202.297
3685.83	188.796
3687.76	186.299
3689.69	197.617
3691.63	178.527
3693.56	189.848
3695.49	195.624
3697.42	198.67
3699.35	173.895
3701.28	176.921
3703.2	193.87
3705.13	194.136
3707.06	197.207
3708.98	169.471
3710.91	180.922
3712.83	175.551
3714.76	178.578
3716.68	178.78
3718.6	184.608
3720.53	187.618
3722.45	193.449
3724.37	190.798
3726.29	205.106
3728.21	199.621
3730.13	185.626
3732.05	188.643
3733.97	183.144
3735.88	186.162
3737.8	177.799
3739.72	177.955
3741.63	186.649
3743.55	195.356
3745.46	184.09
3747.38	184.221
3749.29	190.055
3751.2	204.46
3753.11	187.394
3755.02	187.472
3756.93	187.537
3758.84	187.591
3760.75	187.636
3762.66	181.951
3764.57	190.586
3766.48	190.629
3768.39	173.486
3770.29	187.898
3772.2	182.242
3774.1	176.579
3776.01	179.527
3777.91	179.619
3779.81	185.477
3781.72	199.991
3783.62	188.628
3785.52	197.424
3787.42	188.917
3789.32	186.157
3791.22	186.284
3793.12	203.774
3795.02	177.922
3796.92	198.37
3798.81	195.67
3800.71	184.266
3802.61	190.271
3804.5	170.126
3806.4	181.97
3808.29	179.266
3810.18	182.383
3812.08	200.099
3813.97	182.757
3815.86	177.084
3817.75	191.91
3819.64	180.364
3821.53	192.271
3823.42	183.623
3825.31	186.702
3827.2	189.793
3829.09	172.286
3830.97	178.344
3832.86	181.466
3834.75	184.586
3836.63	199.524
3838.52	178.977
3840.4	182.077
3842.28	182.302
3844.17	170.564
3846.05	167.686
3847.93	179.613
3849.81	179.675
3851.69	179.738
3853.57	182.746
3855.45	179.822
3857.33	182.811
3859.21	173.889
3861.08	191.746
3862.96	182.869
3864.84	185.967
3866.71	186.16
3868.59	165.527
3870.46	183.613
3872.34	174.705
3874.21	180.724
3876.08	180.782
3877.95	171.87
3879.82	192.854
3881.69	160.019
3883.56	175.042
3885.44	172.126
3887.3	184.188
3889.17	178.29
3891.04	172.396
3892.91	172.518
3894.77	163.678
3896.64	178.845
3898.51	194.021
3900.37	179.122
3902.23	161.185
3904.1	164.311
3905.96	182.536
3907.82	188.693
3909.69	170.702
3911.55	167.826
3913.41	177.046
3915.27	171.149
3917.13	183.45
3918.99	174.544
3920.84	183.875
3922.7	181.059
3924.56	178.223
3926.42	166.221
3928.27	196.929
3930.13	187.961
3931.98	182.014
3933.84	163.783
3935.69	170.03
3937.54	173.214
3939.4	173.357
3941.25	170.447
3943.1	161.406
3944.95	183.106
3946.8	183.28
3948.65	168.031
3950.5	183.591
3952.35	177.548
3954.19	159.127
3956.04	187.058
3957.89	174.788
3959.73	184.145
3961.58	171.833
3963.42	184.289
3965.27	156.461
3967.11	165.79
3968.96	175.105
3970.8	184.426
3972.64	153.456
3974.48	175.189
3976.32	200.027
3978.16	172.135
3980	184.544
3981.84	193.836
3983.68	172.118
3985.52	187.622
3987.36	162.805
3989.19	159.704
3991.03	175.23
3992.86	162.86
3994.7	178.423
3996.53	181.601
3998.37	156.843
