#Acq. time (s)=	60
#Accumulations=	2
#Range (cm-¹)=	1220...2360
#Windows=	3
#Auto scanning=	Off
#Autofocus=	Off
#Macrospot=	Off
#AutoExposure=	Off
#Spike filter=	Multiple accum.
#Delay time (s)=	2
#Binning=	1
#Readout mode=	Signal
#DeNoise=	Off
#ICS correction=	On
#Dark correction=	Off
#Inst. Process=	Off
#Detector Gain=	Best Dynamic
#Detector ADC=	50 kHz HS
#Detector temperature (°C)=	-60.09
#Instrument=	LabRAM HR Evol
#Detector=	SIN-EM FIVIS
#Objective=	x100_VIS_LWD
#Grating=	1800 (450-850nm)
#ND Filter=	100%
#Laser=	532nm_Edge
#Hole=	49.98
#Temperature=	0
#Range=	Visible
#StageXY=	75x50mm Scan+
#StageZ=	Z motor
#X (µm)=	0
#Y (µm)=	0
#Z (µm)=	-27
#Full time(mm:ss)=	6:18
#Project=	21_05_28
#Sample=	BU19w
#Site=	
#Title=	BU19w-FF07b-FI06-V_1800 (450-850nm)_532nm_Edge_100%_x100_VIS_LWD_H50um_60sX2
#Remark=	
#Date=	28.05.2021 16:25
#Acquired=	28.05.2021 16:25:46
1220.15	171.294
1220.43	170.234
1220.7	163.861
1220.98	156.42
1221.26	165.935
1221.54	148.943
1221.81	169.035
1222.09	159.434
1222.37	171.008
1222.64	159.281
1222.92	148.627
1223.2	160.19
1223.48	168.58
1223.75	170.634
1224.03	172.687
1224.31	173.702
1224.58	162.055
1224.86	176.813
1225.14	167.308
1225.41	165.219
1225.69	176.849
1225.97	166.313
1226.25	164.19
1226.52	189.518
1226.8	177.869
1227.08	187.338
1227.35	183.018
1227.63	194.43
1227.91	175.359
1228.19	189.993
1228.46	181.398
1228.74	193.877
1229.02	194.941
1229.29	196.476
1229.57	193.689
1229.85	219.87
1230.12	198.599
1230.4	229.078
1230.68	233.308
1230.95	228.936
1231.23	234.824
1231.51	231.711
1231.78	244.316
1232.06	253.763
1232.34	253.734
1232.61	274.74
1232.89	267.37
1233.17	289.405
1233.44	276.794
1233.72	270.506
1234	271.581
1234.27	288.421
1234.55	270.599
1234.83	260.132
1235.1	261.204
1235.38	249.665
1235.66	260.209
1235.93	247.612
1236.21	244.451
1236.49	247.574
1236.76	227.563
1237.04	233.816
1237.32	226.384
1237.59	221.052
1237.87	216.774
1238.15	209.35
1238.42	204.03
1238.7	220.755
1238.98	202.892
1239.25	215.445
1239.53	211.23
1239.81	201.783
1240.08	193.391
1240.36	211.21
1240.63	212.265
1240.91	205.986
1241.19	198.655
1241.46	201.779
1241.74	208.031
1242.01	206.96
1242.29	201.727
1242.57	216.41
1242.84	215.396
1243.12	207.035
1243.4	208.079
1243.67	212.276
1243.95	220.677
1244.23	228.01
1244.5	224.851
1244.78	212.25
1245.05	212.201
1245.33	237.292
1245.61	234.065
1245.88	247.599
1246.16	247.569
1246.43	243.362
1246.71	256.973
1246.99	251.732
1247.26	274.736
1247.54	278.919
1247.82	262.141
1248.09	269.36
1248.37	270.362
1248.64	283.946
1248.92	291.288
1249.19	290.263
1249.47	302.79
1249.75	319.516
1250.02	318.475
1250.3	326.766
1250.57	321.454
1250.85	323.474
1251.13	322.366
1251.4	324.4
1251.68	341.057
1251.95	335.772
1252.23	312.738
1252.51	289.711
1252.78	334.533
1253.06	308.381
1253.33	321.919
1253.61	301.054
1253.88	300.061
1254.16	293.855
1254.44	285.563
1254.71	298.115
1254.99	273.057
1255.26	263.678
1255.54	263.676
1255.81	266.798
1256.09	251.147
1256.36	245.947
1256.64	236.58
1256.92	229.278
1257.19	237.619
1257.47	225.055
1257.74	233.389
1258.02	217.709
1258.29	235.44
1258.57	236.452
1258.85	214.484
1259.12	199.871
1259.4	210.33
1259.67	193.669
1259.95	201.042
1260.22	205.168
1260.5	211.377
1260.77	201.913
1261.05	198.736
1261.32	198.705
1261.6	214.402
1261.88	214.6
1262.15	205.482
1262.43	231.685
1262.7	213.567
1262.98	223.739
1263.25	237.25
1263.53	244.781
1263.8	282.574
1264.08	258.808
1264.35	257.832
1264.63	247.228
1264.9	223.138
1265.18	215.824
1265.45	209.527
1265.73	202.181
1266	191.733
1266.28	188.614
1266.56	169.829
1266.83	166.725
1267.1	167.81
1267.38	164.718
1267.66	183.597
1267.93	183.659
1268.21	178.509
1268.48	169.142
1268.76	159.746
1269.03	173.392
1269.31	166.078
1269.58	183.874
1269.86	169.167
1270.13	168.067
1270.41	175.363
1270.68	154.385
1270.96	171.105
1271.23	164.817
1271.51	164.793
1271.78	177.368
1272.06	173.225
1272.33	162.805
1272.61	167.059
1272.88	153.48
1273.16	159.809
1273.43	173.478
1273.71	161.991
1273.98	154.692
1274.25	161.008
1274.53	169.405
1274.81	168.35
1275.08	152.619
1275.35	158.931
1275.63	158.958
1275.9	170.531
1276.18	153.776
1276.45	166.403
1276.73	160.133
1277	160.158
1277.28	170.702
1277.55	177.048
1277.83	166.58
1278.1	159.255
1278.38	155.081
1278.65	165.64
1278.93	176.186
1279.2	178.314
1279.47	179.355
1279.75	170.925
1280.02	190.889
1280.3	198.248
1280.57	194.056
1280.85	217.221
1281.12	225.696
1281.4	238.392
1281.67	283.68
1281.95	308.941
1282.22	396.352
1282.49	495.346
1282.77	603.666
1283.04	782.155
1283.32	1026.44
1283.59	1327.74
1283.87	1658.62
1284.14	1847.47
1284.42	1748.39
1284.69	1394.65
1284.96	937.21
1285.24	642.938
1285.51	442.713
1285.79	347.984
1286.06	276.443
1286.34	239.567
1286.61	217.422
1286.88	212.154
1287.16	202.663
1287.43	188.948
1287.71	182.601
1287.98	166.799
1288.25	183.637
1288.53	169.961
1288.8	183.658
1289.08	164.74
1289.35	166.875
1289.63	158.482
1289.9	154.303
1290.17	171.183
1290.45	163.802
1290.72	151.146
1291	147.98
1291.27	159.564
1291.54	158.509
1291.82	159.555
1292.09	150.081
1292.37	164.837
1292.64	145.865
1292.91	153.228
1293.19	150.08
1293.46	150.138
1293.74	153.359
1294.01	147.1
1294.28	146.051
1294.56	151.327
1294.83	153.421
1295.11	157.679
1295.38	147.197
1295.65	155.727
1295.93	141.051
1296.2	142.156
1296.47	150.622
1296.75	141.112
1297.02	141.093
1297.3	147.409
1297.57	143.153
1297.84	152.626
1298.12	153.641
1298.39	143.11
1298.66	144.147
1298.94	161.017
1299.21	138.826
1299.48	148.303
1299.76	158.862
1300.03	137.779
1300.31	146.238
1300.58	147.296
1300.85	134.619
1301.13	155.731
1301.4	147.295
1301.67	145.209
1301.95	150.512
1302.22	142.073
1302.5	147.358
1302.77	142.074
1303.04	146.289
1303.32	144.159
1303.59	143.08
1303.86	149.413
1304.14	152.584
1304.41	144.137
1304.68	142.021
1304.96	149.393
1305.23	143.032
1305.5	150.388
1305.78	139.803
1306.05	126.057
1306.32	127.089
1306.6	140.79
1306.87	153.448
1307.14	138.695
1307.42	136.588
1307.69	146.079
1307.96	148.19
1308.24	149.249
1308.51	145.025
1308.78	131.324
1309.06	155.609
1309.33	142.97
1309.6	133.493
1309.88	131.391
1310.15	136.663
1310.42	149.32
1310.69	140.879
1310.97	128.222
1311.24	150.392
1311.52	128.235
1311.79	130.36
1312.06	139.884
1312.33	144.127
1312.61	132.52
1312.88	134.621
1313.15	146.214
1313.43	145.157
1313.7	129.308
1313.97	140.911
1314.25	133.524
1314.52	140.923
1314.79	132.492
1315.06	127.23
1315.34	143.085
1315.61	138.88
1315.88	142.065
1316.16	133.607
1316.43	136.768
1316.7	135.707
1316.97	140.984
1317.25	128.314
1317.52	141.008
1317.79	134.683
1318.07	145.255
1318.34	134.696
1318.61	141.038
1318.88	130.473
1319.16	146.316
1319.43	149.48
1319.7	131.519
1319.98	135.753
1320.25	138.922
1320.52	138.913
1320.79	142.06
1321.07	130.411
1321.34	133.54
1321.61	148.278
1321.89	133.476
1322.16	134.497
1322.43	121.823
1322.7	131.297
1322.97	144.983
1323.25	135.477
1323.52	139.709
1323.79	142.878
1324.06	132.334
1324.34	134.441
1324.61	137.604
1324.88	141.824
1325.15	137.605
1325.43	132.294
1325.7	134.34
1325.97	144.785
1326.25	137.33
1326.52	135.191
1326.79	147.816
1327.06	141.567
1327.34	131.117
1327.61	128.003
1327.88	135.426
1328.15	131.262
1328.42	136.585
1328.7	139.791
1328.97	135.57
1329.24	135.565
1329.51	153.51
1329.79	133.458
1330.06	138.72
1330.33	133.427
1330.6	141.838
1330.87	131.26
1331.15	131.219
1331.42	133.273
1331.69	141.642
1331.96	134.228
1332.24	143.662
1332.51	136.253
1332.78	133.05
1333.05	137.21
1333.33	140.319
1333.6	132.922
1333.87	139.187
1334.14	127.598
1334.41	149.613
1334.69	128.584
1334.96	142.202
1335.23	127.485
1335.5	141.099
1335.77	143.173
1336.05	140.003
1336.32	141.032
1336.59	130.529
1336.86	136.805
1337.13	131.552
1337.4	132.589
1337.68	136.765
1337.95	128.344
1338.22	147.175
1338.49	141.918
1338.76	125.138
1339.04	132.458
1339.31	130.361
1339.58	145.029
1339.85	127.234
1340.12	150.274
1340.4	139.809
1340.67	139.813
1340.94	145.045
1341.21	139.802
1341.48	133.509
1341.75	141.869
1342.03	137.657
1342.3	130.3
1342.57	153.283
1342.84	129.185
1343.11	138.586
1343.38	137.531
1343.66	136.482
1343.93	142.756
1344.2	138.577
1344.47	135.438
1344.74	137.514
1345.01	138.535
1345.29	130.14
1345.56	133.232
1345.83	148.871
1346.1	130.018
1346.37	144.566
1346.64	140.351
1346.91	142.395
1347.19	138.18
1347.46	124.591
1347.73	143.334
1348	130.81
1348.27	126.631
1348.54	138.083
1348.82	137.018
1349.09	121.366
1349.36	136.967
1349.63	130.694
1349.9	125.464
1350.17	143.139
1350.44	120.214
1350.72	138.914
1350.99	127.439
1351.26	134.696
1351.53	129.468
1351.8	142.978
1352.07	142.981
1352.34	129.481
1352.61	138.875
1352.88	137.869
1353.16	135.834
1353.43	138.041
1353.7	140.186
1353.97	131.703
1354.24	126.321
1354.51	136.622
1354.78	149.107
1355.05	136.634
1355.33	129.31
1355.6	136.578
1355.87	133.52
1356.14	129.346
1356.41	137.636
1356.68	135.546
1356.95	136.573
1357.22	134.482
1357.49	131.349
1357.76	141.71
1358.04	144.799
1358.31	142.697
1358.58	136.448
1358.85	136.418
1359.12	140.543
1359.39	134.302
1359.66	136.359
1359.93	138.39
1360.2	140.425
1360.47	142.458
1360.75	135.185
1361.02	136.213
1361.29	131.034
1361.56	136.206
1361.83	143.449
1362.1	136.179
1362.37	128.919
1362.64	141.33
1362.91	132.011
1363.18	140.307
1363.45	133.085
1363.72	142.42
1363.99	147.619
1364.27	143.466
1364.54	157.958
1364.81	148.618
1365.08	147.553
1365.35	149.59
1365.62	155.764
1365.89	146.417
1366.16	153.626
1366.43	146.349
1366.7	147.339
1366.97	139.021
1367.24	145.207
1367.51	149.331
1367.78	146.255
1368.05	155.567
1368.32	152.475
1368.6	152.485
1368.87	161.799
1369.14	182.492
1369.41	213.518
1369.68	207.285
1369.95	185.554
1370.22	150.386
1370.49	150.35
1370.76	130.7
1371.03	144.101
1371.3	151.288
1371.57	147.106
1371.84	148.08
1372.11	152.151
1372.38	141.79
1372.65	153.097
1372.92	148.95
1373.19	146.87
1373.46	150.975
1373.73	134.473
1374	156.1
1374.27	138.574
1374.54	146.807
1374.81	142.673
1375.08	145.752
1375.35	143.702
1375.62	150.925
1375.89	143.715
1376.16	141.649
1376.43	144.703
1376.71	148.783
1376.97	154.904
1377.24	156.924
1377.51	151.804
1377.78	170.379
1378.05	153.973
1378.33	142.719
1378.6	154.121
1378.87	159.292
1379.13	159.282
1379.4	153.076
1379.67	174.696
1379.94	162.288
1380.21	159.103
1380.49	160.025
1380.76	164.062
1381.03	168.153
1381.29	169.187
1381.56	161.934
1381.83	160.829
1382.1	161.78
1382.37	181.226
1382.64	179.103
1382.91	185.2
1383.18	186.17
1383.45	195.355
1383.72	196.344
1383.99	208.633
1384.26	211.717
1384.53	227.125
1384.8	262.038
1385.07	271.364
1385.34	311.479
1385.61	344.415
1385.88	455.356
1386.15	577.646
1386.42	799.594
1386.69	1155.05
1386.96	1819.52
1387.23	2872.48
1387.5	3843.78
1387.77	3642.52
1388.04	2417.2
1388.31	1313
1388.58	780.7
1388.85	540.411
1389.12	383.462
1389.39	328.091
1389.66	272.631
1389.93	254.03
1390.2	247.642
1390.46	206.647
1390.73	190.169
1391	186.019
1391.27	193.188
1391.54	197.257
1391.81	174.671
1392.08	178.723
1392.35	165.375
1392.62	158.183
1392.89	174.542
1393.16	169.406
1393.43	162.225
1393.7	160.164
1393.97	154.012
1394.24	161.165
1394.51	158.086
1394.78	157.059
1395.04	146.853
1395.31	139.71
1395.58	143.82
1395.85	150.989
1396.12	149.958
1396.39	146.873
1396.66	141.738
1396.93	143.766
1397.2	153.967
1397.47	153.943
1397.74	148.819
1398.01	151.89
1398.27	144.743
1398.54	146.805
1398.81	151.93
1399.08	140.688
1399.35	146.851
1399.62	142.772
1399.89	143.806
1400.16	157.116
1400.43	140.765
1400.7	146.939
1400.97	146.949
1401.23	131.59
1401.5	144.915
1401.77	148.003
1402.04	146.015
1402.31	147.126
1402.58	136.95
1402.85	146.241
1403.12	143.2
1403.39	149.376
1403.66	143.208
1403.92	148.291
1404.19	139.012
1404.46	154.412
1404.73	155.423
1405	156.428
1405.27	150.247
1405.54	160.474
1405.81	165.573
1406.07	168.626
1406.34	165.534
1406.61	151.18
1406.88	176.814
1407.15	178.879
1407.42	185.044
1407.69	203.51
1407.96	216.851
1408.23	236.346
1408.49	263.023
1408.76	310.219
1409.03	296.914
1409.3	306.171
1409.57	265.163
1409.84	232.351
1410.11	192.33
1410.37	189.211
1410.64	175.828
1410.91	164.505
1411.18	158.323
1411.45	150.101
1411.72	156.233
1411.98	151.115
1412.25	141.922
1412.52	149.147
1412.79	136.973
1413.06	143.284
1413.33	132.003
1413.6	133.89
1413.86	136.879
1414.13	127.707
1414.4	143.191
1414.67	130.898
1414.94	128.844
1415.21	140.14
1415.47	140.142
1415.74	135.016
1416.01	136.055
1416.28	148.392
1416.55	138.137
1416.82	142.262
1417.08	141.252
1417.35	132.023
1417.62	124.843
1417.89	131.014
1418.16	138.21
1418.43	148.496
1418.69	144.387
1418.96	123.841
1419.23	131.031
1419.5	126.903
1419.77	126.878
1420.04	120.692
1420.3	121.697
1420.57	129.886
1420.84	143.205
1421.11	123.68
1421.38	132.914
1421.64	127.797
1421.91	125.791
1422.18	131.987
1422.45	124.851
1422.72	132.121
1422.98	126.085
1423.25	132.351
1423.52	129.694
1423.79	143.092
1424.06	125.58
1424.32	122.385
1424.59	131.699
1424.86	139.87
1425.13	128.784
1425.4	134.813
1425.66	130.796
1425.93	131.824
1426.2	129.764
1426.47	129.732
1426.74	144.054
1427	128.639
1427.27	138.849
1427.54	120.347
1427.81	128.513
1428.07	134.641
1428.34	128.495
1428.61	128.501
1428.88	127.486
1429.15	131.595
1429.41	132.637
1429.68	120.367
1429.95	119.372
1430.22	123.506
1430.48	121.478
1430.75	121.525
1431.02	133.894
1431.29	129.825
1431.55	131.893
1431.82	116.49
1432.09	129.802
1432.36	133.878
1432.62	121.551
1432.89	128.683
1433.16	118.386
1433.43	128.58
1433.7	133.657
1433.96	118.273
1434.23	125.444
1434.5	123.468
1434.76	133.723
1435.03	120.406
1435.3	126.554
1435.57	128.6
1435.83	127.569
1436.1	135.758
1436.37	125.504
1436.64	118.321
1436.9	121.384
1437.17	129.57
1437.44	122.397
1437.71	136.721
1437.97	120.335
1438.24	132.638
1438.51	125.486
1438.77	130.617
1439.04	129.599
1439.31	125.513
1439.58	116.314
1439.84	123.518
1440.11	135.85
1440.38	128.686
1440.65	128.692
1440.91	115.366
1441.18	119.469
1441.45	137.913
1441.72	127.643
1441.98	126.623
1442.25	133.818
1442.52	114.347
1442.78	129.739
1443.05	125.619
1443.32	122.524
1443.58	130.711
1443.85	110.2
1444.12	124.552
1444.39	118.42
1444.65	122.555
1444.92	127.72
1445.19	122.609
1445.45	121.573
1445.72	125.666
1445.99	119.502
1446.26	119.493
1446.52	120.51
1446.79	126.655
1447.05	125.619
1447.32	132.783
1447.59	128.667
1447.85	119.433
1448.12	128.669
1448.39	122.544
1448.66	119.486
1448.92	122.567
1449.19	111.281
1449.46	131.781
1449.72	118.432
1449.99	125.589
1450.26	117.373
1450.52	130.69
1450.79	125.555
1451.06	116.322
1451.32	117.337
1451.59	117.326
1451.86	125.513
1452.12	113.211
1452.39	119.357
1452.66	118.336
1452.92	125.518
1453.19	131.682
1453.46	126.566
1453.72	127.587
1453.99	117.332
1454.26	122.453
1454.52	114.256
1454.79	131.676
1455.06	121.423
1455.32	128.59
1455.59	124.507
1455.86	117.351
1456.12	107.108
1456.39	125.554
1456.66	105.042
1456.92	110.146
1457.19	115.257
1457.45	118.323
1457.72	116.268
1457.99	124.462
1458.25	123.439
1458.52	124.469
1458.79	121.404
1459.05	127.556
1459.32	125.512
1459.59	118.34
1459.85	120.383
1460.12	118.326
1460.39	123.44
1460.65	118.308
1460.92	125.463
1461.18	118.28
1461.45	121.336
1461.72	103.914
1461.98	124.369
1462.25	124.345
1462.51	117.158
1462.78	110.994
1463.05	125.288
1463.31	118.1
1463.58	125.236
1463.84	122.182
1464.11	119.172
1464.38	113.079
1464.64	118.237
1464.91	124.451
1465.18	120.104
1465.44	123.023
1465.71	112.748
1465.97	122.992
1466.24	127.1
1466.51	119.913
1466.77	114.757
1467.04	115.798
1467.3	117.835
1467.57	118.847
1467.84	109.659
1468.1	118.837
1468.37	113.735
1468.63	116.793
1468.9	117.803
1469.17	117.791
1469.43	121.855
1469.7	114.689
1469.96	114.664
1470.23	106.494
1470.49	109.538
1470.76	114.62
1471.03	120.729
1471.29	106.443
1471.56	126.793
1471.82	125.762
1472.09	119.647
1472.35	117.607
1472.62	115.568
1472.89	115.564
1473.15	127.769
1473.42	112.479
1473.68	113.483
1473.95	113.471
1474.22	122.625
1474.48	118.559
1474.75	109.413
1475.01	120.612
1475.28	125.702
1475.54	116.535
1475.81	106.345
1476.08	107.349
1476.34	126.672
1476.61	108.347
1476.87	109.344
1477.14	119.5
1477.4	122.546
1477.67	111.356
1477.93	118.47
1478.2	116.417
1478.46	121.479
1478.73	113.331
1478.99	113.313
1479.26	115.326
1479.53	112.255
1479.79	110.201
1480.06	113.217
1480.32	118.255
1480.59	124.316
1480.85	111.107
1481.12	127.326
1481.38	115.146
1481.65	113.131
1481.91	122.284
1482.18	124.338
1482.44	114.209
1482.71	123.356
1482.98	111.179
1483.24	111.19
1483.51	119.318
1483.77	122.363
1484.04	116.246
1484.3	120.251
1484.57	105.96
1484.83	117.986
1485.1	114.843
1485.36	119.821
1485.63	118.903
1485.89	111.964
1486.16	117.074
1486.42	113.99
1486.69	118.012
1486.95	117.04
1487.22	117.031
1487.48	123.078
1487.75	117.992
1488.01	116.962
1488.28	123.015
1488.54	117.926
1488.81	116.889
1489.07	119.907
1489.34	108.766
1489.6	109.77
1489.87	107.743
1490.13	119.882
1490.4	125.944
1490.66	114.798
1490.93	116.797
1491.19	123.859
1491.46	119.806
1491.72	116.77
1491.99	112.73
1492.25	109.697
1492.52	110.703
1492.78	116.764
1493.05	113.73
1493.31	111.704
1493.58	117.763
1493.84	127.87
1494.1	109.679
1494.37	110.7
1494.63	118.791
1494.9	126.867
1495.16	115.721
1495.43	119.723
1495.69	114.635
1495.96	125.716
1496.22	116.61
1496.49	118.615
1496.75	120.616
1497.02	120.609
1497.28	119.6
1497.55	126.66
1497.81	117.572
1498.08	116.562
1498.34	113.537
1498.6	125.651
1498.87	111.526
1499.13	111.532
1499.4	117.597
1499.66	113.57
1499.93	110.549
1500.19	122.665
1500.46	116.605
1500.72	121.65
1500.98	117.606
1501.25	122.63
1501.51	122.616
1501.78	122.612
1502.04	121.599
1502.31	112.511
1502.57	112.493
1502.83	113.475
1503.1	119.515
1503.36	107.391
1503.63	121.497
1503.89	116.465
1504.16	128.574
1504.42	120.51
1504.68	107.399
1504.95	112.432
1505.21	115.443
1505.48	118.447
1505.74	127.465
1506	104.274
1506.27	114.345
1506.53	115.348
1506.8	114.36
1507.06	124.442
1507.33	118.403
1507.59	126.468
1507.85	117.393
1508.12	111.338
1508.38	122.421
1508.65	118.395
1508.91	118.399
1509.17	110.338
1509.44	116.38
1509.7	117.392
1509.97	133.542
1510.23	123.444
1510.49	121.408
1510.76	120.374
1511.02	124.374
1511.29	118.293
1511.55	109.18
1511.81	117.166
1512.08	118.116
1512.34	111.022
1512.61	114.003
1512.87	125.022
1513.13	109.936
1513.4	118.953
1513.66	123.974
1513.93	121.021
1514.19	105.982
1514.45	120.038
1514.72	109.976
1514.98	120.987
1515.24	117.95
1515.51	120.926
1515.77	122.895
1516.04	108.819
1516.3	123.849
1516.56	116.82
1516.83	122.827
1517.09	107.782
1517.35	115.803
1517.62	115.808
1517.88	104.794
1518.15	123.862
1518.41	120.86
1518.67	109.835
1518.94	103.824
1519.2	121.891
1519.46	115.879
1519.73	111.867
1519.99	124.903
1520.25	114.861
1520.52	118.874
1520.78	124.903
1521.04	115.885
1521.31	119.906
1521.57	121.912
1521.83	114.881
1522.1	126.908
1522.36	114.857
1522.63	123.871
1522.89	122.852
1523.15	120.817
1523.42	105.741
1523.68	115.727
1523.94	113.696
1524.21	115.678
1524.47	116.661
1524.73	113.656
1525	123.679
1525.26	113.669
1525.52	116.685
1525.79	115.703
1526.05	117.734
1526.31	105.735
1526.57	121.787
1526.84	103.747
1527.1	131.802
1527.36	118.761
1527.63	122.761
1527.89	103.712
1528.15	114.723
1528.42	115.712
1528.68	125.718
1528.94	116.695
1529.21	124.705
1529.47	113.682
1529.73	119.677
1530	123.671
1530.26	120.671
1530.52	113.679
1530.78	122.718
1531.05	115.727
1531.31	119.744
1531.57	107.716
1531.84	119.74
1532.1	112.717
1532.36	116.727
1532.63	123.765
1532.89	113.78
1533.15	117.83
1533.41	123.873
1533.68	128.902
1533.94	106.837
1534.2	112.852
1534.47	123.878
1534.73	111.831
1534.99	116.835
1535.25	118.826
1535.52	107.753
1535.78	113.724
1536.04	124.716
1536.31	110.659
1536.57	113.623
1536.83	126.592
1537.09	122.565
1537.36	113.535
1537.62	124.532
1537.88	102.515
1538.15	127.481
1538.41	116.463
1538.67	124.445
1538.93	114.463
1539.2	116.515
1539.46	123.601
1539.72	105.648
1539.98	118.719
1540.25	122.781
1540.51	111.793
1540.77	116.833
1541.04	110.784
1541.3	116.784
1541.56	113.754
1541.82	120.739
1542.09	112.695
1542.35	112.667
1542.61	120.651
1542.87	113.617
1543.14	126.601
1543.4	115.56
1543.66	108.514
1543.92	109.507
1544.19	116.512
1544.45	113.528
1544.71	119.565
1544.97	107.581
1545.23	126.642
1545.5	112.658
1545.76	119.686
1546.02	112.692
1546.28	114.692
1546.55	128.717
1546.81	129.731
1547.07	111.711
1547.33	110.726
1547.6	114.729
1547.86	118.672
1548.12	121.663
1548.38	119.652
1548.64	118.706
1548.91	117.639
1549.17	117.506
1549.43	121.439
1549.69	125.475
1549.95	118.568
1550.22	118.75
1550.48	110.851
1550.74	115.031
1551	119.993
1551.27	109.949
1551.53	111.952
1551.79	116.918
1552.05	119.958
1552.31	122.034
1552.58	122.03
1552.84	118.003
1553.1	115.904
1553.36	118.879
1553.62	118.871
1553.89	129.885
1554.15	125.84
1554.41	117.784
1554.67	110.721
1554.93	128.734
1555.2	113.697
1555.46	125.714
1555.72	118.707
1555.98	116.714
1556.24	124.707
1556.51	121.699
1556.77	117.699
1557.03	121.714
1557.29	116.71
1557.55	116.707
1557.82	125.711
1558.08	112.651
1558.34	116.631
1558.6	112.589
1558.86	111.553
1559.12	117.523
1559.39	118.495
1559.65	118.473
1559.91	121.453
1560.17	113.443
1560.43	123.428
1560.69	116.423
1560.96	122.416
1561.22	121.419
1561.48	114.442
1561.74	112.468
1562	113.508
1562.26	115.518
1562.52	124.516
1562.79	118.505
1563.05	121.508
1563.31	118.502
1563.57	116.49
1563.83	118.516
1564.09	126.566
1564.36	116.586
1564.62	121.592
1564.88	124.556
1565.14	121.395
1565.4	119.127
1565.66	111.919
1565.92	120.198
1566.19	114.467
1566.45	115.469
1566.71	119.381
1566.97	113.427
1567.23	130.541
1567.49	124.557
1567.76	111.48
1568.02	116.466
1568.28	124.481
1568.54	112.494
1568.8	122.491
1569.06	123.454
1569.32	114.426
1569.58	120.414
1569.84	128.417
1570.11	112.432
1570.37	117.431
1570.63	118.43
1570.89	121.424
1571.15	127.411
1571.41	116.403
1571.67	122.375
1571.93	131.358
1572.19	129.349
1572.46	127.328
1572.72	116.324
1572.98	133.28
1573.24	114.294
1573.5	117.269
1573.76	122.255
1574.02	120.275
1574.28	110.317
1574.54	126.32
1574.81	119.36
1575.07	115.393
1575.33	121.413
1575.59	126.422
1575.85	118.421
1576.11	118.418
1576.37	112.415
1576.63	116.382
1576.89	119.336
1577.16	118.294
1577.42	121.246
1577.68	123.202
1577.94	131.142
1578.2	103.195
1578.46	111.16
1578.72	133.09
1578.98	118.135
1579.24	117.138
1579.5	126.115
1579.76	124.137
1580.02	124.149
1580.28	119.168
1580.54	118.168
1580.81	116.163
1581.07	126.115
1581.33	121.115
1581.59	125.08
1581.85	115.087
1582.11	127.031
1582.37	109.09
1582.63	123.027
1582.89	113.058
1583.15	120.026
1583.41	119.029
1583.67	116.029
1583.93	111.045
1584.2	110.057
1584.46	126.002
1584.72	121.028
1584.98	128.002
1585.24	116.043
1585.5	130.981
1585.76	125.993
1586.02	117.005
1586.28	111.998
1586.54	122.925
1586.8	110.965
1587.06	118.913
1587.32	115.916
1587.58	121.879
1587.84	115.907
1588.1	124.869
1588.36	122.891
1588.62	130.871
1588.88	108.99
1589.14	115.972
1589.4	120.962
1589.66	121.965
1589.92	124.95
1590.18	117.988
1590.44	127.958
1590.71	114.031
1590.97	110.046
1591.23	117.017
1591.49	124.977
1591.75	121.98
1592.01	110.011
1592.27	122.916
1592.53	114.922
1592.79	117.893
1593.05	120.838
1593.31	114.827
1593.57	122.727
1593.83	119.71
1594.09	123.662
1594.35	127.63
1594.61	120.687
1594.87	113.757
1595.13	116.753
1595.39	124.721
1595.65	114.727
1595.91	128.622
1596.17	121.669
1596.43	115.71
1596.69	122.666
1596.95	119.693
1597.21	109.769
1597.47	120.709
1597.73	124.684
1597.99	114.74
1598.25	117.703
1598.51	116.68
1598.77	120.621
1599.03	131.515
1599.29	114.622
1599.55	118.572
1599.81	112.599
1600.07	115.557
1600.33	125.453
1600.59	112.535
1600.85	116.467
1601.11	123.365
1601.37	118.372
1601.63	118.337
1601.89	113.361
1602.15	128.187
1602.4	116.285
1602.66	119.225
1602.92	107.328
1603.18	122.141
1603.44	118.168
1603.7	124.089
1603.96	118.152
1604.22	122.108
1604.48	124.089
1604.74	123.102
1605	119.149
1605.26	127.063
1605.52	132.014
1605.78	110.272
1606.04	117.21
1606.3	115.246
1606.56	121.195
1606.82	120.217
1607.08	112.306
1607.34	113.296
1607.6	114.281
1607.86	121.205
1608.12	127.14
1608.38	119.222
1608.63	119.216
1608.89	118.202
1609.15	118.167
1609.41	111.216
1609.67	124.034
1609.93	123.995
1610.19	120.997
1610.45	122.944
1610.71	115.021
1610.97	111.051
1611.23	113.99
1611.49	111.024
1611.75	113.983
1612.01	111.033
1612.27	116.967
1612.53	118.944
1612.79	126.838
1613.04	128.813
1613.3	120.917
1613.56	119.918
1613.82	116.937
1614.08	115.936
1614.34	113.959
1614.6	123.833
1614.86	126.795
1615.12	119.877
1615.38	126.769
1615.64	118.871
1615.9	119.855
1616.16	125.783
1616.41	116.917
1616.67	113.965
1616.93	109.034
1617.19	119.884
1617.45	113.958
1617.71	115.924
1617.97	121.837
1618.23	120.849
1618.49	116.894
1618.74	118.847
1619	127.701
1619.26	121.765
1619.52	131.606
1619.78	124.69
1620.04	129.606
1620.3	126.64
1620.56	118.752
1620.82	112.84
1621.08	118.761
1621.33	126.66
1621.59	119.77
1621.85	110.905
1622.11	121.753
1622.37	124.718
1622.63	114.779
1622.89	119.514
1623.15	122.183
1623.4	116.047
1623.66	115.162
1623.92	121.059
1624.18	113.506
1624.44	122.298
1624.7	114.014
1624.96	115.096
1625.21	111.469
1625.47	112.313
1625.73	120.806
1625.99	115.396
1626.25	118.077
1626.51	119.481
1626.77	105.832
1627.03	113.258
1627.29	109.748
1627.54	111.301
1627.8	106.815
1628.06	114.662
1628.32	120.101
1628.58	114.244
1628.84	111.808
1629.09	112.352
1629.35	107.505
1629.61	104.701
1629.87	111.064
1630.13	107.426
1630.39	112.317
1630.64	107.045
1630.9	109.341
1631.16	113.954
1631.42	117.62
1631.68	111.862
1631.94	112.466
1632.2	105.43
1632.46	111.249
1632.71	110.714
1632.97	112.539
1633.23	108.242
1633.49	114.306
1633.75	109.876
1634	106.857
1634.26	114.066
1634.52	103.414
1634.78	106.164
1635.04	110.135
1635.29	103.473
1635.55	110.407
1635.81	108.302
1636.07	105.95
1636.33	111.833
1636.59	109.906
1636.84	105.15
1637.1	107.583
1637.36	109.22
1637.62	103.788
1637.88	108.867
1638.14	108.047
1638.39	111.996
1638.65	108.266
1638.91	100.884
1639.17	103.794
1639.42	105.533
1639.68	107.84
1639.94	106.94
1640.2	106.726
1640.46	107.538
1640.71	109.165
1640.97	104.518
1641.23	104.82
1641.49	107.601
1641.75	105.428
1642.01	101.285
1642.26	94.7148
1642.52	92.7548
1642.78	97.0706
1643.04	96.8562
1643.29	99.3163
1643.55	99.8846
1643.81	105.252
1644.07	94.3592
1644.33	104.348
1644.58	107.111
1644.84	103.84
1645.1	96.061
1645.36	96.4242
1645.61	95.537
1645.87	96.3939
1646.12	87.0816
1646.38	100.845
1646.64	101.819
1646.9	97.8792
1647.16	100.818
1647.42	102.775
1647.68	93.915
1647.94	104.734
1648.2	96.8708
1648.47	102.794
1648.73	98.8792
1648.99	89.0966
1649.25	98.9415
1649.51	99.9182
1649.77	98.9208
1650.03	94.0042
1650.29	95.025
1650.55	95.0422
1650.81	103.928
1651.07	99.0217
1651.33	101.99
1651.59	105.936
1651.85	107.907
1652.12	101.01
1652.38	96.0878
1652.64	108.883
1652.9	104.931
1653.16	99.0157
1653.42	100.003
1653.68	104.935
1653.94	98.05
1654.2	106.925
1654.46	92.1466
1654.72	102.996
1654.98	102.026
1655.24	96.1333
1655.5	100.109
1655.76	104.092
1656.02	98.1939
1656.28	104.13
1656.54	99.2033
1656.8	107.104
1657.07	102.164
1657.33	96.2326
1657.59	103.131
1657.85	91.2827
1658.11	104.103
1658.37	96.1983
1658.63	105.063
1658.89	100.116
1659.15	106.019
1659.41	100.087
1659.67	106.971
1659.93	102.027
1660.19	105.981
1660.45	108.954
1660.71	100.097
1660.97	98.1427
1661.23	91.2566
1661.49	95.2198
1661.75	109.048
1662.01	99.1503
1662.27	98.153
1662.53	95.3607
1662.79	98.3824
1663.05	97.3504
1663.31	110.197
1663.57	99.2244
1663.83	100.105
1664.09	94.2668
1664.35	103.168
1664.61	88.3797
1664.87	98.3037
1665.13	108.173
1665.39	100.119
1665.65	113.985
1665.91	102.335
1666.17	100.359
1666.43	88.5067
1666.69	95.1256
1666.95	102.972
1667.21	99.2076
1667.47	101.16
1667.73	103.121
1667.99	100.147
1668.25	94.2135
1668.51	96.198
1668.77	99.2186
1669.03	109.136
1669.29	104.205
1669.55	101.245
1669.81	109.152
1670.07	103.205
1670.33	98.2855
1670.59	102.299
1670.85	98.3589
1671.11	101.314
1671.37	105.262
1671.63	101.304
1671.89	90.4408
1672.15	103.297
1672.41	103.301
1672.67	103.299
1672.93	101.323
1673.19	99.3498
1673.45	100.343
1673.71	93.4309
1673.97	100.364
1674.23	103.346
1674.49	91.489
1674.75	93.4807
1675.01	99.4375
1675.27	96.4819
1675.53	102.428
1675.79	108.365
1676.05	102.426
1676.31	100.452
1676.56	99.468
1676.82	94.5216
1677.08	103.427
1677.34	99.4614
1677.6	98.462
1677.86	100.425
1678.12	98.4262
1678.38	92.4708
1678.64	99.3772
1678.9	99.3645
1679.16	99.3531
1679.42	95.3913
1679.68	97.358
1679.94	105.255
1680.2	95.365
1680.46	108.201
1680.72	95.3457
1680.98	105.218
1681.23	111.142
1681.49	98.2974
1681.75	102.249
1682.01	103.237
1682.27	104.226
1682.53	101.264
1682.79	98.296
1683.05	102.245
1683.31	98.2932
1683.57	103.232
1683.83	105.204
1684.09	100.256
1684.35	95.3046
1684.61	97.2726
1684.87	100.231
1685.13	102.203
1685.38	97.2644
1685.64	95.2896
1685.9	95.2909
1686.16	105.17
1686.42	94.3194
1686.68	96.3119
1686.94	99.2837
1687.2	97.3073
1687.46	110.14
1687.72	103.214
1687.97	99.2523
1688.23	104.18
1688.49	95.2818
1688.75	99.2139
1689.01	102.155
1689.27	104.112
1689.53	96.1997
1689.79	98.1522
1690.05	103.062
1690.31	97.1543
1690.57	99.1453
1690.82	101.13
1691.08	106.072
1691.34	98.1829
1691.6	95.2366
1691.86	97.2159
1692.12	99.1883
1692.38	94.2469
1692.64	100.15
1692.89	98.1578
1693.15	100.106
1693.41	102.05
1693.67	96.1045
1693.93	92.1477
1694.19	100.995
1694.45	95.064
1694.71	101.948
1694.96	105.891
1695.22	97.0331
1695.48	93.0975
1695.74	100.985
1696	100.993
1696.26	99.0386
1696.52	101.016
1696.78	101.998
1697.03	102.971
1697.29	102.949
1697.55	96.0271
1697.81	97.9717
1698.07	100.906
1698.33	97.9362
1698.58	97.9206
1698.84	96.9249
1699.1	105.775
1699.36	100.855
1699.62	104.797
1699.88	96.9256
1700.14	99.875
1700.4	107.729
1700.65	100.839
1700.91	97.8828
1701.17	101.811
1701.43	108.685
1701.69	94.8981
1701.95	98.8124
1702.2	103.709
1702.46	104.672
1702.72	106.622
1702.98	96.7909
1703.24	102.683
1703.5	107.588
1703.75	88.9121
1704.01	103.648
1704.27	105.625
1704.53	94.8263
1704.79	89.9135
1705.05	96.7869
1705.3	111.522
1705.56	98.7489
1705.82	98.7437
1706.08	105.603
1706.34	96.7401
1706.6	96.7167
1706.85	96.6921
1707.11	98.6324
1707.37	95.6658
1707.63	104.467
1707.89	106.394
1708.14	95.5777
1708.4	106.324
1708.66	94.5311
1708.92	107.234
1709.18	101.338
1709.44	93.4938
1709.69	94.468
1709.95	98.3837
1710.21	102.302
1710.47	103.285
1710.73	99.3816
1710.98	102.332
1711.24	100.383
1711.5	101.371
1711.76	100.399
1712.01	97.4581
1712.27	98.4216
1712.53	93.4924
1712.79	102.261
1713.05	107.106
1713.3	102.18
1713.56	106.045
1713.82	101.129
1714.08	97.2055
1714.34	97.194
1714.59	96.2098
1714.85	108.902
1715.11	108.903
1715.37	107.958
1715.63	104.061
1715.88	97.2178
1716.14	95.254
1716.4	95.238
1716.66	113.77
1716.91	109.83
1717.17	97.1019
1717.43	97.058
1717.69	102.857
1717.95	102.818
1718.2	106.673
1718.46	109.564
1718.72	95.9113
1718.98	101.745
1719.23	98.8254
1719.49	104.664
1719.75	105.63
1720.01	95.9101
1720.26	99.8021
1720.52	98.8152
1720.78	98.7948
1721.04	97.7913
1721.29	102.64
1721.55	102.617
1721.81	106.483
1722.07	94.789
1722.32	100.596
1722.58	102.514
1722.84	102.49
1723.1	103.441
1723.35	102.454
1723.61	102.445
1723.87	95.6478
1724.13	100.492
1724.38	99.516
1724.64	102.407
1724.9	99.4645
1725.16	101.364
1725.41	107.146
1725.67	100.323
1725.93	110.963
1726.18	110.957
1726.44	101.273
1726.7	102.23
1726.96	106.083
1727.21	83.7769
1727.47	97.3449
1727.73	100.268
1727.99	107.036
1728.24	107.011
1728.5	104.031
1728.76	101.943
1729.01	109.538
1729.27	96.0129
1729.53	100.898
1729.79	101.912
1730.04	106.745
1730.3	96.0706
1730.56	111.496
1730.81	100.915
1731.07	99.0566
1731.33	108.727
1731.59	106.794
1731.84	103.891
1732.1	105.816
1732.36	100.008
1732.61	109.657
1732.87	106.741
1733.13	100.92
1733.39	95.0926
1733.64	99.8769
1733.9	102.735
1734.16	95.9524
1734.41	100.742
1734.67	99.7453
1734.93	100.676
1735.18	97.7553
1735.44	98.6937
1735.7	105.413
1735.95	98.6627
1736.21	103.466
1736.47	106.341
1736.72	103.44
1736.98	110.16
1737.24	100.525
1737.5	106.283
1737.75	105.307
1738.01	108.17
1738.27	109.108
1738.52	105.241
1738.78	99.4532
1739.04	97.5063
1739.29	99.3967
1739.55	107.034
1739.81	99.3088
1740.06	102.146
1740.32	104.026
1740.58	103.038
1740.83	109.723
1741.09	104.907
1741.35	102.011
1741.6	109.652
1741.86	106.764
1742.12	103.883
1742.37	100.049
1742.63	101.953
1742.89	100.029
1743.14	102.896
1743.4	98.1086
1743.66	109.578
1743.91	105.725
1744.17	100.928
1744.42	101.868
1744.68	103.78
1744.94	98.9977
1745.19	101.87
1745.45	102.825
1745.71	101.861
1745.96	98.0194
1746.22	97.041
1746.48	91.2789
1746.73	106.539
1746.99	97.9196
1747.25	95.9786
1747.5	97.8698
1747.76	101.665
1748.02	100.706
1748.27	109.296
1748.53	104.526
1748.78	102.623
1749.04	97.858
1749.3	98.8266
1749.55	96.9346
1749.81	102.687
1750.06	96.0231
1750.32	107.514
1750.58	92.2396
1750.83	104.673
1751.09	97.036
1751.35	108.505
1751.6	106.572
1751.86	103.672
1752.11	98.8671
1752.37	107.441
1752.63	102.644
1752.88	97.8471
1753.14	105.462
1753.4	103.534
1753.65	104.471
1753.91	102.544
1754.16	108.243
1754.42	105.361
1754.68	109.16
1754.93	102.473
1755.19	104.367
1755.44	107.211
1755.7	110.05
1755.96	102.404
1756.21	98.5683
1756.47	98.5395
1756.72	99.4594
1756.98	105.137
1757.24	101.309
1757.49	107.955
1757.75	95.5858
1758	108.92
1758.26	102.283
1758.51	108.951
1758.77	108.001
1759.03	103.245
1759.28	96.5878
1759.54	101.348
1759.79	99.441
1760.05	108.948
1760.3	101.327
1760.56	104.171
1760.82	97.4989
1761.07	101.285
1761.33	101.266
1761.59	103.152
1761.84	99.3392
1762.1	95.5291
1762.35	104.092
1762.61	103.157
1762.86	106.969
1763.12	104.114
1763.37	99.3596
1763.63	103.168
1763.88	93.6683
1764.14	110.799
1764.4	105.129
1764.65	101.35
1764.91	102.318
1765.16	105.185
1765.42	103.291
1765.67	102.345
1765.93	102.347
1766.19	101.395
1766.44	101.389
1766.7	101.38
1766.95	94.7148
1767.21	99.4697
1767.46	108.978
1767.72	103.249
1767.97	99.4325
1768.23	107.028
1768.48	114.641
1768.74	100.348
1769	94.5882
1769.25	101.193
1769.51	102.085
1769.76	103.025
1770.02	90.6878
1770.27	104.974
1770.53	95.4803
1770.78	105.935
1771.04	104.997
1771.29	104.09
1771.55	99.366
1771.8	96.5156
1772.06	102.232
1772.31	106.057
1772.57	97.5164
1772.82	107.997
1773.08	111.816
1773.34	109.926
1773.59	103.275
1773.84	98.5248
1774.1	102.34
1774.36	110.914
1774.61	110.924
1774.87	107.13
1775.12	100.475
1775.38	108.126
1775.63	106.266
1775.89	103.427
1776.14	108.203
1776.4	100.576
1776.65	100.568
1776.91	105.319
1777.16	110.068
1777.42	102.431
1777.67	101.46
1777.93	100.489
1778.18	98.5661
1778.44	100.451
1778.69	108.043
1778.95	96.5939
1779.2	102.28
1779.46	105.125
1779.71	104.187
1779.97	108.015
1780.22	101.36
1780.48	106.128
1780.73	109.946
1780.98	100.434
1781.24	99.4858
1781.5	110.918
1781.75	106.17
1782	108.091
1782.26	103.351
1782.51	103.371
1782.77	94.8103
1783.02	99.5866
1783.28	110.083
1783.53	92.9402
1783.79	106.301
1784.04	109.179
1784.3	97.7592
1784.55	100.642
1784.81	107.334
1785.06	101.614
1785.32	102.566
1785.57	98.742
1785.83	104.455
1786.08	106.358
1786.33	102.548
1786.59	101.607
1786.84	99.7184
1787.1	105.47
1787.35	98.8203
1787.61	105.558
1787.86	102.757
1788.12	106.653
1788.37	106.712
1788.63	101.955
1788.88	101.975
1789.13	116.378
1789.39	105.877
1789.64	102.063
1789.9	113.578
1790.15	103.051
1790.41	108.811
1790.66	99.2209
1790.92	104.012
1791.17	116.402
1791.42	102.964
1791.68	104.868
1791.93	97.2031
1792.19	101.996
1792.44	105.83
1792.7	97.2225
1792.95	101.065
1793.2	93.409
1793.46	102.026
1793.71	101.084
1793.97	103.963
1794.22	104.93
1794.48	101.081
1794.73	104.905
1794.98	103.067
1795.24	106.014
1795.49	105.095
1795.75	103.194
1796	106.093
1796.26	109.955
1796.51	101.332
1796.76	99.4324
1797.02	110.984
1797.27	105.238
1797.53	101.409
1797.78	104.306
1798.03	106.241
1798.29	112.019
1798.54	103.37
1798.8	105.291
1799.05	104.321
1799.3	103.346
1799.56	102.366
1799.81	101.384
1800.07	112.899
1800.32	103.277
1800.57	107.109
1800.83	109.022
1801.08	99.4125
1801.34	106.134
1801.59	104.216
1801.84	102.301
1802.1	102.31
1802.35	114.812
1802.61	100.416
1802.86	101.397
1803.11	116.8
1803.37	102.403
1803.62	96.6471
1803.87	105.309
1804.13	105.316
1804.38	98.6022
1804.64	100.546
1804.89	99.6038
1805.14	86.1528
1805.4	111.209
1805.65	102.568
1805.9	103.552
1806.16	111.278
1806.41	99.7319
1806.67	95.8892
1806.92	101.678
1807.17	94.9336
1807.43	107.464
1807.68	112.284
1807.93	97.8289
1808.19	110.362
1808.44	108.437
1808.69	104.586
1808.95	108.446
1809.2	99.7749
1809.46	103.635
1809.71	104.604
1809.96	98.8242
1810.22	109.433
1810.47	108.467
1810.72	98.8204
1810.98	96.8893
1811.23	98.8164
1811.48	96.8866
1811.74	105.563
1811.99	95.9258
1812.24	97.8628
1812.5	104.625
1812.75	110.43
1813	110.451
1813.26	105.636
1813.51	104.682
1813.76	108.562
1814.02	94.1127
1814.27	103.792
1814.52	100.932
1814.78	114.482
1815.03	104.841
1815.28	97.122
1815.54	95.1959
1815.79	102.932
1816.04	100.039
1816.3	101.01
1816.55	96.1902
1816.8	108.752
1817.06	109.718
1817.31	102.912
1817.56	94.1672
1817.82	96.0934
1818.07	108.662
1818.32	105.79
1818.58	100.026
1818.83	113.547
1819.08	105.821
1819.34	100.033
1819.59	101.981
1819.84	102.957
1820.09	98.1343
1820.35	110.719
1820.6	110.734
1820.85	101.072
1821.11	113.659
1821.36	104.971
1821.61	104.988
1821.87	103.067
1822.12	104.045
1822.37	109.862
1822.62	96.3162
1822.88	109.875
1823.13	99.2307
1823.38	105.031
1823.64	100.182
1823.89	96.3004
1824.14	106.954
1824.4	99.2208
1824.65	112.783
1824.9	100.207
1825.15	104.092
1825.41	101.198
1825.66	102.171
1825.91	105.076
1826.17	113.792
1826.42	106.049
1826.67	104.115
1826.92	103.15
1827.18	99.2857
1827.43	104.14
1827.68	99.3083
1827.93	113.849
1828.19	107.062
1828.44	104.15
1828.69	104.136
1828.94	109.934
1829.2	104.117
1829.45	107.989
1829.7	109.92
1829.95	95.3862
1830.21	107.96
1830.46	110.855
1830.71	103.102
1830.97	106.016
1831.22	110.872
1831.47	105.077
1831.72	107.029
1831.98	100.261
1832.23	99.3068
1832.48	106.107
1832.73	110.974
1832.99	110.983
1833.24	109.044
1833.49	100.327
1833.74	107.123
1833.99	104.219
1834.25	101.306
1834.5	103.198
1834.75	103.142
1835	107.934
1835.26	101.119
1835.51	115.604
1835.76	106.88
1836.02	95.2675
1836.27	103.172
1836.52	113.19
1836.77	113.985
1837.02	104.191
1837.28	106.08
1837.53	105.034
1837.78	99.1474
1838.03	96.1605
1838.28	101.927
1838.54	108.777
1838.79	107.963
1839.04	113.821
1839.29	100.284
1839.55	105.142
1839.8	98.3786
1840.05	106.097
1840.3	106.969
1840.55	105.935
1840.81	89.44
1841.06	102.927
1841.31	106.744
1841.56	109.596
1841.82	102.797
1842.07	105.656
1842.32	106.586
1842.57	99.8285
1842.82	104.656
1843.08	107.551
1843.33	106.592
1843.58	105.627
1843.83	99.8332
1844.08	111.402
1844.34	109.482
1844.59	105.631
1844.84	110.445
1845.09	107.546
1845.34	103.69
1845.6	117.223
1845.85	113.414
1846.1	103.805
1846.35	100.967
1846.6	106.76
1846.86	101.819
1847.11	105.509
1847.36	108.305
1847.61	113.105
1847.86	99.6607
1848.11	102.603
1848.37	109.329
1848.62	110.252
1848.87	110.245
1849.12	101.568
1849.37	107.318
1849.62	106.323
1849.88	108.215
1850.13	100.482
1850.38	111.025
1850.63	108.111
1850.88	94.6362
1851.14	102.301
1851.39	111.889
1851.64	102.272
1851.89	108.987
1852.14	110.906
1852.39	104.185
1852.65	104.186
1852.9	103.225
1853.15	107.06
1853.4	95.5303
1853.65	110.875
1853.9	109.887
1854.15	107.934
1854.41	110.774
1854.66	110.752
1854.91	106.906
1855.16	113.591
1855.41	105.884
1855.66	105.857
1855.91	101.057
1856.17	106.797
1856.42	98.1752
1856.67	103.924
1856.92	107.751
1857.17	110.618
1857.42	108.69
1857.67	105.805
1857.92	99.0887
1858.18	99.0703
1858.43	100.005
1858.68	101.895
1858.93	112.394
1859.18	98.9769
1859.43	102.778
1859.68	107.55
1859.94	108.51
1860.19	108.51
1860.44	100.878
1860.69	109.507
1860.94	113.349
1861.19	107.628
1861.44	107.649
1861.7	105.746
1861.95	97.1322
1862.2	103.819
1862.45	107.625
1862.7	103.775
1862.95	109.487
1863.2	105.638
1863.45	107.526
1863.7	103.682
1863.95	103.663
1864.21	109.376
1864.46	102.671
1864.71	109.336
1864.96	112.174
1865.21	110.233
1865.46	94.9326
1865.71	116.834
1865.96	111.066
1866.21	102.442
1866.46	105.256
1866.72	110.925
1866.97	103.265
1867.22	106.079
1867.47	102.239
1867.72	106.02
1867.97	103.155
1868.22	105.048
1868.47	108.848
1868.72	103.15
1868.97	108.857
1869.22	106.951
1869.47	107.895
1869.73	108.84
1869.98	109.785
1870.23	105.977
1870.48	104.072
1870.73	98.3667
1870.98	105.968
1871.23	104.063
1871.48	105.953
1871.73	104.037
1871.98	107.822
1872.23	113.51
1872.48	102.097
1872.73	117.269
1872.99	111.553
1873.24	110.595
1873.49	100.148
1873.74	102.983
1873.99	102.016
1874.24	106.739
1874.49	111.456
1874.74	114.273
1874.99	104.762
1875.24	99.0456
1875.49	106.593
1875.74	112.225
1875.99	110.279
1876.24	101.728
1876.49	101.701
1876.74	112.088
1876.99	108.267
1877.25	98.7523
1877.5	113.766
1877.75	99.6048
1878	105.55
1878.25	104.682
1878.5	102.669
1878.75	110.223
1879	98.9226
1879.25	107.519
1879.5	109.409
1879.75	111.266
1880	102.729
1880.25	117.873
1880.5	113.152
1880.75	103.679
1881	103.665
1881.25	105.53
1881.5	109.263
1881.75	102.589
1882	111.986
1882.25	107.2
1882.5	97.6908
1882.75	107.083
1883	107.966
1883.25	108.407
1883.5	107.412
1883.75	107.993
1884	110.732
1884.25	109.84
1884.5	100.397
1884.75	98.5178
1885	100.452
1885.25	109.914
1885.51	101.436
1885.75	112.802
1886	102.452
1886.26	113.804
1886.5	112.858
1886.75	108.101
1887.01	107.127
1887.26	104.271
1887.5	107.076
1887.76	106.106
1888.01	103.249
1888.25	109.809
1888.5	104.115
1888.76	112.56
1889	104.989
1889.25	114.38
1889.51	103.079
1889.75	108.719
1890	106.842
1890.25	100.273
1890.5	102.185
1890.75	108.789
1891	102.196
1891.25	97.4753
1891.5	107.835
1891.75	113.479
1892	106.879
1892.25	113.471
1892.5	104.982
1892.75	110.612
1893	116.229
1893.25	106.758
1893.5	115.161
1893.75	113.24
1894	118.928
1894.25	111.359
1894.5	101.941
1894.75	104.748
1895	105.689
1895.25	106.635
1895.5	116.982
1895.75	104.78
1896	112.312
1896.25	113.269
1896.5	106.71
1896.75	108.611
1897	107.687
1897.25	108.639
1897.5	115.231
1897.75	107.707
1897.99	108.643
1898.24	113.336
1898.49	107.675
1898.74	110.474
1898.99	108.565
1899.24	108.54
1899.49	114.166
1899.74	113.215
1899.99	106.621
1900.24	101.919
1900.49	104.738
1900.74	108.506
1900.99	106.642
1901.24	111.365
1901.49	107.626
1901.74	108.59
1901.99	102.97
1902.23	106.762
1902.49	117.117
1902.73	102.057
1902.98	103.929
1903.23	103.916
1903.48	89.8015
1903.73	109.541
1903.98	101.074
1904.23	116.114
1904.48	103.888
1904.73	115.165
1904.98	102.938
1905.23	107.637
1905.47	116.095
1905.73	107.616
1905.97	111.327
1906.22	102.856
1906.47	115.054
1906.72	106.59
1906.97	106.582
1907.22	113.152
1907.47	99.0745
1907.72	108.473
1907.97	102.862
1908.22	103.813
1908.47	108.516
1908.71	110.405
1908.96	110.422
1909.21	104.803
1909.46	117.991
1909.71	113.324
1909.96	103.954
1910.21	105.872
1910.46	112.498
1910.71	100.285
1910.95	119.14
1911.2	111.618
1911.45	107.857
1911.7	110.684
1911.95	114.447
1912.2	112.553
1912.45	106.9
1912.7	108.783
1912.95	103.133
1913.2	115.379
1913.44	106.915
1913.69	107.885
1913.94	107.921
1914.19	93.808
1914.44	114.572
1914.69	111.769
1914.94	111.792
1915.18	107.093
1915.43	115.595
1915.68	120.314
1915.93	105.208
1916.18	110.862
1916.43	106.135
1916.68	110.828
1916.93	103.263
1917.18	107.02
1917.42	105.122
1917.67	107.943
1917.92	106.057
1918.17	102.298
1918.42	110.807
1918.67	113.667
1918.92	106.152
1919.16	103.355
1919.41	101.506
1919.66	101.547
1919.91	117.634
1920.16	109.139
1920.41	107.242
1920.66	111.019
1920.9	103.485
1921.15	112.967
1921.4	110.153
1921.65	109.221
1921.9	102.614
1922.15	102.617
1922.39	107.34
1922.64	116.781
1922.89	104.473
1923.14	109.189
1923.39	109.18
1923.64	108.226
1923.88	111.993
1924.13	106.304
1924.38	114.792
1924.63	108.173
1924.88	104.396
1925.13	110.077
1925.37	109.154
1925.62	102.568
1925.87	103.544
1926.12	111.139
1926.37	115.9
1926.62	105.525
1926.86	115.018
1927.11	113.143
1927.36	110.319
1927.61	111.281
1927.86	111.295
1928.1	104.676
1928.35	110.37
1928.6	100.908
1928.85	99.974
1929.1	109.467
1929.34	110.438
1929.59	110.471
1929.84	105.759
1930.09	108.637
1930.34	114.36
1930.59	107.745
1930.83	116.304
1931.08	107.763
1931.33	108.708
1931.58	104.898
1931.83	99.1891
1932.07	113.411
1932.32	111.498
1932.57	99.1476
1932.82	112.422
1933.07	105.771
1933.31	112.412
1933.56	110.542
1933.81	111.541
1934.06	113.511
1934.3	110.753
1934.55	107.996
1934.8	107.128
1935.05	120.538
1935.3	112.021
1935.54	103.479
1935.79	108.203
1936.04	111.985
1936.29	113.887
1936.53	108.157
1936.78	116.711
1937.03	113.826
1937.28	109.993
1937.53	113.778
1937.77	106.142
1938.02	106.121
1938.27	116.584
1938.52	100.433
1938.77	107.117
1939.01	109.036
1939.26	117.627
1939.51	110.023
1939.76	110.994
1940	111.955
1940.25	112.93
1940.5	109.146
1940.74	106.346
1940.99	109.259
1941.24	107.359
1941.49	107.348
1941.74	111.131
1941.98	103.443
1942.23	107.272
1942.48	105.461
1942.73	113.145
1942.97	112.198
1943.22	107.39
1943.47	107.342
1943.72	115.887
1943.96	114.983
1944.21	114.066
1944.46	104.542
1944.71	102.657
1944.95	110.324
1945.2	110.352
1945.45	114.202
1945.69	99.8902
1945.94	108.515
1946.19	108.533
1946.44	102.808
1946.68	110.467
1946.93	103.772
1947.18	99.9393
1947.43	115.23
1947.67	109.488
1947.92	110.444
1948.17	107.575
1948.41	102.787
1948.66	104.702
1948.91	114.282
1949.16	108.567
1949.4	110.503
1949.65	112.445
1949.9	105.774
1950.15	116.35
1950.39	112.571
1950.64	102.071
1950.89	107.864
1951.13	115.582
1951.38	106.032
1951.63	111.825
1951.88	111.85
1952.12	110.909
1952.37	120.531
1952.62	114.769
1952.86	113.825
1953.11	108.088
1953.36	114.794
1953.61	104.189
1953.85	114.684
1954.1	111.741
1954.35	109.764
1954.59	115.462
1954.84	103.943
1955.09	106.812
1955.33	98.2
1955.58	112.599
1955.83	110.728
1956.07	110.801
1956.32	111.801
1956.57	96.4776
1956.81	107.059
1957.06	104.203
1957.31	101.344
1957.55	109.05
1957.8	109.067
1958.05	107.158
1958.29	108.128
1958.54	117.746
1958.79	101.4
1959.03	109.071
1959.28	109.058
1959.53	113.858
1959.78	108.079
1960.02	108.062
1960.27	104.204
1960.52	108.028
1960.76	115.689
1961.01	108.95
1961.26	117.57
1961.5	109.88
1961.75	110.842
1962	104.131
1962.24	103.175
1962.49	110.859
1962.74	112.784
1962.98	104.15
1963.23	109.914
1963.47	106.078
1963.72	115.684
1963.97	112.817
1964.21	107.069
1964.46	102.268
1964.71	107.062
1964.95	97.4616
1965.2	103.22
1965.45	112.823
1965.69	116.675
1965.94	106.131
1966.19	105.195
1966.43	111.946
1966.68	113.887
1966.93	108.136
1967.17	106.212
1967.42	107.173
1967.66	106.222
1967.91	109.111
1968.16	111.039
1968.4	112.961
1968.65	115.836
1968.9	112.935
1969.14	105.221
1969.39	105.189
1969.64	104.195
1969.88	109.928
1970.13	96.4663
1970.37	116.606
1970.62	108.911
1970.87	103.137
1971.11	106.003
1971.36	112.708
1971.6	109.821
1971.85	103.113
1972.1	109.839
1972.34	106.008
1972.59	111.764
1972.84	107.919
1973.08	105.025
1973.33	109.798
1973.57	106.901
1973.82	102.093
1974.07	108.794
1974.31	103.997
1974.56	103.997
1974.8	107.835
1975.05	111.678
1975.3	114.568
1975.54	98.2852
1975.79	116.521
1976.03	102.147
1976.28	108.869
1976.53	107.914
1976.77	105.038
1977.02	110.791
1977.26	119.417
1977.51	101.182
1977.75	110.757
1978	99.2337
1978.25	108.807
1978.49	98.2507
1978.74	104.954
1978.99	99.2021
1979.23	110.707
1979.48	109.751
1979.72	102.086
1979.97	108.799
1980.21	109.749
1980.46	121.231
1980.71	103.963
1980.95	102.995
1981.2	103.94
1981.44	117.338
1981.69	109.668
1981.93	120.199
1982.18	116.364
1982.43	107.73
1982.67	114.414
1982.92	116.303
1983.16	107.657
1983.41	106.676
1983.65	113.36
1983.9	103.787
1984.15	105.691
1984.39	106.636
1984.64	110.452
1984.88	102.786
1985.13	103.717
1985.37	103.702
1985.62	116.127
1985.86	104.664
1986.11	108.501
1986.35	122.862
1986.6	115.224
1986.85	111.397
1987.09	115.228
1987.34	103.74
1987.58	118.048
1987.83	109.41
1988.07	109.369
1988.32	99.7748
1988.56	111.157
1988.81	111.079
1989.05	105.296
1989.3	107.142
1989.55	103.293
1989.79	114.692
1990.04	106.119
1990.28	113.741
1990.53	116.639
1990.77	110.963
1991.02	110.039
1991.26	101.498
1991.51	120.593
1991.75	103.453
1992	103.47
1992.24	107.288
1992.49	114.911
1992.73	115.846
1992.98	108.202
1993.22	109.126
1993.47	105.279
1993.71	112.856
1993.96	118.523
1994.2	109.916
1994.45	108.916
1994.7	114.565
1994.94	111.669
1995.18	104.975
1995.43	108.741
1995.68	111.558
1995.92	116.289
1996.16	106.796
1996.41	119.144
1996.66	110.611
1996.9	112.525
1997.15	111.593
1997.39	113.502
1997.63	104.954
1997.88	109.702
1998.13	115.397
1998.37	103.988
1998.61	114.425
1998.86	114.402
1999.11	109.618
1999.35	119.029
1999.59	115.966
1999.84	105.452
2000.08	101.651
2000.33	102.61
2000.57	104.376
2000.82	105.322
2001.06	108.479
2001.31	109.209
2001.55	106.059
2001.8	106.715
2002.04	102.762
2002.29	111.22
2002.53	108.85
2002.78	112.873
2003.02	104.335
2003.27	113.334
2003.51	111.41
2003.76	113.603
2004	102.021
2004.25	108.492
2004.49	101.997
2004.73	104.023
2004.98	106.103
2005.22	109.893
2005.47	111.951
2005.71	101.467
2005.96	106.399
2006.2	112.916
2006.45	112.861
2006.69	107.084
2006.94	104.41
2007.18	109.3
2007.42	102.809
2007.67	106.194
2007.92	103.218
2008.16	108.189
2008.4	102.118
2008.65	104.492
2008.89	99.8031
2009.14	106.253
2009.38	103.165
2009.63	109.491
2009.87	103.964
2010.11	103.919
2010.36	112.252
2010.6	100.173
2010.85	109.491
2011.09	106.616
2011.34	101.33
2011.58	101.458
2011.82	99.9594
2012.07	105.125
2012.31	106.884
2012.56	102.607
2012.8	99.4471
2013.05	107.345
2013.29	103.432
2013.54	105.104
2013.78	105.415
2014.02	102.394
2014.27	97.1849
2014.51	102.053
2014.76	101.339
2015	104.307
2015.24	105.135
2015.49	100.455
2015.73	100.489
2015.98	98.8386
2016.22	94.9558
2016.46	105.289
2016.71	101.258
2016.95	98.0896
2017.2	97.6037
2017.44	106.827
2017.69	99.4864
2017.93	100.852
2018.17	102.362
2018.42	98.2973
2018.66	99.8664
2018.91	99.25
2019.15	99.7747
2019.39	100.443
2019.64	97.977
2019.88	101.072
2020.13	99.3927
2020.37	103.082
2020.61	105.963
2020.86	100.986
2021.1	98.6672
2021.35	97.347
2021.59	96.6114
2021.83	102.092
2022.08	102.139
2022.32	99.6437
2022.56	100.294
2022.81	101.89
2023.05	101.373
2023.3	97.6893
2023.54	97.1839
2023.78	98.3769
2024.03	96.078
2024.27	98.2371
2024.52	101.959
2024.76	103.663
2025	101.028
2025.25	95.9276
2025.49	98.0311
2025.73	100.194
2025.98	98.3457
2026.22	91.6979
2026.46	95.4494
2026.71	102.109
2026.88	99.5079
2027.13	96.7889
2027.38	97.7791
2027.62	94.963
2027.87	94.9048
2028.12	93.8835
2028.36	96.4288
2028.61	98.5264
2028.86	97.9658
2029.1	101.517
2029.35	99.7472
2029.6	100.503
2029.84	97.591
2030.09	94.6741
2030.33	96.5402
2030.58	100.179
2030.83	96.523
2031.08	93.7859
2031.32	104.967
2031.57	96.5711
2031.81	104.037
2032.06	89.1346
2032.31	100.368
2032.55	94.802
2032.8	96.7031
2033.05	103.271
2033.29	87.4015
2033.54	93.9729
2033.79	93.9907
2034.03	100.484
2034.28	95.7489
2034.53	92.8472
2034.77	92.8188
2035.02	93.7929
2035.26	98.493
2035.51	101.351
2035.76	95.8183
2036	91.1927
2036.25	99.6111
2036.5	100.491
2036.74	93.0133
2036.99	97.7135
2037.24	98.648
2037.48	96.7735
2037.73	97.6992
2037.97	99.5569
2038.22	100.477
2038.47	102.331
2038.71	98.5769
2038.96	107.903
2039.2	99.4782
2039.45	101.329
2039.7	95.7044
2039.94	93.8104
2040.19	95.6506
2040.44	107.754
2040.68	99.333
2040.93	88.122
2041.17	98.3623
2041.42	101.151
2041.67	98.3482
2041.91	96.4709
2042.16	103.915
2042.4	95.5076
2042.65	101.089
2042.9	103.884
2043.14	99.2345
2043.39	92.7371
2043.63	99.3017
2043.88	95.6127
2044.13	89.0983
2044.37	98.4239
2044.62	93.7371
2044.87	91.8303
2045.11	93.6124
2045.36	103.046
2045.6	102.152
2045.85	92.9524
2046.09	105.272
2046.34	97.7103
2046.59	98.5469
2046.83	103.14
2047.08	96.6081
2047.32	97.5138
2047.57	105.827
2047.81	98.3457
2048.06	105.807
2048.31	98.3548
2048.55	98.3617
2048.8	100.237
2049.04	90.0041
2049.29	98.4199
2049.53	93.7827
2049.78	102.22
2050.03	94.7781
2050.27	96.6738
2050.52	100.427
2050.76	92.9584
2051.01	96.6898
2051.26	106.011
2051.5	99.4433
2051.75	103.177
2051.99	107.848
2052.24	92.9226
2052.48	101.333
2052.73	98.5431
2052.98	96.6912
2053.22	98.5796
2053.47	94.867
2053.71	98.6538
2053.96	94.9321
2054.2	101.493
2054.45	98.6909
2054.69	93.0764
2054.94	103.361
2055.19	100.548
2055.43	92.1081
2055.68	102.383
2055.92	103.313
2056.17	99.5639
2056.41	93.9445
2056.66	93.9386
2056.9	99.5464
2057.15	100.486
2057.39	99.5598
2057.64	106.117
2057.88	98.6534
2058.13	97.7336
2058.37	96.8231
2058.62	105.267
2058.86	96.8668
2059.11	103.435
2059.35	107.187
2059.6	94.0865
2059.85	106.26
2060.09	96.8856
2060.34	91.2554
2060.58	92.1814
2060.83	102.489
2061.07	98.7597
2061.32	101.579
2061.56	104.393
2061.81	89.4149
2062.05	98.7816
2062.3	105.344
2062.54	99.7367
2062.79	98.8149
2063.03	96.023
2063.28	96.9767
2063.52	99.8018
2063.77	99.8133
2064.01	100.76
2064.26	102.643
2064.51	93.2809
2064.75	105.485
2065	99.8828
2065.24	97.0996
2065.49	107.45
2065.73	99.9678
2065.97	103.744
2066.22	104.698
2066.46	105.642
2066.71	106.593
2066.95	106.606
2067.2	99.101
2067.44	94.4173
2067.69	101.011
2067.93	104.785
2068.18	95.3978
2068.42	100.104
2068.67	97.2992
2068.91	109.522
2069.16	101.047
2069.4	97.2588
2069.65	99.0946
2069.89	103.774
2070.14	91.5744
2070.38	97.2517
2070.63	99.1823
2070.87	108.641
2071.12	92.6436
2071.36	103.899
2071.61	103.08
2071.85	95.5886
2072.1	93.6984
2072.34	97.4582
2072.59	105.93
2072.83	113.453
2073.08	99.3306
2073.32	96.5009
2073.56	103.096
2073.81	87.0939
2074.05	104.99
2074.3	105.944
2074.54	105.965
2074.79	99.3992
2075.03	94.7221
2075.28	98.5372
2075.52	97.6473
2075.77	96.7394
2076.01	103.366
2076.25	97.7044
2076.5	100.541
2076.74	91.0909
2076.99	102.397
2077.23	95.7684
2077.48	105.156
2077.72	97.6002
2077.97	99.4991
2078.21	102.351
2078.46	108.965
2078.7	99.54
2078.94	105.217
2079.19	98.6363
2079.43	104.349
2079.68	102.482
2079.92	103.445
2080.17	102.517
2080.41	108.201
2080.65	102.533
2080.9	98.7429
2081.14	104.405
2081.39	94.0097
2081.63	99.6777
2081.88	108.178
2082.12	97.7932
2082.37	104.416
2082.61	93.0821
2082.85	100.644
2083.1	103.478
2083.34	96.8592
2083.59	102.525
2083.83	107.251
2084.08	107.252
2084.32	112.921
2084.56	97.8042
2084.81	101.588
2085.05	102.534
2085.3	104.424
2085.54	104.425
2085.78	105.378
2086.03	95.9532
2086.27	100.713
2086.52	102.628
2086.76	102.639
2087	104.545
2087.25	104.563
2087.49	97.9485
2087.74	99.8425
2087.98	99.8445
2088.22	93.2227
2088.47	100.799
2088.71	95.1259
2088.96	92.2912
2089.2	97.0404
2089.44	96.1103
2089.69	98.9788
2089.93	99.935
2090.18	101.835
2090.42	99.9484
2090.66	95.2211
2090.91	111.341
2091.15	96.191
2091.39	102.836
2091.64	100.968
2091.88	102.896
2092.13	99.135
2092.37	100.117
2092.61	97.3045
2092.86	105.878
2093.1	98.3064
2093.35	97.3823
2093.59	96.4566
2093.83	102.18
2094.08	104.101
2094.32	106.96
2094.56	99.3536
2094.81	104.103
2095.05	89.8354
2095.3	94.5724
2095.54	106.909
2095.78	99.293
2096.03	98.3318
2096.27	100.225
2096.51	103.071
2096.76	108.767
2097	108.752
2097.24	106.831
2097.49	106.81
2097.73	108.7
2097.97	105.847
2098.22	93.5011
2098.46	97.285
2098.71	102.98
2098.95	107.723
2099.19	103.921
2099.44	100.121
2099.68	100.119
2099.92	104.866
2100.17	95.3791
2100.41	96.3339
2100.65	101.091
2100.9	105.864
2101.14	102.086
2101.39	107.798
2101.63	94.5071
2101.87	106.855
2102.11	102.104
2102.36	105.904
2102.6	102.098
2102.84	96.3837
2103.09	112.504
2103.33	97.3038
2103.58	101.098
2103.82	99.1946
2104.06	101.096
2104.3	107.751
2104.55	104.919
2104.79	103.036
2105.03	99.2524
2105.28	117.32
2105.52	105.945
2105.76	105.015
2106.01	100.275
2106.25	98.3843
2106.49	105.044
2106.74	102.197
2106.98	102.207
2107.22	101.259
2107.47	108.853
2107.71	105.98
2107.95	104.052
2108.2	110.673
2108.44	103.045
2108.68	103.974
2108.92	100.169
2109.17	106.821
2109.41	105.901
2109.66	96.4212
2109.9	109.722
2110.14	105.923
2110.38	104.973
2110.63	104.023
2110.87	96.4238
2111.11	107.823
2111.36	106.865
2111.6	108.75
2111.84	102.092
2112.08	97.3376
2112.33	103.036
2112.57	104.947
2112.81	96.4091
2113.06	109.721
2113.3	98.3474
2113.54	101.218
2113.78	98.3766
2114.03	103.122
2114.27	94.56
2114.51	96.4596
2114.76	105.018
2115	110.723
2115.24	115.469
2115.48	111.658
2115.73	101.197
2115.97	103.089
2116.21	102.117
2116.46	100.198
2116.7	107.787
2116.94	103.034
2117.18	104.929
2117.43	100.187
2117.67	95.4274
2117.91	97.3111
2118.15	102.99
2118.4	99.1662
2118.64	105.777
2118.88	104.805
2119.13	100.042
2119.37	101.917
2119.61	103.792
2119.85	101.878
2120.1	107.549
2120.34	109.439
2120.58	104.706
2120.82	103.777
2121.07	109.474
2121.31	109.5
2121.55	106.682
2121.79	101.964
2122.04	95.3448
2122.28	113.392
2122.52	102.97
2122.76	97.2893
2123.01	112.489
2123.25	100.157
2123.49	109.654
2123.73	111.544
2123.98	103.937
2124.22	101.072
2124.46	101.044
2124.7	101.003
2124.95	102.851
2125.19	103.753
2125.43	105.612
2125.67	103.686
2125.91	110.282
2126.16	107.415
2126.4	100.769
2126.64	104.531
2126.88	101.671
2127.13	96.9233
2127.37	99.7518
2127.61	107.311
2127.85	116.758
2128.09	106.347
2128.34	104.451
2128.58	107.288
2128.82	97.8355
2129.06	105.393
2129.31	104.44
2129.55	98.7624
2129.79	108.209
2130.03	107.258
2130.27	103.472
2130.52	106.299
2130.76	94.951
2131	107.22
2131.24	96.8141
2131.49	108.131
2131.73	106.228
2131.97	97.7209
2132.21	108.094
2132.45	104.296
2132.7	108.996
2132.94	100.494
2133.18	105.212
2133.42	104.273
2133.66	108.052
2133.91	112.772
2134.15	106.172
2134.39	108.062
2134.63	112.778
2134.87	106.169
2135.11	104.279
2135.36	103.329
2135.6	103.318
2135.84	99.5263
2136.08	101.38
2136.32	101.351
2136.57	108.879
2136.81	104.173
2137.05	111.718
2137.29	107.007
2137.53	108.907
2137.77	110.818
2138.02	102.317
2138.26	104.172
2138.5	102.267
2138.74	100.406
2138.98	106.097
2139.23	108.008
2139.47	107.942
2139.71	105.08
2139.95	102.236
2140.19	104.105
2140.43	101.266
2140.68	101.255
2140.92	105.957
2141.16	99.3558
2141.4	103.126
2141.64	110.634
2141.88	103.079
2142.13	103.072
2142.37	107.78
2142.61	108.745
2142.85	101.228
2143.09	102.266
2143.33	107.855
2143.57	105.677
2143.82	108.538
2144.06	112.312
2144.3	110.476
2144.54	104.87
2144.78	101.127
2145.02	113.279
2145.27	97.3165
2145.51	100.14
2145.75	106.715
2145.99	110.467
2146.23	105.757
2146.47	101.049
2146.71	104.8
2146.96	101.03
2147.2	105.714
2147.44	101.942
2147.68	96.2927
2147.92	102.858
2148.16	111.299
2148.4	104.712
2148.64	108.454
2148.89	106.559
2149.13	109.353
2149.37	106.509
2149.61	113.971
2149.85	103.628
2150.09	106.413
2150.33	101.706
2150.57	104.508
2150.82	100.759
2151.06	104.518
2151.3	101.723
2151.54	105.485
2151.78	100.812
2152.02	108.323
2152.26	102.707
2152.5	106.443
2152.75	99.8634
2152.99	101.72
2153.23	96.0802
2153.47	106.382
2153.71	101.686
2153.95	107.29
2154.19	108.199
2154.43	106.287
2154.67	99.6897
2154.92	108.069
2155.16	112.699
2155.4	101.443
2155.64	107.956
2155.88	109.798
2156.12	102.304
2156.36	108.834
2156.6	106.961
2156.84	105.09
2157.08	106.026
2157.32	106.97
2157.57	116.33
2157.81	109.81
2158.05	112.63
2158.29	105.156
2158.53	113.568
2158.77	93.9341
2159.01	105.141
2159.25	102.323
2159.49	100.438
2159.73	106.955
2159.97	101.325
2160.21	109.703
2160.46	109.678
2160.7	108.725
2160.94	101.249
2161.18	104.043
2161.42	111.496
2161.66	110.554
2161.9	105.886
2162.14	106.819
2162.38	109.619
2162.62	104.952
2162.86	111.47
2163.1	108.658
2163.34	107.714
2163.58	105.838
2163.83	106.758
2164.07	111.407
2164.31	104.856
2164.55	100.17
2164.79	105.746
2165.03	110.414
2165.27	113.218
2165.51	110.424
2165.75	102.971
2165.99	102.04
2166.23	111.343
2166.47	101.084
2166.71	108.52
2166.95	106.635
2167.19	108.482
2167.43	112.179
2167.67	99.1147
2167.91	107.435
2168.15	103.669
2168.4	112.025
2168.64	99.9386
2168.88	99.0161
2169.12	105.54
2169.36	107.424
2169.6	107.455
2169.84	102.841
2170.08	114.053
2170.32	109.42
2170.56	106.633
2170.8	107.555
2171.04	109.397
2171.28	109.383
2171.52	108.403
2171.76	111.119
2172	109.222
2172.24	104.555
2172.48	109.184
2172.72	116.604
2172.96	103.594
2173.2	114.741
2173.44	110.096
2173.68	108.247
2173.92	108.261
2174.16	103.624
2174.4	112.922
2174.64	117.571
2174.88	111.993
2175.12	111.061
2175.36	101.761
2175.6	100.826
2175.84	102.681
2176.08	111.038
2176.32	104.523
2176.56	111.011
2176.8	111.006
2177.04	109.149
2177.28	107.294
2177.52	112.869
2177.76	109.152
2178	107.297
2178.24	102.638
2178.48	107.255
2178.72	109.093
2178.96	113.735
2179.2	109.097
2179.44	107.242
2179.68	108.171
2179.92	109.1
2180.16	108.17
2180.4	105.381
2180.64	108.16
2180.88	110.01
2181.12	109.079
2181.36	113.712
2181.6	112.77
2181.84	114.616
2182.08	110.895
2182.32	112.737
2182.56	109.017
2182.8	112.715
2183.04	111.765
2183.28	108.028
2183.52	110.779
2183.76	107.977
2184	106.106
2184.24	112.579
2184.48	109.795
2184.72	111.655
2184.96	116.299
2185.2	111.674
2185.44	104.269
2185.68	108.918
2185.92	117.282
2186.16	106.175
2186.4	116.4
2186.64	117.362
2186.88	115.541
2187.12	100.723
2187.35	104.467
2187.59	121.206
2187.83	102.632
2188.07	108.192
2188.31	106.316
2188.55	105.366
2188.79	112.768
2189.03	107.173
2189.27	118.274
2189.51	108.96
2189.75	112.643
2189.99	109.848
2190.23	107.066
2190.47	110.776
2190.71	108.009
2190.95	108.94
2191.19	104.307
2191.43	103.387
2191.67	115.451
2191.9	109.898
2192.14	109.908
2192.38	113.627
2192.62	114.566
2192.86	120.156
2193.1	107.183
2193.34	108.131
2193.58	100.73
2193.82	114.713
2194.06	116.625
2194.3	109.223
2194.54	111.1
2194.78	116.665
2195.01	106.429
2195.26	105.488
2195.49	113.834
2195.73	110.092
2195.97	117.489
2196.21	104.449
2196.45	111.842
2196.69	109.96
2196.93	109.013
2197.17	121.054
2197.41	116.399
2197.65	113.623
2197.88	109.915
2198.12	113.641
2198.36	114.6
2198.6	109.988
2198.84	103.524
2199.08	113.778
2199.32	112.881
2199.56	106.415
2199.8	112.029
2200.04	107.438
2200.27	112.15
2200.52	111.27
2200.75	114.11
2200.99	114.141
2201.23	115.101
2201.47	115.965
2201.71	118.623
2201.95	109.056
2202.19	103.366
2202.43	116.477
2202.66	118.539
2202.9	118.598
2203.14	114.848
2203.38	114.823
2203.62	126.223
2203.86	112.467
2204.1	108.629
2204.34	118.894
2204.58	108.631
2204.81	103.891
2205.05	107.524
2205.29	114.883
2205.53	106.463
2205.77	112.028
2206.01	119.476
2206.25	112.065
2206.49	104.611
2206.72	109.233
2206.96	108.313
2207.2	114.84
2207.44	116.723
2207.68	108.376
2207.92	113.983
2208.16	114.008
2208.39	115.893
2208.63	116.845
2208.87	111.274
2209.11	112.217
2209.35	113.155
2209.59	107.566
2209.83	116.877
2210.07	110.366
2210.3	108.518
2210.54	107.603
2210.78	127.189
2211.02	105.775
2211.26	105.792
2211.5	107.676
2211.74	113.297
2211.97	112.386
2212.21	108.673
2212.45	104.945
2212.69	116.131
2212.93	106.792
2213.17	117.042
2213.4	106.761
2213.64	113.275
2213.88	116.084
2214.12	111.447
2214.36	109.638
2214.6	113.402
2214.83	118.082
2215.07	113.424
2215.31	104.096
2215.55	113.437
2215.79	114.374
2216.03	116.242
2216.26	113.439
2216.5	119.038
2216.74	114.364
2216.98	113.428
2217.22	108.761
2217.45	115.303
2217.69	106.905
2217.93	108.771
2218.17	116.24
2218.41	110.645
2218.65	116.261
2218.88	109.742
2219.12	113.5
2219.36	111.652
2219.6	108.859
2219.84	117.287
2220.08	114.492
2220.31	115.422
2220.55	111.68
2220.79	116.349
2221.03	100.45
2221.27	118.171
2221.5	112.538
2221.74	121.852
2221.98	111.56
2222.22	114.35
2222.46	109.683
2222.69	118.096
2222.93	108.778
2223.17	112.53
2223.41	114.419
2223.65	113.515
2223.88	111.681
2224.12	117.326
2224.36	113.619
2224.6	112.712
2224.84	117.415
2225.07	111.826
2225.31	111.856
2225.55	110.954
2225.79	116.596
2226.02	118.495
2226.26	111.963
2226.5	119.475
2226.74	114.819
2226.97	114.84
2227.21	110.171
2227.45	113.934
2227.69	109.252
2227.93	111.123
2228.16	109.238
2228.4	112.044
2228.64	112.975
2228.88	111.095
2229.12	118.589
2229.35	116.717
2229.59	103.616
2229.83	113.024
2230.06	112.113
2230.3	119.64
2230.54	110.279
2230.78	115.935
2231.02	116.9
2231.25	110.354
2231.49	112.261
2231.73	112.282
2231.97	122.644
2232.2	117.029
2232.44	109.531
2232.68	105.79
2232.92	118.979
2233.15	114.298
2233.39	113.379
2233.63	113.4
2233.87	120.946
2234.1	108.72
2234.34	112.477
2234.58	104.938
2234.82	112.453
2235.05	113.37
2235.29	117.092
2235.53	108.607
2235.77	106.732
2236	118.023
2236.24	119.911
2236.48	105.81
2236.72	115.221
2236.95	124.64
2237.19	117.143
2237.43	111.527
2237.67	120.046
2237.9	116.329
2238.14	112.602
2238.38	105.093
2238.61	110.78
2238.85	112.702
2239.09	120.286
2239.32	125.006
2239.56	114.615
2239.8	122.146
2240.04	113.618
2240.28	123.026
2240.51	114.529
2240.75	108.005
2240.99	121.234
2241.22	116.524
2241.46	108.041
2241.7	127.868
2241.93	117.494
2242.17	109.957
2242.41	112.801
2242.65	126.034
2242.88	110.926
2243.12	117.531
2243.36	114.68
2243.59	109.946
2243.83	113.716
2244.07	112.77
2244.3	116.552
2244.54	125.071
2244.78	120.393
2245.02	119.502
2245.25	121.432
2245.49	112.95
2245.73	115.81
2245.96	115.836
2246.2	117.752
2246.44	114.933
2246.67	122.511
2246.91	116.858
2247.15	112.142
2247.39	122.564
2247.62	115.943
2247.86	114.048
2248.1	117.827
2248.33	124.445
2248.57	121.599
2248.81	122.54
2249.04	124.425
2249.28	119.691
2249.52	122.562
2249.75	117.839
2249.99	122.567
2250.23	113.085
2250.46	122.523
2250.7	119.661
2250.94	124.36
2251.17	118.668
2251.41	121.489
2251.65	114.869
2251.88	123.386
2252.12	114.892
2252.36	123.424
2252.59	114.939
2252.83	119.714
2253.07	117.891
2253.3	118.877
2253.54	119.859
2253.78	105.67
2254.01	118.96
2254.25	121.828
2254.49	117.101
2254.72	110.463
2254.96	118.037
2255.2	118.048
2255.43	118.996
2255.67	122.795
2255.91	124.7
2256.14	116.189
2256.38	117.16
2256.62	122.874
2256.85	116.252
2257.09	126.714
2257.33	115.343
2257.56	116.31
2257.8	114.423
2258.03	119.177
2258.27	116.335
2258.51	115.395
2258.74	116.358
2258.98	114.476
2259.22	118.294
2259.45	110.703
2259.69	121.168
2259.93	116.431
2260.16	111.69
2260.4	112.653
2260.63	119.321
2260.87	115.542
2261.11	109.871
2261.34	114.647
2261.58	115.604
2261.82	110.855
2262.05	114.672
2262.29	108.022
2262.52	119.463
2262.76	115.682
2263	120.472
2263.23	110.98
2263.47	110.064
2263.7	112.965
2263.94	111.103
2264.18	115.916
2264.41	119.772
2264.65	110.26
2264.88	116.97
2265.12	117.95
2265.36	116.056
2265.59	110.329
2265.83	108.42
2266.06	109.363
2266.3	116.023
2266.54	112.177
2266.77	114.059
2267.01	111.174
2267.24	115.928
2267.48	112.095
2267.72	117.798
2267.95	112.053
2268.19	114.899
2268.43	110.128
2268.66	117.765
2268.9	115.878
2269.13	110.182
2269.37	110.213
2269.6	113.109
2269.84	115.056
2270.08	112.23
2270.31	105.574
2270.55	117.06
2270.78	122.814
2271.02	113.281
2271.25	116.168
2271.49	107.578
2271.73	114.291
2271.96	118.137
2272.2	104.754
2272.43	107.628
2272.67	113.374
2272.91	115.295
2273.14	114.345
2273.38	115.309
2273.61	110.532
2273.85	115.324
2274.08	92.3598
2274.32	107.679
2274.55	119.172
2274.79	112.479
2275.03	111.531
2275.26	121.113
2275.5	113.457
2275.73	109.631
2275.97	112.525
2276.2	110.638
2276.44	114.498
2276.68	115.481
2276.91	106.879
2277.15	105.949
2277.38	115.579
2277.62	114.664
2277.85	113.754
2278.09	109.951
2278.32	121.49
2278.56	119.576
2278.79	117.656
2279.03	109.007
2279.27	112.839
2279.5	117.607
2279.74	121.4
2279.97	127.123
2280.21	114.621
2280.44	118.432
2280.68	108.824
2280.91	113.604
2281.15	113.593
2281.38	111.662
2281.62	111.661
2281.86	120.299
2282.09	113.601
2282.33	119.374
2282.56	110.769
2282.8	114.633
2283.03	104.107
2283.27	107.981
2283.5	111.87
2283.74	109.039
2283.97	123.506
2284.21	110.096
2284.44	107.233
2284.68	119.756
2284.91	112.089
2285.15	120.769
2285.38	107.306
2285.62	112.113
2285.85	109.192
2286.09	108.204
2286.32	116.863
2286.56	117.835
2286.79	115.947
2287.03	117.927
2287.27	111.222
2287.5	110.272
2287.73	110.297
2287.97	112.239
2288.2	117.044
2288.44	119.917
2288.68	118.936
2288.91	116.021
2289.14	106.357
2289.38	114.98
2289.61	116.857
2289.85	113.939
2290.09	123.537
2290.32	111.035
2290.55	119.687
2290.79	117.773
2291.02	119.72
2291.26	117.834
2291.49	114.021
2291.73	106.346
2291.96	121.766
2292.2	112.161
2292.43	114.112
2292.67	117.03
2292.9	124.762
2293.14	112.257
2293.37	113.237
2293.61	113.25
2293.84	104.576
2294.08	110.349
2294.31	104.554
2294.55	110.316
2294.78	120.895
2295.02	117.026
2295.25	111.232
2295.49	121.808
2295.72	116.017
2295.95	110.227
2296.19	110.185
2296.42	116.892
2296.66	116.894
2296.89	110.172
2297.13	108.265
2297.36	107.326
2297.6	112.166
2297.83	115.094
2298.07	114.165
2298.3	113.223
2298.54	115.169
2298.77	116.161
2299	108.476
2299.24	123.93
2299.47	123.952
2299.71	107.557
2299.94	115.277
2300.18	118.167
2300.41	116.242
2300.65	113.367
2300.88	108.56
2301.11	127.877
2301.35	121.134
2301.58	109.558
2301.82	119.212
2302.05	116.31
2302.29	118.228
2302.52	111.472
2302.76	111.474
2302.99	118.225
2303.22	113.396
2303.46	118.221
2303.69	115.331
2303.93	118.244
2304.16	110.543
2304.4	115.386
2304.63	116.365
2304.87	115.422
2305.1	114.476
2305.33	115.451
2305.57	114.493
2305.8	119.336
2306.04	118.389
2306.27	110.666
2306.51	114.538
2306.74	112.606
2306.97	113.571
2307.21	117.433
2307.44	112.586
2307.68	123.205
2307.91	117.4
2308.14	111.589
2308.38	111.587
2308.61	114.484
2308.85	115.464
2309.08	106.786
2309.32	117.438
2309.55	115.542
2309.78	117.511
2310.02	119.465
2310.25	117.539
2310.48	114.638
2310.72	116.567
2310.95	115.585
2311.19	120.384
2311.42	106.763
2311.66	122.169
2311.89	113.437
2312.12	118.246
2312.36	115.331
2312.59	119.171
2312.82	119.16
2313.06	107.587
2313.29	115.327
2313.53	121.168
2313.76	115.415
2313.99	119.313
2314.23	125.149
2314.46	120.354
2314.7	119.442
2314.93	122.372
2315.16	122.38
2315.4	105.896
2315.63	118.444
2315.86	108.752
2316.1	108.715
2316.33	116.382
2316.57	116.362
2316.8	115.385
2317.03	117.319
2317.27	114.43
2317.5	107.683
2317.73	115.444
2317.97	117.379
2318.2	117.332
2318.44	114.425
2318.67	118.27
2318.9	115.355
2319.14	109.546
2319.37	108.567
2319.6	119.171
2319.84	116.271
2320.07	120.135
2320.3	128.822
2320.54	117.245
2320.77	116.296
2321	117.281
2321.24	118.267
2321.47	122.154
2321.71	118.321
2321.94	112.561
2322.17	121.294
2322.41	121.32
2322.64	130.026
2322.87	127.121
2323.11	117.464
2323.34	123.274
2323.57	117.48
2323.81	125.224
2324.04	112.654
2324.27	118.45
2324.51	119.406
2324.74	125.17
2324.97	125.129
2325.21	121.224
2325.44	123.132
2325.67	136.626
2325.91	126.945
2326.14	139.466
2326.37	135.576
2326.61	146.159
2326.84	146.128
2327.07	148.989
2327.31	168.242
2327.54	183.642
2327.77	219.276
2328.01	268.419
2328.24	328.196
2328.47	387.958
2328.71	391.801
2328.94	357.982
2329.17	263.495
2329.41	219.127
2329.64	182.518
2329.87	162.294
2330.11	140.155
2330.34	142.066
2330.57	126.646
2330.81	141.082
2331.04	134.342
2331.27	126.652
2331.51	122.82
2331.74	118.99
2331.97	114.185
2332.2	118
2332.44	119.908
2332.67	124.707
2332.9	117.95
2333.14	120.823
2333.37	121.772
2333.6	112.134
2333.84	123.672
2334.07	109.219
2334.3	116.894
2334.53	114.942
2334.77	127.432
2335	112.997
2335.23	121.649
2335.47	112.991
2335.7	120.692
2335.93	112.042
2336.16	124.536
2336.4	119.716
2336.63	124.518
2336.86	112.014
2337.1	111.048
2337.33	106.236
2337.56	120.651
2337.79	115.835
2338.03	120.635
2338.26	113.901
2338.49	125.431
2338.73	117.741
2338.96	113.902
2339.19	118.71
2339.42	116.786
2339.66	124.47
2339.89	114.847
2340.12	122.518
2340.35	113.85
2340.59	115.75
2340.82	118.603
2341.05	116.647
2341.28	108.929
2341.52	106.012
2341.75	120.375
2341.98	113.642
2342.22	121.294
2342.45	122.237
2342.68	111.681
2342.91	115.512
2343.15	112.636
2343.38	115.511
2343.61	119.34
2343.84	113.587
2344.07	119.343
2344.31	119.351
2344.54	121.27
2344.77	115.513
2345	114.545
2345.24	121.239
2345.47	116.424
2345.7	119.27
2345.93	120.207
2346.17	115.401
2346.4	116.353
2346.63	116.347
2346.86	112.51
2347.1	114.415
2347.33	116.324
2347.56	112.495
2347.79	118.245
2348.03	120.171
2348.26	119.227
2348.49	119.233
2348.72	112.524
2348.96	110.595
2349.19	110.565
2349.42	113.386
2349.65	119.073
2349.88	118.052
2350.12	121.795
2350.35	127.404
2350.58	116.709
2350.81	114.721
2351.04	121.705
2351.28	123.941
2351.51	123.891
2351.74	115.06
2351.97	113.09
2352.21	117.885
2352.44	115.001
2352.67	121.586
2352.9	119.577
2353.14	124.303
2353.37	123.375
2353.6	114.782
2353.83	121.436
2354.06	112.866
2354.3	116.683
2354.53	125.298
2354.76	121.495
2354.99	109.102
2355.22	115.763
2355.45	117.659
2355.69	116.694
2355.92	114.774
2356.15	118.558
2356.38	118.506
2356.62	119.403
2356.85	119.372
2357.08	127.909
2357.31	115.527
2357.54	114.558
2357.77	114.542
2358.01	113.575
2358.24	115.473
2358.47	115.449
2358.7	116.383
2358.93	117.323
2359.17	120.168
2359.4	115.408
2359.63	121.09
2359.86	116.318
