#Acq. time (s)=	30
#Accumulations=	2
#Range (cm-¹)=	1200...2400
#Windows=	4
#Auto scanning=	Off
#Autofocus=	Off
#Macrospot=	Off
#AutoExposure=	Off
#Spike filter=	Multiple accum.
#Delay time (s)=	2
#Binning=	1
#Readout mode=	Signal
#DeNoise=	Off
#ICS correction=	On
#Dark correction=	Off
#Inst. Process=	Off
#Detector Gain=	Best Dynamic
#Detector ADC=	50 kHz HS
#Detector temperature (°C)=	-60.09
#Instrument=	LabRAM HR Evol
#Detector=	SIN-EM FIVIS
#Objective=	x100_VIS
#Grating=	1800 (450-850nm)
#ND Filter=	100%
#Laser=	532nm_Edge
#Hole=	49.98
#Temperature=	0
#Range=	Visible
#StageXY=	75x50mm Scan+
#StageZ=	Z motor
#X (µm)=	0
#Y (µm)=	0
#Z (µm)=	-274.1
#Full time(mm:ss)=	4:21
#Project=	21_11_04
#Sample=	BU19w
#Site=	
#Title=	BU19w-E-FF11b-FI07-V_1800 (450-850nm)_532nm_Edge_100%_x100_VIS_H50um_30sX2
#Remark=	
#Date=	04.11.2021 17:55
#Acquired=	04.11.2021 17:55:30
1200.19	21.0114
1200.46	18.8537
1200.74	19.9211
1201.02	19.9063
1201.3	22.0444
1201.57	17.7351
1201.85	20.9603
1202.13	18.8269
1202.41	21.0172
1202.69	18.8465
1202.96	18.8393
1203.24	19.8953
1203.52	22.0438
1203.8	22.0314
1204.08	20.9657
1204.35	22.0389
1204.63	19.8835
1204.91	18.8004
1205.19	19.8667
1205.47	16.6368
1205.74	17.7018
1206.02	19.8382
1206.3	24.1162
1206.58	17.6772
1206.85	21.9552
1207.13	21.9502
1207.41	20.8747
1207.69	20.8715
1207.97	16.5862
1208.24	20.8601
1208.52	19.7852
1208.8	19.7809
1209.08	17.641
1209.36	19.7784
1209.63	19.7758
1209.91	20.8388
1210.19	20.8299
1210.46	20.8222
1210.74	20.8152
1211.02	21.875
1211.3	24.0012
1211.57	21.859
1211.85	19.7197
1212.13	19.7142
1212.41	20.7738
1212.69	19.7033
1212.96	18.6351
1213.24	22.8908
1213.52	26.0822
1213.79	17.5663
1214.07	16.5022
1214.35	19.6962
1214.63	20.7605
1214.9	18.6304
1215.18	20.7584
1215.46	22.8839
1215.74	22.8771
1216.01	18.6136
1216.29	20.7321
1216.57	19.6619
1216.85	21.7811
1217.12	21.7747
1217.4	22.8309
1217.68	23.8874
1217.95	19.6363
1218.23	22.8166
1218.51	22.8147
1218.79	21.7517
1219.06	21.7497
1219.34	23.8673
1219.62	23.8647
1219.89	21.7435
1220.17	18.5609
1220.45	22.8022
1220.73	22.7986
1221	23.8552
1221.28	21.7299
1221.56	20.663
1221.84	22.7727
1222.11	22.7618
1222.39	22.7502
1222.67	19.5672
1222.94	23.7864
1223.22	21.6647
1223.5	22.7127
1223.77	20.5935
1224.05	26.9246
1224.33	23.7523
1224.61	18.4725
1224.88	24.806
1225.16	25.8661
1225.44	24.8128
1225.71	21.6468
1225.99	24.8127
1226.27	24.8099
1226.54	27.9718
1226.82	25.8532
1227.1	25.8352
1227.37	24.7598
1227.65	25.7984
1227.93	23.6754
1228.21	22.6031
1228.48	25.7445
1228.76	20.5098
1229.03	26.884
1229.31	21.6314
1229.59	26.8817
1229.86	27.9161
1230.14	23.6989
1230.42	25.802
1230.69	27.8729
1230.97	22.5909
1231.25	23.6438
1231.52	22.5925
1231.8	26.7936
1232.08	26.7916
1232.35	26.7907
1232.63	25.738
1232.91	25.7362
1233.18	20.4841
1233.46	23.6372
1233.74	24.69
1234.01	21.5406
1234.29	25.7479
1234.57	23.649
1234.84	24.702
1235.12	25.756
1235.4	24.7076
1235.67	25.7602
1235.95	23.6556
1236.23	26.806
1236.5	19.4443
1236.78	23.6418
1237.06	21.5328
1237.33	22.575
1237.61	23.6167
1237.88	23.608
1238.16	24.6488
1238.44	26.7406
1238.71	22.5425
1238.99	24.6364
1239.27	25.6824
1239.54	24.6329
1239.82	19.3914
1240.1	21.488
1240.37	26.73
1240.65	23.5867
1240.92	21.4904
1241.2	21.4867
1241.48	21.4831
1241.75	25.6731
1242.03	26.7231
1242.3	26.7241
1242.58	23.5853
1242.86	24.6349
1243.13	20.4406
1243.41	21.4901
1243.68	21.4916
1243.96	21.4901
1244.24	26.73
1244.51	23.5823
1244.79	22.5281
1245.06	22.5226
1245.34	24.6077
1245.62	27.7415
1245.89	20.4122
1246.17	25.6441
1246.44	25.6451
1246.72	22.5037
1247	24.5949
1247.27	19.3618
1247.55	27.7291
1247.82	22.4882
1248.1	25.6236
1248.38	20.3941
1248.65	23.5337
1248.93	23.5346
1249.2	19.349
1249.48	24.5782
1249.75	23.5313
1250.03	23.5252
1250.31	26.6553
1250.58	22.4693
1250.86	20.3754
1251.13	26.6401
1251.41	21.4128
1251.69	22.4532
1251.96	22.449
1252.24	24.5325
1252.51	25.5712
1252.79	24.5237
1253.06	21.3917
1253.34	25.5674
1253.61	28.7031
1253.89	25.577
1254.17	28.7136
1254.44	25.5825
1254.72	26.6276
1254.99	25.5846
1255.27	24.5397
1255.54	21.4068
1255.82	23.4966
1256.09	27.6769
1256.37	26.6353
1256.65	26.6356
1256.92	26.633
1257.2	28.7185
1257.47	24.5392
1257.75	29.758
1258.02	25.5793
1258.3	25.5745
1258.57	29.7454
1258.85	27.6595
1259.13	32.8808
1259.4	29.7602
1259.67	32.8951
1259.95	28.7114
1260.23	30.7897
1260.5	29.7368
1260.78	29.7305
1261.05	32.8557
1261.33	31.8285
1261.6	38.1284
1261.88	36.0956
1262.15	43.3846
1262.43	39.1494
1262.7	43.2721
1262.98	48.5078
1263.25	52.7261
1263.53	46.4958
1263.8	47.5968
1264.08	44.4437
1264.35	38.1516
1264.63	43.3729
1264.9	30.8326
1265.18	31.8707
1265.45	27.6885
1265.73	29.7791
1266	26.647
1266.28	27.6964
1266.55	28.7474
1266.83	28.7546
1267.1	31.9004
1267.38	28.7712
1267.66	27.7347
1267.93	29.8431
1268.2	24.6135
1268.48	24.6178
1268.75	26.7172
1269.03	27.7678
1269.31	27.7628
1269.58	28.8033
1269.85	26.7006
1270.13	27.7422
1270.4	26.689
1270.68	31.9181
1270.95	30.8694
1271.23	27.7277
1271.5	29.8249
1271.78	27.7391
1272.05	26.7009
1272.33	26.7103
1272.6	26.7169
1272.88	28.8201
1273.15	31.9726
1273.43	29.8839
1273.7	27.7932
1273.98	25.6987
1274.25	26.7479
1274.53	29.8939
1274.8	30.9442
1275.07	30.9484
1275.35	26.7565
1275.62	27.8114
1275.9	28.8672
1276.17	27.8227
1276.45	27.8275
1276.72	22.5812
1277	34.1427
1277.27	33.1002
1277.54	29.9545
1277.82	33.1139
1278.1	29.9673
1278.37	34.1811
1278.64	33.1352
1278.92	37.3454
1279.19	42.6027
1279.47	37.3393
1279.74	43.6462
1280.02	45.7504
1280.29	58.3755
1280.56	56.2809
1280.84	71.0296
1281.11	100.519
1281.39	117.365
1281.66	162.631
1281.94	222.662
1282.21	287.934
1282.49	363.642
1282.76	441.201
1283.03	488.188
1283.31	511.25
1283.58	459.662
1283.86	353.129
1284.13	234.428
1284.41	170.19
1284.68	119.573
1284.95	90.0324
1285.23	71.0639
1285.5	57.3867
1285.78	51.078
1286.05	45.804
1286.32	43.6948
1286.6	38.4296
1286.87	35.2676
1287.15	35.2616
1287.42	34.2034
1287.69	34.2014
1287.97	32.0972
1288.24	32.0982
1288.52	33.1542
1288.79	32.1072
1289.06	31.0601
1289.34	26.8537
1289.61	26.8597
1289.89	28.9703
1290.16	30.0207
1290.43	28.9647
1290.71	30.0171
1290.98	25.804
1291.26	25.8037
1291.53	26.8555
1291.8	23.6973
1292.08	27.9121
1292.35	30.0145
1292.62	26.8543
1292.9	28.9635
1293.17	25.8159
1293.45	27.934
1293.72	30.0555
1293.99	26.8899
1294.27	26.8909
1294.54	22.6704
1294.82	26.8975
1295.09	29.0208
1295.36	26.9264
1295.64	24.8324
1295.91	22.7247
1296.18	23.7825
1296.46	25.8966
1296.73	26.9494
1297.01	22.7179
1297.28	25.8824
1297.55	22.7078
1297.83	24.8155
1298.1	23.7633
1298.37	27.9835
1298.65	25.8675
1298.92	25.864
1299.19	25.8608
1299.47	20.5844
1299.74	26.9229
1300.02	22.7013
1300.29	22.7013
1300.56	20.5886
1300.84	24.8117
1301.11	21.6463
1301.38	23.7624
1301.65	23.7655
1301.93	24.8234
1302.2	22.7111
1302.47	22.7104
1302.75	27.9896
1303.02	26.9298
1303.29	19.5349
1303.57	23.7584
1303.84	21.6469
1304.12	20.591
1304.39	24.8134
1304.66	20.587
1304.94	25.8607
1305.21	24.7997
1305.48	25.849
1305.75	23.7335
1306.03	22.6753
1306.3	21.6194
1306.57	23.7296
1306.85	25.8406
1307.12	21.622
1307.39	27.9501
1307.67	22.6772
1307.94	15.2939
1308.21	24.7863
1308.49	22.6792
1308.76	22.6826
1309.03	25.8514
1309.31	24.7996
1309.58	23.7454
1309.85	20.5783
1310.13	23.7434
1310.4	24.7992
1310.67	23.7452
1310.94	24.8018
1311.22	21.6367
1311.49	22.6951
1311.76	24.8106
1312.04	18.4781
1312.31	22.7028
1312.58	20.5884
1312.85	21.6417
1313.13	22.6968
1313.4	22.6946
1313.67	23.7491
1313.95	22.6941
1314.22	23.7516
1314.49	24.81
1314.76	20.5896
1315.04	21.6482
1315.31	18.4827
1315.58	19.5403
1315.86	21.6515
1316.13	24.8187
1316.4	23.7618
1316.67	19.5371
1316.95	19.5381
1317.22	17.4283
1317.49	23.7679
1317.77	22.7128
1318.04	22.7136
1318.31	21.6576
1318.58	21.6574
1318.86	23.7696
1319.13	19.5432
1319.4	22.7125
1319.67	21.6571
1319.95	23.7698
1320.22	19.5424
1320.49	22.7075
1320.76	20.5901
1321.04	23.7508
1321.31	23.7448
1321.58	20.5742
1321.85	22.6794
1322.13	21.6216
1322.4	20.5641
1322.67	20.5603
1322.94	23.7222
1323.22	23.7243
1323.49	17.3985
1323.76	19.5073
1324.03	20.5617
1324.31	25.8335
1324.58	18.4533
1324.85	21.6154
1325.12	21.608
1325.4	24.7584
1325.67	24.7415
1325.94	20.5195
1326.21	21.5669
1326.48	22.6203
1326.76	21.58
1327.03	25.8038
1327.3	22.652
1327.57	23.7143
1327.85	18.4518
1328.12	22.6777
1328.39	25.8492
1328.66	22.6819
1328.93	22.6828
1329.21	24.7936
1329.48	24.7923
1329.75	20.5703
1330.02	20.5673
1330.3	21.6177
1330.57	24.7748
1330.84	23.7131
1331.11	24.7563
1331.38	21.5871
1331.66	22.6334
1331.93	21.5746
1332.2	19.4637
1332.47	22.6118
1332.74	23.6556
1333.01	22.597
1333.29	23.6412
1333.56	21.5336
1333.83	21.5279
1334.1	22.5722
1334.37	20.4678
1334.65	22.5627
1334.92	20.4599
1335.19	18.3581
1335.46	18.355
1335.73	19.4007
1336.01	20.4466
1336.28	21.4923
1336.55	21.4901
1336.82	23.5846
1337.09	21.4865
1337.37	21.4838
1337.64	22.5246
1337.91	20.4259
1338.18	24.6125
1338.45	22.5137
1338.72	20.4182
1339	22.5122
1339.27	23.5609
1339.54	19.3732
1339.81	22.515
1340.08	20.4217
1340.35	22.5167
1340.63	20.4213
1340.9	21.4676
1341.17	20.4186
1341.44	20.4161
1341.71	23.5528
1341.98	20.4077
1342.26	21.4484
1342.53	20.3973
1342.8	23.5332
1343.07	23.5318
1343.34	24.5772
1343.61	24.5772
1343.88	21.4401
1344.16	24.5771
1344.43	18.2999
1344.7	23.524
1344.97	19.3371
1345.24	20.376
1345.51	20.3708
1345.79	22.4512
1346.06	22.4408
1346.33	21.3909
1346.6	21.3845
1346.87	23.4637
1347.14	19.2877
1347.41	22.4119
1347.68	22.4094
1347.95	20.3232
1348.23	21.3634
1348.5	26.5694
1348.77	21.3557
1349.04	19.2686
1349.31	22.3892
1349.58	22.3852
1349.86	21.3403
1350.13	21.3359
1350.4	20.2901
1350.67	24.4469
1350.94	23.402
1351.21	19.2381
1351.48	22.3565
1351.75	24.4371
1352.02	25.4809
1352.3	24.4471
1352.57	22.3716
1352.84	21.3402
1353.11	23.4443
1353.38	22.4065
1353.65	23.421
1353.92	24.4289
1354.19	25.4546
1354.46	27.536
1354.73	21.2995
1355.01	22.3292
1355.28	25.4465
1355.55	25.4588
1355.82	24.4137
1356.09	20.2556
1356.36	22.3311
1356.63	24.4064
1356.9	26.4807
1357.17	25.4386
1357.44	27.5108
1357.71	21.2782
1357.99	23.3499
1358.26	24.3838
1358.53	24.3783
1358.8	24.3742
1359.07	20.2228
1359.34	26.4419
1359.61	23.3233
1359.88	26.426
1360.15	23.3106
1360.42	25.3793
1360.69	23.3064
1360.96	22.2706
1361.23	24.3409
1361.5	22.268
1361.78	25.3715
1362.05	23.2983
1362.32	27.4377
1362.59	25.367
1362.86	29.5116
1363.13	26.4102
1363.4	28.4844
1363.67	25.3799
1363.94	28.4859
1364.21	26.4123
1364.48	26.4089
1364.75	22.2619
1365.02	28.468
1365.29	22.2516
1365.56	25.3508
1365.83	28.4486
1366.11	27.4073
1366.38	25.331
1366.65	25.3232
1366.92	23.2536
1367.19	24.2861
1367.46	26.3571
1367.73	25.325
1368	30.4952
1368.27	29.4633
1368.54	37.7363
1368.81	52.2148
1369.08	47.0456
1369.35	36.701
1369.62	33.5958
1369.89	23.255
1370.16	29.4496
1370.43	29.4456
1370.7	27.3734
1370.97	28.3978
1371.24	26.3232
1371.51	27.3448
1371.78	24.2403
1372.05	28.3574
1372.32	28.351
1372.59	26.285
1372.86	27.3123
1373.13	29.3702
1373.4	27.3066
1373.67	29.3652
1373.94	29.3632
1374.21	31.4216
1374.48	27.2981
1374.75	28.3265
1375.02	31.4191
1375.29	32.4513
1375.56	30.3914
1375.83	30.3894
1376.1	30.382
1376.37	31.4033
1376.64	30.362
1376.91	29.327
1377.18	33.4489
1377.45	35.5183
1377.72	35.5335
1377.99	35.5528
1378.26	38.6597
1378.53	33.508
1378.8	37.6293
1379.07	32.4703
1379.34	34.5264
1379.61	35.5478
1379.88	34.4957
1380.15	37.5609
1380.42	36.514
1380.69	38.568
1380.96	43.7102
1381.23	44.7232
1381.5	44.7015
1381.77	44.6806
1382.04	42.6102
1382.31	47.7253
1382.58	46.684
1382.85	49.7468
1383.12	52.8119
1383.39	56.903
1383.66	55.8747
1383.93	62.0288
1384.2	74.3419
1384.47	84.6121
1384.74	108.241
1385.01	119.565
1385.28	160.662
1385.55	224.342
1385.82	328.108
1386.09	487.361
1386.36	750.35
1386.62	1060.48
1386.89	1163.52
1387.16	940.235
1387.43	598.424
1387.7	347.084
1387.97	225.768
1388.24	144.054
1388.51	111.374
1388.78	79.5665
1389.05	73.424
1389.32	65.205
1389.59	52.8572
1389.86	47.68
1390.13	45.6381
1390.4	42.5432
1390.67	38.4333
1390.94	41.5072
1391.21	38.4263
1391.47	34.3189
1391.74	39.4311
1392.01	32.2555
1392.28	35.3222
1392.55	35.3177
1392.82	27.1252
1393.09	32.2401
1393.36	29.1671
1393.63	32.2349
1393.9	35.3027
1394.17	25.0686
1394.44	30.1839
1394.71	31.2131
1394.97	30.194
1395.24	30.1973
1395.51	26.1032
1395.78	28.149
1396.05	30.1932
1396.32	27.1193
1396.59	26.0927
1396.86	23.0181
1397.13	32.2205
1397.4	29.1501
1397.66	26.0822
1397.93	25.0617
1398.2	30.1796
1398.47	27.1122
1398.74	26.0914
1399.01	26.0956
1399.28	25.0748
1399.55	29.1705
1399.82	27.1245
1400.09	22.0108
1400.35	24.0633
1400.62	27.137
1400.89	27.1374
1401.16	28.1638
1401.43	24.07
1401.7	26.1296
1401.97	24.0943
1402.24	24.1076
1402.5	27.1959
1402.77	32.3357
1403.04	27.2059
1403.31	28.2307
1403.58	28.2209
1403.85	34.3685
1404.12	26.1627
1404.39	26.1602
1404.65	30.2596
1404.92	31.2799
1405.19	34.3505
1405.46	36.3951
1405.73	35.3651
1406	35.3617
1406.27	38.4356
1406.54	43.563
1406.8	41.5163
1407.07	44.5951
1407.34	51.7746
1407.61	64.0814
1407.88	66.136
1408.15	68.1913
1408.42	69.2226
1408.68	67.1777
1408.95	61.0293
1409.22	53.8533
1409.49	52.8303
1409.76	36.4143
1410.03	33.3297
1410.29	33.3199
1410.56	30.2359
1410.83	26.1308
1411.1	24.0776
1411.37	30.222
1411.64	26.1251
1411.9	29.2042
1412.17	23.0642
1412.44	25.1377
1412.71	23.1106
1412.98	26.1951
1413.25	21.0321
1413.51	23.0695
1413.78	22.0539
1414.05	22.0689
1414.32	23.0995
1414.59	24.1261
1414.86	21.0467
1415.12	21.0469
1415.39	27.2087
1415.66	24.1306
1415.93	23.1061
1416.2	19.0003
1416.47	25.1655
1416.73	22.0867
1417	24.1443
1417.27	22.0915
1417.54	24.1476
1417.81	23.1206
1418.07	21.0669
1418.34	22.0949
1418.61	23.1238
1418.88	23.1232
1419.15	21.0649
1419.41	23.1155
1419.68	21.0569
1419.95	17.9721
1420.22	31.3163
1420.49	23.0975
1420.75	24.1202
1421.02	23.0931
1421.29	18.9899
1421.56	23.1045
1421.83	22.0834
1422.09	26.2033
1422.36	24.1622
1422.63	25.2171
1422.9	24.2041
1423.17	21.0183
1423.43	24.1048
1423.7	23.0658
1423.97	20.9951
1424.24	23.0598
1424.5	24.0802
1424.77	22.0621
1425.04	23.0671
1425.31	20.0039
1425.58	21.0302
1425.84	16.9257
1426.11	22.0494
1426.38	18.9681
1426.65	19.9878
1426.91	21.0068
1427.18	22.0212
1427.45	23.0403
1427.72	22.0136
1427.98	22.0131
1428.25	18.9423
1428.52	23.0396
1428.79	19.9696
1429.06	18.9481
1429.32	21.0002
1429.59	18.956
1429.86	23.0612
1430.12	19.99
1430.39	21.023
1430.66	17.955
1430.93	18.9863
1431.2	17.9621
1431.46	20.0139
1431.73	22.0614
1432	21.0306
1432.26	22.0538
1432.53	21.0201
1432.8	26.1374
1433.07	21.0034
1433.33	19.9718
1433.6	19.9683
1433.87	19.9684
1434.14	19.9803
1434.4	17.9321
1434.67	22.0317
1434.94	17.9328
1435.21	21.0064
1435.47	19.9808
1435.74	22.0288
1436.01	19.9782
1436.28	22.0253
1436.54	23.0477
1436.81	22.0219
1437.08	20.997
1437.34	24.0671
1437.61	18.9463
1437.88	20.9967
1438.15	18.9509
1438.41	17.9279
1438.68	22.0266
1438.95	18.9549
1439.21	21.008
1439.48	18.9632
1439.75	19.9929
1440.01	22.0458
1440.28	23.0723
1440.55	15.8948
1440.82	16.9206
1441.08	21.0204
1441.35	19.9923
1441.62	19.9929
1441.88	19.9957
1442.15	19.9977
1442.42	19.9994
1442.69	21.0221
1442.95	23.0695
1443.22	21.0163
1443.49	17.9395
1443.75	19.9897
1444.02	19.9928
1444.29	23.0749
1444.55	17.9523
1444.82	18.9814
1445.09	22.0577
1445.35	17.9524
1445.62	18.9767
1445.89	18.9753
1446.15	23.0765
1446.42	18.9726
1446.69	17.9457
1446.95	15.8931
1447.22	17.9417
1447.49	18.9657
1447.76	18.967
1448.02	18.971
1448.29	19.9997
1448.56	22.0519
1448.82	18.9742
1449.09	21.0235
1449.35	18.9698
1449.62	18.9667
1449.89	19.9895
1450.15	21.013
1450.42	16.9116
1450.69	19.985
1450.96	18.9585
1451.22	19.9814
1451.49	17.9305
1451.75	16.9048
1452.02	22.0272
1452.29	15.8805
1452.55	21.005
1452.82	17.9332
1453.09	17.9345
1453.35	19.9837
1453.62	18.9576
1453.89	22.0313
1454.15	16.9079
1454.42	18.9573
1454.68	19.9811
1454.95	18.9555
1455.22	18.9576
1455.48	22.0351
1455.75	17.9367
1456.02	18.9612
1456.28	18.959
1456.55	22.0296
1456.82	19.978
1457.08	16.9034
1457.35	21
1457.61	17.9266
1457.88	18.9512
1458.15	18.952
1458.41	18.9532
1458.68	15.8804
1458.95	18.9549
1459.21	19.9795
1459.48	17.9295
1459.74	19.9773
1460.01	14.8539
1460.28	16.9013
1460.54	16.8993
1460.81	19.9695
1461.08	18.943
1461.34	18.9402
1461.61	18.9371
1461.87	15.8632
1462.14	17.9065
1462.41	17.9026
1462.67	14.8302
1462.94	17.8944
1463.2	18.9135
1463.47	17.8926
1463.74	16.8777
1464	19.9544
1464.27	20.9851
1464.53	19.9726
1464.8	18.9138
1465.07	14.805
1465.33	19.8976
1465.6	20.9231
1465.86	16.8443
1466.13	18.8805
1466.39	19.892
1466.66	15.8135
1466.93	17.8539
1467.19	18.8728
1467.46	18.8716
1467.72	17.8511
1467.99	17.8509
1468.26	17.8504
1468.52	20.909
1468.79	16.8274
1469.05	19.8845
1469.32	16.8215
1469.58	16.8178
1469.85	18.8532
1470.12	17.832
1470.38	19.8678
1470.65	19.8669
1470.91	17.8258
1471.18	17.8226
1471.44	15.7841
1471.71	16.8016
1471.97	17.8193
1472.24	17.8189
1472.51	15.782
1472.77	15.7805
1473.04	14.7599
1473.3	17.8114
1473.57	14.7564
1473.83	19.8439
1474.1	17.809
1474.36	19.8469
1474.63	19.8476
1474.9	18.8299
1475.16	15.7757
1475.43	18.827
1475.69	15.7717
1475.96	20.8579
1476.22	16.7865
1476.49	16.7834
1476.75	17.798
1477.02	19.8311
1477.29	19.8306
1477.55	18.8131
1477.81	17.7935
1478.08	17.7901
1478.34	19.8205
1478.61	20.8338
1478.88	17.7819
1479.14	14.7307
1479.41	18.7904
1479.67	19.8011
1479.94	15.7341
1480.2	17.7598
1480.47	16.7423
1480.73	19.7842
1481	16.7391
1481.26	15.7265
1481.53	18.7735
1481.79	17.7621
1482.06	19.7958
1482.32	17.7673
1482.59	15.7374
1482.85	16.7544
1483.12	19.8016
1483.38	18.786
1483.65	16.7524
1483.92	15.7301
1484.18	19.7752
1484.44	20.7651
1484.71	20.7438
1484.97	17.6972
1485.24	18.7151
1485.5	20.7709
1485.77	16.7238
1486.03	19.7612
1486.3	16.713
1486.56	16.7195
1486.83	17.7326
1487.09	20.7669
1487.36	18.7373
1487.62	16.7092
1487.89	16.7062
1488.15	21.7638
1488.42	20.747
1488.68	15.6843
1488.95	18.7181
1489.21	16.6932
1489.48	18.7159
1489.74	18.7158
1490.01	16.6916
1490.27	16.6892
1490.54	20.7309
1490.8	17.6943
1491.07	20.7261
1491.33	15.6705
1491.6	19.7149
1491.86	18.7042
1492.12	19.7144
1492.39	15.6697
1492.65	18.7023
1492.92	18.7018
1493.18	15.6681
1493.45	16.6787
1493.71	19.7118
1493.98	20.7244
1494.24	20.7253
1494.51	13.6473
1494.77	17.6873
1495.04	15.6609
1495.3	15.6556
1495.56	18.6812
1495.83	16.6589
1496.09	17.6663
1496.36	16.6545
1496.62	18.6717
1496.89	15.6439
1497.15	18.6711
1497.42	17.6611
1497.68	17.6609
1497.94	15.6428
1498.21	16.6525
1498.47	16.6531
1498.74	18.6726
1499	18.674
1499.27	17.6662
1499.53	17.6674
1499.8	15.6487
1500.06	19.6866
1500.32	15.6479
1500.59	18.6757
1500.85	15.6447
1501.12	17.661
1501.38	16.651
1501.64	18.6688
1501.91	16.6498
1502.17	15.6385
1502.44	18.6611
1502.7	15.6329
1502.97	15.6302
1503.23	17.645
1503.5	21.6793
1503.76	18.6557
1504.02	16.6394
1504.29	18.6562
1504.55	19.6634
1504.81	19.6611
1505.08	15.6254
1505.34	15.6195
1505.61	20.6536
1505.87	18.6378
1506.13	18.6371
1506.4	15.6169
1506.66	16.6258
1506.93	16.6267
1507.19	18.6426
1507.46	20.6574
1507.72	16.6254
1507.98	17.6326
1508.25	16.6256
1508.51	16.6261
1508.77	15.6186
1509.04	17.6335
1509.3	17.6339
1509.57	18.6448
1509.83	16.6278
1510.09	17.6324
1510.36	16.6214
1510.62	20.646
1510.89	17.6192
1511.15	17.6112
1511.41	18.6075
1511.68	16.5879
1511.94	18.5892
1512.21	16.574
1512.47	16.57
1512.73	17.5704
1513	16.5635
1513.26	19.5747
1513.52	18.5782
1513.79	17.5792
1514.05	14.5655
1514.31	19.5854
1514.58	19.58
1514.84	17.5677
1515.1	15.5556
1515.37	19.5641
1515.63	15.5464
1515.9	16.547
1516.16	17.5484
1516.42	19.5524
1516.69	17.546
1516.95	16.5433
1517.21	19.5518
1517.48	18.5513
1517.74	17.5511
1518	17.5521
1518.27	18.5563
1518.53	18.5576
1518.79	18.5592
1519.06	17.5572
1519.32	17.5577
1519.58	17.557
1519.85	18.5586
1520.11	23.5739
1520.37	13.5434
1520.64	14.5481
1520.9	19.5661
1521.16	18.5629
1521.43	18.5619
1521.69	18.5601
1521.95	17.5549
1522.22	16.5499
1522.48	16.5479
1522.75	16.5445
1523.01	18.5438
1523.27	20.5413
1523.53	17.5311
1523.8	17.5276
1524.06	16.5233
1524.32	19.5263
1524.59	17.5252
1524.85	19.529
1525.11	16.5257
1525.38	17.5301
1525.64	19.5377
1525.9	18.5403
1526.17	16.5387
1526.43	15.5371
1526.69	17.5407
1526.95	17.5388
1527.22	17.5376
1527.48	19.5403
1527.74	15.5305
1528.01	17.5325
1528.27	19.5343
1528.53	21.5362
1528.8	15.5255
1529.06	16.5267
1529.32	17.5265
1529.58	17.5245
1529.85	17.5245
1530.11	17.5268
1530.37	17.5304
1530.64	16.5318
1530.9	19.5397
1531.16	17.5354
1531.42	16.533
1531.69	20.5403
1531.95	16.5317
1532.21	18.5387
1532.48	20.549
1532.74	16.5452
1533	20.5612
1533.27	17.5544
1533.53	18.5585
1533.79	14.5455
1534.05	13.5415
1534.32	17.5523
1534.58	17.5506
1534.84	17.5487
1535.1	18.5458
1535.37	15.5318
1535.63	18.533
1535.89	18.5281
1536.15	18.5216
1536.42	17.5141
1536.68	16.5092
1536.94	19.5073
1537.2	15.5038
1537.47	19.5036
1537.73	19.4987
1537.99	15.4954
1538.25	20.4916
1538.52	19.4926
1538.78	19.4999
1539.04	17.5111
1539.31	18.5237
1539.57	18.5323
1539.83	16.536
1540.09	17.5448
1540.36	21.5604
1540.62	17.5471
1540.88	21.5524
1541.14	17.5403
1541.41	17.5358
1541.67	17.5314
1541.93	18.5287
1542.19	19.5255
1542.45	19.5211
1542.72	19.5167
1542.98	17.5103
1543.24	18.5043
1543.5	19.501
1543.77	16.5015
1544.03	16.5033
1544.29	19.509
1544.55	18.5131
1544.81	17.5177
1545.08	18.5249
1545.34	15.5236
1545.6	13.5225
1545.86	19.5331
1546.13	12.521
1546.39	13.5237
1546.65	18.5346
1546.91	18.5371
1547.17	16.5334
1547.44	16.5268
1547.7	18.5247
1547.96	14.5188
1548.22	15.5245
1548.49	19.5272
1548.75	18.5068
1549.01	15.4939
1549.27	18.4941
1549.53	18.5066
1549.79	21.5356
1550.06	19.5571
1550.32	17.5737
1550.58	18.5808
1550.84	19.5791
1551.1	18.5754
1551.37	15.5578
1551.63	18.5689
1551.89	16.5699
1552.15	18.5814
1552.41	17.5753
1552.68	17.5655
1552.94	17.5569
1553.2	18.5581
1553.46	17.5528
1553.72	19.5543
1553.99	18.5462
1554.25	22.5477
1554.51	15.5289
1554.77	22.5396
1555.03	17.5299
1555.3	20.5355
1555.56	19.5353
1555.82	21.537
1556.08	19.5319
1556.34	19.5326
1556.6	16.5287
1556.87	20.5367
1557.13	19.5348
1557.39	16.5282
1557.65	17.5253
1557.91	18.5218
1558.17	17.5156
1558.43	17.5099
1558.7	15.5042
1558.96	20.5005
1559.22	17.4969
1559.48	16.4944
1559.74	21.49
1560	16.4908
1560.26	14.4908
1560.53	20.4861
1560.79	18.4876
1561.05	17.4903
1561.31	18.4935
1561.57	17.4994
1561.83	17.5026
1562.1	19.5027
1562.36	21.5016
1562.62	17.5008
1562.88	17.5007
1563.14	19.4989
1563.4	16.5005
1563.66	17.5071
1563.93	18.513
1564.19	18.5142
1564.45	20.5118
1564.71	19.4925
1564.97	17.4582
1565.23	17.4195
1565.49	18.4295
1565.76	17.4876
1566.02	19.4976
1566.28	18.4861
1566.54	19.4828
1566.8	18.5001
1567.06	20.5104
1567.32	20.5014
1567.58	20.4932
1567.84	19.4961
1568.11	17.4986
1568.37	20.4989
1568.63	20.4948
1568.89	15.4911
1569.15	21.4847
1569.41	17.4882
1569.67	20.4874
1569.93	19.4885
1570.19	19.4885
1570.45	16.4899
1570.72	20.4862
1570.98	19.4847
1571.24	17.4833
1571.5	19.4791
1571.76	19.4779
1572.02	16.4788
1572.28	17.4744
1572.54	20.4671
1572.8	17.4693
1573.07	19.4627
1573.33	15.469
1573.59	19.4625
1573.85	17.4698
1574.11	19.4708
1574.37	19.4756
1574.63	17.4824
1574.89	16.4871
1575.15	21.4862
1575.41	18.4881
1575.67	17.4879
1575.94	17.4872
1576.2	16.4849
1576.46	22.4718
1576.72	17.4716
1576.98	20.4594
1577.24	19.4549
1577.5	17.454
1577.76	19.4437
1578.02	19.441
1578.28	21.4341
1578.54	18.4431
1578.8	20.4369
1579.06	17.4465
1579.32	18.4452
1579.58	18.4474
1579.85	21.44
1580.11	18.4484
1580.37	19.4443
1580.63	18.4447
1580.89	20.4359
1581.15	21.4294
1581.41	18.4353
1581.67	20.4251
1581.93	20.4236
1582.19	19.4259
1582.45	15.44
1582.71	20.4196
1582.97	16.435
1583.23	17.43
1583.49	19.4206
1583.75	18.4253
1584.01	19.4228
1584.27	18.4279
1584.53	18.4283
1584.79	17.4317
1585.06	18.427
1585.32	18.4262
1585.58	17.4277
1585.84	18.4191
1586.1	19.4104
1586.36	17.4168
1586.62	16.4195
1586.88	19.4029
1587.14	20.3964
1587.4	19.4008
1587.66	17.4116
1587.92	18.4082
1588.18	18.4105
1588.44	17.4177
1588.7	18.4153
1588.96	18.4175
1589.22	19.4145
1589.48	18.4191
1589.74	18.4196
1590	19.417
1590.26	17.4276
1590.52	20.416
1590.78	18.4239
1591.04	15.4358
1591.3	18.4221
1591.56	19.4151
1591.82	18.4146
1592.08	17.4141
1592.34	19.4008
1592.6	20.3909
1592.86	19.3891
1593.12	21.3688
1593.38	20.3676
1593.64	19.3699
1593.9	22.3478
1594.16	20.3621
1594.42	18.3784
1594.68	23.3496
1594.94	19.3779
1595.2	19.3735
1595.46	17.3816
1595.72	19.3678
1595.98	17.3813
1596.24	19.3681
1596.5	17.3825
1596.76	16.3904
1597.02	19.3723
1597.28	23.3472
1597.54	21.3592
1597.8	20.3633
1598.06	17.3796
1598.32	18.3679
1598.58	21.3417
1598.84	23.3228
1599.1	17.3651
1599.36	22.3228
1599.62	18.3513
1599.88	22.3153
1600.14	19.3359
1600.4	21.3134
1600.66	18.3336
1600.92	21.2996
1601.17	17.3316
1601.43	17.3273
1601.69	20.2936
1601.95	17.3204
1602.21	19.2811
1602.47	20.2148
1602.73	19.1908
1602.99	19.2542
1603.25	22.1831
1603.51	19.3589
1603.77	20.3013
1604.03	19.2855
1604.29	21.0508
1604.55	17.5672
1604.81	19.3528
1605.07	19.0328
1605.33	19.7719
1605.59	19.9881
1605.85	18.4393
1606.11	22.5982
1606.37	20.0795
1606.63	18.6415
1606.88	20.1652
1607.14	18.4872
1607.4	20.3562
1607.66	18.3883
1607.92	19.172
1608.18	22.9008
1608.44	16.448
1608.7	20.7111
1608.96	19.1469
1609.22	20.0298
1609.48	20.7085
1609.74	20.5028
1610	20.4138
1610.26	22.9869
1610.51	18.7345
1610.77	22.9704
1611.03	21.143
1611.29	19.2213
1611.55	17.6814
1611.81	19.2075
1612.07	18.2965
1612.33	20.4938
1612.59	20.1551
1612.85	19.6972
1613.11	22.5726
1613.37	21.788
1613.62	19.5072
1613.88	18.813
1614.14	21.2046
1614.4	20.683
1614.66	19.8582
1614.92	20.6401
1615.18	19.2896
1615.44	20.7158
1615.7	18.3256
1615.96	19.5937
1616.21	20.0738
1616.47	21.2912
1616.73	19.8594
1616.99	20.9475
1617.25	21.0289
1617.51	20.1307
1617.77	22.404
1618.03	19.4806
1618.28	19.9808
1618.54	21.6533
1618.8	21.1034
1619.06	19.0356
1619.32	19.9005
1619.58	20.2691
1619.84	20.0324
1620.1	20.0162
1620.35	21.6101
1620.61	18.8227
1620.87	22.3875
1621.13	20.1881
1621.39	19.1715
1621.65	20.0077
1621.91	18.8029
1622.17	20.055
1622.42	20.3503
1622.68	20.8194
1622.94	20.1738
1623.2	19.115
1623.46	20.0743
1623.72	19.5983
1623.98	20.5358
1624.23	21.5881
1624.49	21.4555
1624.75	20.891
1625.01	19.7911
1625.27	20.5388
1625.53	20.3829
1625.79	20.0486
1626.04	18.6624
1626.3	17.5813
1626.56	20.6623
1626.82	21.373
1627.08	20.2622
1627.34	19.5501
1627.59	19.0352
1627.85	20.5367
1628.11	20.1767
1628.37	18.8911
1628.63	20.188
1628.81	20.2005
1629.07	19.2135
1629.33	20.1975
1629.59	21.1818
1629.85	18.2252
1630.12	18.224
1630.38	21.1763
1630.64	20.1916
1630.9	18.2232
1631.16	17.2413
1631.42	22.1717
1631.68	17.2469
1631.95	19.2179
1632.21	18.2392
1632.47	18.2454
1632.73	20.2083
1632.99	20.1997
1633.25	20.1993
1633.51	18.2316
1633.78	19.2198
1634.04	17.2493
1634.3	19.221
1634.56	23.1634
1634.82	18.2342
1635.08	20.2042
1635.34	17.246
1635.6	19.2149
1635.87	22.1684
1636.13	20.1953
1636.39	22.1625
1636.65	20.1891
1636.91	17.2319
1637.17	18.2154
1637.43	21.1682
1637.69	19.1972
1637.95	22.1485
1638.21	16.2416
1638.48	16.2418
1638.74	22.1479
1639	20.1791
1639.26	18.2104
1639.52	17.2256
1639.78	19.1938
1640.04	22.1489
1640.3	21.1684
1640.57	20.1862
1640.83	23.1404
1641.09	19.1999
1641.35	20.1827
1641.61	22.1503
1641.87	20.1805
1642.13	21.164
1642.39	20.1789
1642.65	20.1783
1642.91	16.2409
1643.17	19.1929
1643.44	18.2071
1643.7	22.1412
1643.96	21.1533
1644.22	17.2165
1644.48	20.1673
1644.74	20.1704
1645	21.1563
1645.26	19.1901
1645.52	21.1576
1645.78	20.1713
1646.04	21.1528
1646.31	22.1344
1646.57	20.166
1646.83	18.1961
1647.09	18.1946
1647.35	21.143
1647.61	18.1933
1647.87	25.0783
1648.13	19.1818
1648.39	20.1697
1648.65	18.214
1648.91	20.1818
1649.17	18.2116
1649.43	18.2091
1649.69	20.179
1649.95	24.1262
1650.21	18.2207
1650.47	21.18
1650.74	16.2575
1651	21.1864
1651.26	20.2018
1651.52	21.1872
1651.78	20.2019
1652.04	19.2176
1652.3	20.1999
1652.56	23.1536
1652.82	17.2415
1653.08	23.1534
1653.34	20.199
1653.6	20.2013
1653.86	22.1734
1654.12	20.2034
1654.38	21.1907
1654.64	19.2225
1654.9	20.213
1655.16	20.2195
1655.42	17.2667
1655.68	19.2442
1655.94	20.2339
1656.21	17.2742
1656.47	21.2233
1656.73	19.2482
1656.99	18.2594
1657.25	21.2183
1657.51	19.2433
1657.77	21.2153
1658.03	21.2128
1658.29	17.2638
1658.55	19.234
1658.81	17.2587
1659.07	16.2701
1659.33	19.2251
1659.59	21.1942
1659.85	21.1963
1660.11	19.2273
1660.37	19.2306
1660.63	22.1933
1660.89	17.2649
1661.15	19.2414
1661.41	20.2308
1661.67	18.2506
1661.93	19.2376
1662.19	22.2354
1662.45	20.2693
1662.71	19.2723
1662.97	18.284
1663.23	18.2634
1663.49	19.2329
1663.75	18.2613
1664.01	18.2642
1664.27	21.2312
1664.53	22.2299
1664.79	22.2269
1665.05	22.192
1665.31	19.2464
1665.57	18.292
1665.83	20.2694
1666.09	19.2839
1666.35	20.2036
1666.61	19.2172
1666.87	21.2234
1667.13	19.2449
1667.39	21.2163
1667.65	21.2132
1667.91	19.2373
1668.17	19.2397
1668.43	19.2518
1668.69	20.247
1668.95	19.2607
1669.21	19.2613
1669.47	20.2499
1669.72	15.3079
1669.98	19.2621
1670.24	19.274
1670.51	18.2878
1670.76	17.2974
1671.02	18.2849
1671.28	17.2957
1671.54	19.2743
1671.8	22.241
1672.06	19.2762
1672.32	18.2874
1672.58	20.2646
1672.84	20.2654
1673.1	20.2664
1673.36	15.3247
1673.62	20.2706
1673.88	18.2957
1674.14	17.3088
1674.4	17.3113
1674.66	20.2833
1674.92	15.3382
1675.18	19.298
1675.44	16.3289
1675.69	18.308
1675.95	17.3194
1676.21	22.269
1676.47	19.3002
1676.73	21.2792
1676.99	21.2778
1677.25	17.3174
1677.51	18.3041
1677.77	18.3003
1678.03	18.2963
1678.29	19.2821
1678.55	19.2797
1678.81	17.3003
1679.07	17.2989
1679.33	17.2971
1679.59	17.2955
1679.84	19.2707
1680.1	13.3398
1680.36	17.2907
1680.62	17.2893
1680.88	19.2645
1681.14	16.3006
1681.4	18.2763
1681.66	16.3006
1681.92	15.3129
1682.18	18.2769
1682.44	19.264
1682.7	17.2879
1682.95	20.2514
1683.21	18.2755
1683.47	19.2627
1683.73	18.2733
1683.99	18.2708
1684.25	17.2819
1684.51	18.2687
1684.77	17.2807
1685.03	18.2679
1685.29	18.2679
1685.55	21.2306
1685.8	18.2689
1686.06	19.2589
1686.32	17.2867
1686.58	20.2519
1686.84	17.2881
1687.1	16.2988
1687.36	17.2846
1687.62	17.2828
1687.88	17.2811
1688.14	16.2917
1688.39	18.2633
1688.65	14.3117
1688.91	15.2961
1689.17	20.2267
1689.43	17.2631
1689.69	20.2181
1689.95	17.2608
1690.2	18.2505
1690.46	17.2661
1690.72	15.2941
1690.98	20.2286
1691.24	17.2708
1691.5	18.2588
1691.76	17.2716
1692.02	16.2835
1692.28	18.254
1692.53	18.2506
1692.79	17.2599
1693.05	14.297
1693.31	17.2497
1693.57	13.3048
1693.83	16.2579
1694.09	15.2695
1694.34	17.2376
1694.6	17.2381
1694.86	17.2393
1695.12	16.2551
1695.38	17.2413
1695.64	17.2427
1695.89	18.2309
1696.15	17.2467
1696.41	16.2606
1696.67	17.2441
1696.93	21.1811
1697.19	18.2207
1697.45	16.2467
1697.7	16.2435
1697.96	19.1937
1698.22	17.2223
1698.48	18.2042
1698.74	16.2353
1699	18.2031
1699.26	18.2042
1699.51	17.2203
1699.77	16.236
1700.03	18.2007
1700.29	17.2164
1700.55	18.1994
1700.81	15.2471
1701.06	16.2291
1701.32	17.2097
1701.58	17.2063
1701.84	19.1692
1702.1	19.1655
1702.35	15.2318
1702.61	18.179
1702.87	19.161
1703.13	17.1945
1703.39	15.2281
1703.65	16.2103
1703.9	15.2295
1704.16	15.2311
1704.42	16.214
1704.68	17.1957
1704.94	17.195
1705.19	16.2125
1705.45	20.1419
1705.71	18.1737
1705.97	16.2054
1706.23	18.1654
1706.48	17.1791
1706.74	17.175
1707	16.1899
1707.26	20.109
1707.52	17.1607
1707.77	17.1553
1708.03	18.1295
1708.29	16.1637
1708.55	16.1589
1708.81	18.1138
1709.06	18.1115
1709.32	14.1947
1709.58	15.1736
1709.84	15.1739
1710.1	16.1535
1710.35	15.1763
1710.61	18.1161
1710.87	19.0971
1711.13	16.1606
1711.39	16.1617
1711.64	17.1409
1711.9	20.0764
1712.16	15.1746
1712.42	16.147
1712.67	16.1397
1712.93	16.134
1713.19	14.1725
1713.45	17.0994
1713.71	16.1197
1713.96	16.1177
1714.22	14.1629
1714.48	18.069
1714.74	17.0923
1714.99	16.1199
1715.25	19.0534
1715.51	17.0987
1715.77	16.1201
1716.02	14.1638
1716.28	17.0903
1716.54	20.014
1716.8	20.0066
1717.05	18.0466
1717.31	19.0123
1717.57	17.0556
1717.83	18.023
1718.08	16.0698
1718.34	17.0403
1718.6	17.0387
1718.86	14.1179
1719.12	18.012
1719.37	17.0373
1719.63	19.9607
1719.89	17.0394
1720.14	17.0373
1720.4	18.9807
1720.66	18.9749
1720.92	16.0529
1721.17	17.9948
1721.43	15.0732
1721.69	16.0416
1721.95	16.0374
1722.2	16.0334
1722.46	17.0011
1722.72	17.9689
1722.98	16.0237
1723.23	17.9642
1723.49	17.9645
1723.75	18.9334
1724	18.9327
1724.26	16.9874
1724.52	16.0121
1724.78	14.0653
1725.03	16.9695
1725.29	15.0245
1725.55	16.9597
1725.8	14.0512
1726.06	15.0215
1726.32	16.9578
1726.58	16.9547
1726.83	15.9805
1727.09	15.9815
1727.35	14.0473
1727.6	13.0771
1727.86	13.0743
1728.12	15.9701
1728.38	16.9129
1728.63	15.9249
1728.89	13.9909
1729.15	16.8957
1729.4	15.9381
1729.66	16.9066
1729.92	16.8974
1730.18	17.8588
1730.43	16.8974
1730.69	17.8784
1730.95	15.9465
1731.2	16.9131
1731.46	16.9126
1731.72	15.9451
1731.97	15.9435
1732.23	15.9416
1732.49	15.939
1732.74	15.9352
1733	17.8609
1733.26	15.9233
1733.51	18.8113
1733.77	16.8767
1734.03	16.8714
1734.29	16.8658
1734.54	18.7873
1734.8	13.9656
1735.06	14.9248
1735.31	14.9219
1735.57	13.9573
1735.82	16.8435
1736.08	18.7664
1736.34	16.8394
1736.6	15.8749
1736.85	13.9487
1737.11	14.9088
1737.37	16.8302
1737.62	14.9039
1737.88	13.9394
1738.14	16.8199
1738.39	16.8162
1738.65	14.8907
1738.91	14.8861
1739.16	15.8401
1739.42	15.8328
1739.67	17.7446
1739.93	15.8204
1740.19	16.7743
1740.44	15.8121
1740.7	15.8085
1740.96	15.805
1741.21	14.8442
1741.47	14.842
1741.73	14.8406
1741.98	14.8399
1742.24	17.7104
1742.5	11.9653
1742.75	14.8363
1743.01	13.8788
1743.26	17.7051
1743.52	16.7443
1743.78	13.8718
1744.03	14.8262
1744.29	15.7822
1744.55	16.7387
1744.8	14.8261
1745.06	16.739
1745.32	16.7379
1745.57	16.7355
1745.83	17.6879
1746.09	15.7714
1746.34	16.7221
1746.6	14.808
1746.85	15.7583
1747.11	16.7101
1747.37	14.7966
1747.62	13.8411
1747.88	17.6592
1748.13	16.705
1748.39	14.7966
1748.65	15.7524
1748.9	11.9352
1749.16	15.7573
1749.42	14.8054
1749.67	18.6306
1749.93	13.8569
1750.18	16.7273
1750.44	13.8605
1750.7	17.6863
1750.95	13.8622
1751.21	16.7274
1751.46	15.7667
1751.72	17.6725
1751.98	16.7136
1752.23	15.7552
1752.49	18.6155
1752.74	14.7937
1753	17.6538
1753.26	12.8803
1753.51	22.4175
1753.77	14.7827
1754.02	14.7796
1754.28	14.7774
1754.53	14.7755
1754.79	13.8206
1755.05	16.6778
1755.3	17.6277
1755.56	15.7185
1755.81	15.7145
1756.07	14.758
1756.33	16.6568
1756.58	16.6516
1756.84	12.8423
1757.09	14.7431
1757.35	16.6441
1757.6	14.7438
1757.86	16.6504
1758.12	15.7002
1758.37	16.6522
1758.63	14.7493
1758.88	15.7013
1759.14	13.7986
1759.39	16.653
1759.65	16.6518
1759.91	14.7474
1760.16	14.746
1760.42	13.7929
1760.67	16.6438
1760.93	14.7387
1761.18	12.8349
1761.44	16.636
1761.69	15.6841
1761.95	15.6845
1762.21	16.6379
1762.46	17.5903
1762.72	16.6394
1762.97	14.7375
1763.23	15.689
1763.48	16.6413
1763.74	15.6922
1763.99	16.648
1764.25	17.6048
1764.5	15.7041
1764.76	17.6099
1765.02	17.6115
1765.27	15.7086
1765.53	13.805
1765.78	15.7091
1766.04	16.6604
1766.29	15.7071
1766.55	13.8026
1766.8	16.6578
1767.06	13.801
1767.31	14.7505
1767.57	15.7001
1767.82	17.6008
1768.08	13.7948
1768.33	16.6464
1768.59	15.6875
1768.84	17.5798
1769.1	16.6205
1769.36	18.5161
1769.61	13.7691
1769.86	17.5732
1770.12	17.5759
1770.38	15.6763
1770.63	17.5782
1770.89	18.5348
1771.14	16.6393
1771.4	17.5912
1771.65	15.6908
1771.91	12.8404
1772.16	14.7459
1772.42	17.6025
1772.67	14.7499
1772.93	15.7034
1773.18	14.7532
1773.44	15.7066
1773.69	14.7558
1773.95	16.6608
1774.2	14.7575
1774.46	15.7122
1774.71	15.7134
1774.97	14.7644
1775.22	14.7717
1775.48	16.6813
1775.73	15.7298
1775.99	15.7301
1776.24	17.6357
1776.5	15.727
1776.75	16.6773
1777.01	15.7227
1777.26	16.6725
1777.51	13.8119
1777.77	12.857
1778.03	17.6156
1778.28	18.5636
1778.53	14.7517
1778.79	18.5539
1779.04	15.6974
1779.3	16.6496
1779.55	13.799
1779.81	17.6069
1780.06	17.6083
1780.32	17.61
1780.57	15.7076
1780.83	18.5641
1781.08	17.6131
1781.34	17.615
1781.59	18.57
1781.85	16.6684
1782.1	15.7195
1782.36	16.6747
1782.61	15.7238
1782.86	13.8195
1783.12	17.6342
1783.37	14.7767
1783.63	12.8721
1783.88	15.7358
1784.14	15.7396
1784.39	14.7878
1784.65	17.6512
1784.9	17.6511
1785.15	19.5581
1785.41	14.7862
1785.66	16.6929
1785.92	15.7396
1786.17	14.7873
1786.43	15.7442
1786.68	16.7023
1786.94	16.7073
1787.19	15.7596
1787.44	14.8137
1787.7	15.7799
1787.95	12.9187
1788.21	13.8806
1788.46	15.7982
1788.72	16.7605
1788.97	15.8084
1789.23	13.8954
1789.48	15.8141
1789.73	18.6921
1789.99	17.7355
1790.24	16.7767
1790.5	15.8175
1790.75	11.9781
1791	15.8041
1791.26	15.8025
1791.51	16.7592
1791.77	15.802
1792.02	16.7603
1792.28	12.9305
1792.53	15.8059
1792.78	15.8073
1793.04	15.8072
1793.29	17.7246
1793.55	15.81
1793.8	17.7275
1794.05	16.7679
1794.31	16.7659
1794.56	12.9402
1794.82	15.8274
1795.07	13.9154
1795.32	17.7582
1795.58	17.7613
1795.83	15.8442
1796.09	17.7682
1796.34	17.7719
1796.6	13.9322
1796.85	14.8959
1797.1	16.8207
1797.36	15.8616
1797.61	15.8635
1797.86	17.788
1798.12	16.8274
1798.37	14.9043
1798.63	18.7493
1798.88	14.9016
1799.13	15.8603
1799.39	14.8961
1799.64	15.8545
1799.9	16.8131
1800.15	16.8112
1800.4	12.9676
1800.66	17.7696
1800.91	17.7692
1801.16	13.9274
1801.42	17.7702
1801.67	17.7717
1801.93	16.8129
1802.18	14.8936
1802.43	16.8184
1802.69	14.8995
1802.94	18.7487
1803.19	16.8285
1803.45	14.9064
1803.7	16.8308
1803.95	15.8716
1804.21	16.8369
1804.46	14.9155
1804.71	14.9192
1804.97	16.8486
1805.22	15.8898
1805.48	12.0403
1805.73	16.8594
1805.98	16.8622
1806.24	15.9008
1806.49	17.8296
1806.74	15.9025
1807	13.9751
1807.25	14.939
1807.5	15.9031
1807.76	13.9758
1808.01	15.904
1808.26	12.0489
1808.52	17.8332
1808.77	13.978
1809.02	17.8346
1809.28	16.8715
1809.53	16.8722
1809.79	17.837
1810.04	16.873
1810.29	17.8361
1810.55	14.9431
1810.8	14.9431
1811.05	14.9428
1811.3	17.8348
1811.56	17.8352
1811.81	16.8723
1812.06	17.8386
1812.32	14.9482
1812.57	17.8447
1812.82	14.9528
1813.08	14.954
1813.33	18.8162
1813.58	13.995
1813.84	16.895
1814.09	17.8662
1814.34	14.9734
1814.6	14.0102
1814.85	17.8776
1815.1	19.8119
1815.36	15.947
1815.61	13.0483
1815.86	16.9153
1816.12	14.9836
1816.37	17.8841
1816.62	16.9169
1816.88	14.9799
1817.13	16.9047
1817.38	14.0036
1817.63	16.9022
1817.89	16.9057
1818.14	16.9108
1818.39	17.8783
1818.64	14.979
1818.9	14.9803
1819.15	14.9823
1819.4	19.8175
1819.66	14.0187
1819.91	14.9874
1820.16	17.8907
1820.42	15.9582
1820.67	16.9272
1820.92	16.9298
1821.18	14.9974
1821.43	14.0319
1821.68	14.0335
1821.93	16.9386
1822.19	15.9717
1822.44	17.9088
1822.69	15.0054
1822.94	16.9409
1823.2	14.0356
1823.45	16.9378
1823.7	16.938
1823.95	13.0676
1824.21	17.9092
1824.46	17.9108
1824.71	15.9763
1824.96	16.9464
1825.22	16.9475
1825.47	16.9478
1825.72	15.0108
1825.98	21.7907
1826.23	15.9803
1826.48	17.9178
1826.73	15.0134
1826.99	17.9211
1827.24	19.8609
1827.49	15.0182
1827.74	18.8936
1828	16.9552
1828.25	16.9532
1828.5	17.9194
1828.75	15.981
1829.01	14.0435
1829.26	17.9169
1829.51	14.0422
1829.76	14.0403
1830.02	15.0071
1830.27	18.8779
1830.52	16.9424
1830.77	15.9764
1831.03	15.0102
1831.28	14.0438
1831.53	15.9829
1831.78	15.9851
1832.04	15.9875
1832.29	15.0219
1832.54	15.0238
1832.79	15.993
1833.04	15.0243
1833.3	15.9954
1833.55	15.0265
1833.8	14.0582
1834.05	16.9609
1834.31	15.014
1834.56	18.8796
1834.81	17.9032
1835.06	14.9962
1835.31	14.0248
1835.57	14.9929
1835.82	14.0213
1836.07	16.0384
1836.32	16.9846
1836.58	17.9326
1836.83	16.9586
1837.08	16.9445
1837.33	16.9348
1837.58	16.9159
1837.84	17.8737
1838.09	17.8738
1838.34	16.942
1838.59	13.0754
1838.85	15.0178
1839.1	18.8954
1839.35	15.0218
1839.6	17.9327
1839.85	19.8497
1840.11	14.0311
1840.36	17.8914
1840.61	15.9494
1840.86	17.8742
1841.11	14.9691
1841.36	16.894
1841.62	13.9928
1841.87	15.9176
1842.12	17.8422
1842.37	13.987
1842.62	16.8793
1842.88	13.9873
1843.13	15.9163
1843.38	13.9869
1843.63	14.9501
1843.88	16.8795
1844.14	15.9168
1844.39	15.9166
1844.64	17.8435
1844.89	15.9152
1845.14	12.058
1845.39	15.9234
1845.65	16.8958
1845.9	18.8354
1846.15	16.9115
1846.4	18.8305
1846.65	13.0169
1846.9	15.8869
1847.16	14.9202
1847.41	13.9593
1847.66	17.8193
1847.91	13.9702
1848.16	16.8527
1848.41	14.9237
1848.67	16.8491
1848.92	16.8455
1849.17	15.8783
1849.42	17.7974
1849.67	14.9066
1849.92	13.94
1850.18	13.9359
1850.43	14.8933
1850.68	15.8508
1850.93	13.927
1851.18	14.8855
1851.43	15.8444
1851.68	18.7245
1851.94	14.8836
1852.19	16.8041
1852.44	15.8438
1852.69	14.8831
1852.94	13.922
1853.19	16.8003
1853.44	10.078
1853.69	19.6705
1853.95	14.8678
1854.2	14.864
1854.45	15.8209
1854.7	13.9008
1854.95	17.7298
1855.2	15.8082
1855.45	17.7217
1855.71	15.8044
1855.96	16.7617
1856.21	19.6353
1856.46	11.0148
1856.71	16.7608
1856.96	16.7591
1857.21	17.7148
1857.46	16.7552
1857.72	13.8806
1857.97	14.8348
1858.22	15.7882
1858.47	12.9146
1858.72	13.8679
1858.97	15.7766
1859.22	14.8183
1859.47	16.7305
1859.72	13.8623
1859.98	16.732
1860.23	15.7792
1860.48	16.7382
1860.73	17.6974
1860.98	14.8306
1861.23	13.8758
1861.48	13.8763
1861.73	13.8753
1861.98	16.7433
1862.24	16.7396
1862.49	19.6045
1862.74	16.7317
1862.99	15.772
1863.24	17.68
1863.49	14.8102
1863.74	10.9862
1863.99	15.7601
1864.24	15.7572
1864.49	14.7991
1864.74	15.7497
1864.99	15.7449
1865.25	15.7395
1865.5	14.7798
1865.75	13.8205
1866	15.7199
1866.25	13.8088
1866.5	14.7549
1866.75	16.652
1867	15.6946
1867.25	15.6903
1867.5	17.5895
1867.75	15.6863
1868	18.5373
1868.25	14.7353
1868.51	17.5883
1868.76	16.6372
1869.01	15.6857
1869.26	14.7341
1869.51	13.7828
1869.76	15.6831
1870.01	16.6328
1870.26	13.781
1870.51	16.6319
1870.76	16.6317
1871.01	16.6303
1871.26	18.5287
1871.51	17.5753
1871.76	15.6737
1872.01	16.622
1872.26	16.6186
1872.52	17.5647
1872.77	14.7146
1873.02	16.6128
1873.27	14.7129
1873.52	15.6598
1873.77	16.6056
1874.02	15.6531
1874.27	14.7008
1874.52	15.6452
1874.77	19.4326
1875.02	18.4794
1875.27	13.736
1875.52	15.6213
1875.77	12.777
1876.02	18.4501
1876.27	15.6081
1876.52	16.5518
1876.77	18.4329
1877.02	15.5872
1877.27	12.7384
1877.52	16.5338
1877.77	15.6482
1878.02	17.5072
1878.27	15.6118
1878.52	15.6111
1878.78	15.6277
1879.02	16.5803
1879.27	13.7327
1879.52	15.6226
1879.78	14.6754
1880.03	16.5683
1880.28	13.731
1880.53	13.7275
1880.78	15.6199
1881.03	15.6128
1881.28	18.4423
1881.53	13.7065
1881.78	16.5334
1882.03	14.6352
1882.28	13.682
1882.53	13.6776
1882.78	16.5111
1883.03	11.8582
1883.28	15.5818
1883.53	15.5483
1883.78	16.4945
1884.03	15.5588
1884.28	17.4374
1884.53	17.4448
1884.78	16.5095
1885.03	14.6247
1885.28	15.5712
1885.53	16.5225
1885.78	14.6375
1886.03	15.5836
1886.28	17.4699
1886.53	15.5752
1886.78	14.628
1887.03	13.681
1887.28	14.621
1887.52	18.3893
1887.78	15.5555
1888.03	15.5495
1888.27	12.718
1888.52	15.5392
1888.77	14.5932
1889.02	16.474
1889.27	15.532
1889.52	15.5316
1889.77	14.5921
1890.02	18.3623
1890.27	17.4242
1890.52	12.7157
1890.77	13.6568
1891.02	14.5977
1891.27	15.5391
1891.52	17.4214
1891.77	14.5958
1892.02	17.4198
1892.27	12.7098
1892.52	12.707
1892.77	13.6427
1893.02	18.3369
1893.27	12.689
1893.52	13.6291
1893.77	19.2691
1894.02	15.5042
1894.27	15.5017
1894.52	16.4403
1894.76	14.562
1895.02	15.5028
1895.26	16.4442
1895.51	16.4462
1895.76	17.3884
1896.01	15.5113
1896.26	13.6338
1896.51	16.4574
1896.76	14.5784
1897.01	15.5204
1897.26	15.521
1897.51	14.5802
1897.76	14.5792
1898.01	14.5774
1898.26	16.4554
1898.51	15.5114
1898.75	13.6278
1899.01	17.3843
1899.25	18.3221
1899.5	15.5012
1899.75	15.4996
1900	16.4386
1900.25	18.3182
1900.5	15.5018
1900.75	12.6856
1901	17.3876
1901.25	16.4511
1901.5	15.5142
1901.75	13.6373
1902	14.5804
1902.25	14.5803
1902.49	16.4602
1902.74	15.5179
1902.99	15.5162
1903.24	14.5747
1903.49	16.4543
1903.74	16.4536
1903.99	17.3934
1904.24	19.273
1904.49	16.4517
1904.74	17.3913
1904.98	12.6908
1905.23	14.5699
1905.48	15.5046
1905.73	16.4395
1905.98	17.3767
1906.23	13.618
1906.48	13.6167
1906.73	17.3719
1906.98	14.5554
1907.23	15.4953
1907.47	14.5587
1907.72	19.2583
1907.97	15.5018
1908.22	18.3215
1908.47	14.565
1908.72	11.7479
1908.97	18.3307
1909.22	15.5147
1909.47	14.579
1909.71	14.5839
1909.96	12.7067
1910.21	17.4181
1910.46	16.4802
1910.71	12.7152
1910.96	15.5423
1911.21	14.6008
1911.46	17.4267
1911.7	12.7157
1911.95	17.4243
1912.2	16.4822
1912.45	15.5405
1912.7	15.5406
1912.95	17.4251
1913.2	15.5442
1913.45	13.6643
1913.69	14.6113
1913.94	16.5002
1914.19	16.5038
1914.44	18.394
1914.69	15.5672
1914.94	15.5694
1915.18	16.5138
1915.43	15.5696
1915.68	15.5683
1915.93	16.5112
1916.18	14.6217
1916.43	16.505
1916.68	14.6163
1916.92	17.4428
1917.17	17.4412
1917.42	14.6121
1917.67	15.5556
1917.92	16.501
1918.17	15.5618
1918.42	14.6228
1918.66	16.5147
1918.91	14.6321
1919.16	17.4719
1919.41	12.754
1919.66	16.5358
1919.91	16.5362
1920.15	14.6443
1920.4	15.5912
1920.65	16.5406
1920.9	15.5996
1921.15	16.5472
1921.39	13.7127
1921.64	16.5511
1921.89	15.6052
1922.14	19.3866
1922.39	14.6558
1922.64	13.7084
1922.89	15.5979
1923.13	14.6514
1923.38	17.4856
1923.63	14.6479
1923.88	14.6453
1924.13	19.3675
1924.37	14.6434
1924.62	14.6442
1924.87	15.5913
1925.12	14.6497
1925.37	14.6545
1925.61	16.5499
1925.86	17.5002
1926.11	15.6127
1926.36	14.6713
1926.61	14.6741
1926.86	13.7295
1927.1	15.6254
1927.35	14.6803
1927.6	15.6293
1927.85	15.6311
1928.1	15.6321
1928.34	16.582
1928.59	14.6888
1928.84	17.5348
1929.09	18.487
1929.33	14.6997
1929.58	13.7547
1929.83	14.7081
1930.08	14.7115
1930.33	15.665
1930.57	16.6152
1930.82	17.5652
1931.07	14.7154
1931.32	14.7135
1931.57	16.6098
1931.81	15.6585
1932.06	17.5541
1932.31	15.654
1932.56	14.7049
1932.8	17.5484
1933.05	19.4476
1933.3	14.7091
1933.55	14.7168
1933.79	16.627
1934.04	15.6915
1934.29	13.8012
1934.54	16.6688
1934.79	17.6319
1935.03	15.7333
1935.28	15.7382
1935.53	16.6785
1935.78	17.6318
1936.02	11.9125
1936.27	14.7696
1936.52	14.7664
1936.77	14.7628
1937.01	14.7598
1937.26	14.7568
1937.51	15.7061
1937.76	14.7513
1938	17.6069
1938.25	16.6617
1938.5	17.6153
1938.75	13.8089
1938.99	12.8588
1939.24	15.7184
1939.49	17.6266
1939.74	14.7688
1939.98	17.6321
1940.23	16.6835
1940.48	14.7871
1940.73	16.7007
1940.97	15.7458
1941.22	12.881
1941.47	16.6912
1941.72	12.8687
1941.96	14.7826
1942.21	16.7074
1942.46	15.755
1942.71	15.7552
1942.95	15.7481
1943.2	13.8332
1943.45	12.8757
1943.7	15.748
1943.94	18.6145
1944.19	17.6638
1944.44	14.8029
1944.68	16.7172
1944.93	17.6769
1945.18	14.8141
1945.42	16.7293
1945.67	15.7763
1945.92	14.8224
1946.17	16.7368
1946.41	17.6941
1946.66	15.7808
1946.91	16.7358
1947.16	16.7342
1947.4	15.7777
1947.65	15.7777
1947.9	15.7775
1948.14	18.6449
1948.39	15.7775
1948.64	16.737
1948.89	15.7839
1949.13	16.7442
1949.38	16.7486
1949.62	16.7533
1949.87	12.9297
1950.12	12.9355
1950.37	14.8572
1950.61	14.8632
1950.86	14.8694
1951.11	15.8346
1951.35	13.9194
1951.6	15.8424
1951.85	15.8449
1952.1	16.8076
1952.34	15.8469
1952.59	16.8107
1952.83	17.7749
1953.08	17.7696
1953.33	14.8819
1953.58	16.7916
1953.82	15.8232
1954.07	17.7321
1954.32	12.9343
1954.56	15.8066
1954.81	12.9325
1955.06	14.8506
1955.3	15.8134
1955.55	14.8621
1955.8	13.9124
1956.04	17.7555
1956.29	14.8808
1956.54	14.8836
1956.78	15.8476
1957.03	16.8116
1957.28	16.8148
1957.52	12.9733
1957.77	13.9357
1958.02	16.8202
1958.26	12.9761
1958.51	16.8193
1958.76	15.8554
1959	13.9323
1959.25	18.7356
1959.5	14.8902
1959.74	13.9274
1959.99	14.8856
1960.23	13.9229
1960.48	17.7605
1960.73	15.8377
1960.98	17.7549
1961.22	16.7938
1961.47	16.7945
1961.71	14.876
1961.96	14.8767
1962.21	15.8372
1962.45	13.9182
1962.7	18.7184
1962.95	17.7592
1963.19	11.04
1963.44	15.841
1963.69	15.843
1963.93	14.8842
1964.18	13.9236
1964.42	18.7238
1964.67	16.8037
1964.92	16.8032
1965.16	15.8436
1965.41	14.8851
1965.66	16.8092
1965.9	16.8131
1966.15	15.8558
1966.39	16.8194
1966.64	14.8988
1966.89	16.8209
1967.13	13.9377
1967.38	13.9389
1967.63	17.7848
1967.87	15.8629
1968.12	14.9011
1968.36	16.8222
1968.61	14.8969
1968.86	16.8149
1969.1	15.8489
1969.35	16.8042
1969.59	14.8801
1969.84	14.8771
1970.09	17.7543
1970.33	15.832
1970.58	11.9923
1970.82	16.7874
1971.07	13.9083
1971.32	16.7846
1971.56	18.7048
1971.81	14.8693
1972.05	16.7888
1972.3	15.8292
1972.55	13.9092
1972.79	14.8659
1973.04	14.8626
1973.28	16.7774
1973.53	15.8167
1973.78	15.8155
1974.02	13.8981
1974.27	16.7738
1974.51	15.816
1974.76	16.7761
1975.01	14.8609
1975.25	17.74
1975.5	15.8243
1975.74	17.7442
1975.99	14.8678
1976.23	16.7868
1976.48	15.8276
1976.73	17.7456
1976.97	17.7444
1977.22	17.7424
1977.46	17.7395
1977.71	14.8605
1977.95	16.7758
1978.2	16.7741
1978.45	18.6902
1978.69	18.6903
1978.94	16.774
1979.18	16.7741
1979.43	15.8164
1979.67	16.7752
1979.92	16.7734
1980.17	14.8537
1980.41	15.8095
1980.66	12.9341
1980.9	14.848
1981.15	14.8466
1981.39	12.9301
1981.64	14.8452
1981.88	14.8447
1982.13	16.7572
1982.37	14.8397
1982.62	12.9218
1982.87	17.7023
1983.11	14.8287
1983.36	15.7841
1983.6	15.783
1983.85	16.7379
1984.09	15.7799
1984.34	12.9098
1984.58	16.7319
1984.83	15.7716
1985.08	18.6374
1985.32	13.8588
1985.56	13.8665
1985.81	15.7739
1986.06	15.7635
1986.3	16.6584
1986.55	17.6677
1986.79	17.5506
1987.04	16.5814
1987.28	15.0072
1987.53	17.455
1987.77	15.9428
1988.02	16.6909
1988.26	16.5581
1988.51	17.2766
1988.75	17.4695
1989	15.6681
1989.24	16.0782
1989.49	12.893
1989.73	16.2894
1989.98	16.2795
1990.22	14.957
1990.47	14.7819
1990.72	15.4432
1990.96	17.6324
1991.2	15.4944
1991.45	16.1731
1991.7	15.8067
1991.94	15.6708
1992.19	15.6745
1992.43	16.5526
1992.68	16.3754
1992.92	17.3444
1993.17	17.3362
1993.41	14.1482
1993.66	15.9578
1993.9	16.5221
1994.15	15.8644
1994.39	15.1113
1994.63	14.8929
1994.88	17.0907
1995.13	16.4049
1995.37	17.5635
1995.61	14.8411
1995.86	17.3343
1996.11	15.57
1996.35	14.2317
1996.59	15.8664
1996.84	14.5533
1997.08	17.667
1997.33	16.178
1997.57	17.58
1997.82	14.1448
1998.06	14.9339
1998.31	15.1199
1998.55	16.2796
1998.8	16.5218
1999.04	16.5617
1999.29	16.7813
1999.53	16.1174
1999.78	15.4668
2000.02	15.6582
2000.27	16.5974
2000.51	16.8964
2000.76	16.2724
2001	15.7035
2001.24	15.7786
2001.49	16.8453
2001.73	16.1425
2001.98	14.4769
2002.22	14.0157
2002.47	13.7223
2002.71	15.596
2002.96	16.1357
2003.2	14.3923
2003.45	14.7989
2003.69	15.0741
2003.93	14.703
2004.18	15.8459
2004.42	16.5424
2004.67	16.5418
2004.91	15.9595
2005.16	14.9767
2005.4	15.3797
2005.65	16.5383
2005.89	16.3395
2006.13	15.7289
2006.38	15.9533
2006.62	16.8124
2006.87	13.6191
2007.11	13.3016
2007.36	15.3216
2007.6	13.9491
2007.81	15.5804
2008.06	16.5188
2008.31	13.6835
2008.56	14.6237
2008.8	15.5623
2009.05	16.5001
2009.3	15.5534
2009.55	13.6647
2009.79	16.4879
2010.04	16.4835
2010.29	13.6571
2010.53	13.6568
2010.78	13.6564
2011.03	16.4815
2011.28	15.5392
2011.52	15.5384
2011.77	16.4794
2012.02	15.5366
2012.27	11.7689
2012.51	16.4729
2012.76	14.5842
2013.01	13.6373
2013.26	15.5135
2013.5	16.4474
2013.75	18.3188
2014	16.4308
2014.24	15.4857
2014.49	14.5459
2014.74	15.4854
2014.99	15.4879
2015.23	18.3069
2015.48	17.37
2015.73	14.5504
2015.97	15.4977
2016.22	17.3864
2016.47	17.388
2016.71	13.6274
2016.96	15.5044
2017.21	14.5611
2017.46	12.6781
2017.7	15.4892
2017.95	13.6062
2018.2	14.5393
2018.44	15.4715
2018.69	13.5906
2018.94	15.4597
2019.18	12.647
2019.43	15.455
2019.68	14.5177
2019.93	16.3906
2020.17	16.3897
2020.42	15.4527
2020.67	16.3906
2020.91	16.3915
2021.16	14.5181
2021.41	13.5807
2021.65	15.4524
2021.9	14.5137
2022.15	15.447
2022.4	14.507
2022.64	14.5029
2022.89	15.4355
2023.14	16.3672
2023.38	16.3637
2023.63	14.4904
2023.88	13.5529
2024.12	16.3511
2024.37	14.4774
2024.62	15.4062
2024.86	14.468
2025.11	14.4637
2025.36	12.594
2025.6	15.3876
2025.85	14.4577
2026.1	15.397
2026.34	19.1427
2026.59	15.4198
2026.84	13.5621
2027.08	13.5678
2027.33	13.5645
2027.57	14.4899
2027.82	14.4716
2028.07	14.446
2028.32	14.4883
2028.56	15.463
2028.81	14.5052
2029.06	15.4472
2029.3	18.2261
2029.55	15.4045
2029.79	14.4578
2030.04	16.3192
2030.29	19.1073
2030.53	14.4576
2030.78	15.397
2031.03	13.5292
2031.27	16.3284
2031.52	17.263
2031.77	13.5345
2032.01	15.4068
2032.26	15.4125
2032.5	13.5487
2032.75	13.552
2033	14.49
2033.24	17.3
2033.49	15.4294
2033.74	15.4215
2033.98	16.3428
2034.23	17.2607
2034.48	17.2597
2034.72	15.3999
2034.97	14.4721
2035.21	16.35
2035.46	14.4916
2035.71	13.5631
2035.95	16.3653
2036.2	15.4235
2036.45	13.556
2036.69	14.4934
2036.94	15.4283
2037.18	15.4274
2037.43	17.2956
2037.68	14.4891
2037.92	15.4216
2038.17	15.4191
2038.41	13.548
2038.66	18.2168
2038.91	14.4775
2039.15	16.3428
2039.4	14.4715
2039.64	16.3341
2039.89	17.2627
2040.14	17.2583
2040.38	15.3889
2040.63	14.4533
2040.87	16.3155
2041.12	17.2468
2041.37	16.3134
2041.61	14.4468
2041.86	14.4453
2042.1	16.3052
2042.35	16.3048
2042.6	16.3047
2042.84	15.3748
2043.09	17.2438
2043.33	15.3862
2043.58	18.1914
2043.83	15.3942
2044.07	14.4601
2044.32	17.254
2044.56	17.2455
2044.81	17.2284
2045.05	16.3259
2045.3	17.2583
2045.55	16.3545
2045.79	16.3802
2046.04	14.489
2046.28	13.5419
2046.53	13.5328
2046.78	13.5345
2047.02	15.3952
2047.27	16.3151
2047.51	14.4488
2047.76	17.2463
2048	16.315
2048.25	16.3163
2048.5	17.2523
2048.74	14.4572
2048.99	13.5276
2049.23	16.3314
2049.48	16.3376
2049.72	14.4743
2049.97	15.4125
2050.22	16.3489
2050.46	13.5467
2050.71	16.348
2050.95	13.5425
2051.2	17.2738
2051.44	17.274
2051.69	15.4073
2051.93	16.3434
2052.18	14.4764
2052.42	18.2147
2052.67	14.4809
2052.91	16.3529
2053.16	15.4232
2053.41	13.5596
2053.65	15.4327
2053.9	14.4992
2054.14	13.5641
2054.39	17.3055
2054.63	16.3692
2054.88	15.4323
2055.12	15.4289
2055.37	15.4274
2055.62	15.4266
2055.86	14.4902
2056.11	15.4235
2056.35	17.2921
2056.6	13.5534
2056.84	16.3585
2057.09	14.4903
2057.33	14.4923
2057.58	13.5593
2057.82	16.3677
2058.07	16.3718
2058.31	18.2471
2058.56	14.5072
2058.8	15.4453
2059.05	15.4462
2059.29	16.3835
2059.54	15.4471
2059.78	14.5091
2060.03	16.3786
2060.27	17.3136
2060.52	14.5079
2060.76	14.5101
2061.01	15.4477
2061.25	15.4483
2061.5	12.6399
2061.74	13.5768
2061.99	16.3871
2062.24	15.4525
2062.48	14.5183
2062.73	17.3316
2062.97	16.3975
2063.22	14.5255
2063.46	16.4015
2063.7	14.5284
2063.95	14.5296
2064.19	18.2817
2064.44	16.4092
2064.68	14.5378
2064.93	12.6658
2065.18	14.5463
2065.42	17.366
2065.66	13.6139
2065.91	19.2498
2066.15	17.3722
2066.4	16.4356
2066.64	16.4372
2066.89	17.3782
2067.13	14.5623
2067.38	17.3838
2067.62	16.4464
2067.87	16.4482
2068.11	18.329
2068.36	14.5719
2068.6	13.6313
2068.85	17.3889
2069.09	14.5645
2069.34	15.497
2069.58	14.5564
2069.83	13.6191
2070.07	13.6258
2070.31	15.5132
2070.56	12.6995
2070.8	17.3993
2071.05	17.394
2071.29	17.42
2071.54	16.4811
2071.78	16.4793
2072.03	13.6534
2072.27	18.3611
2072.52	17.4179
2072.76	15.5351
2073.01	15.5342
2073.25	12.7106
2073.5	16.4774
2073.74	17.4202
2073.98	15.5389
2074.23	16.4841
2074.47	13.6622
2074.72	13.6673
2074.96	16.5028
2075.21	15.5679
2075.45	15.5732
2075.69	14.6317
2075.94	17.4642
2076.18	14.6325
2076.43	14.6307
2076.67	16.5151
2076.92	14.6237
2077.16	17.447
2077.41	16.5028
2077.65	15.562
2077.9	12.7351
2078.14	13.6797
2078.38	15.5682
2078.63	16.5144
2078.87	15.5753
2079.12	17.4708
2079.36	16.5298
2079.61	16.5327
2079.85	17.4803
2080.09	16.5374
2080.34	17.4823
2080.58	17.4806
2080.83	16.5347
2081.07	15.5896
2081.32	14.6444
2081.56	16.5339
2081.8	16.5353
2082.05	14.6467
2082.29	13.7025
2082.54	17.4828
2082.78	16.5375
2083.02	17.4818
2083.27	14.6465
2083.51	16.5365
2083.76	17.4816
2084	17.4816
2084.24	16.537
2084.49	14.6476
2084.73	15.5927
2084.98	13.7028
2085.22	12.7577
2085.47	15.5946
2085.71	15.599
2085.95	15.6042
2086.2	14.6614
2086.44	15.6089
2086.69	17.5033
2086.93	13.7213
2087.17	16.5613
2087.42	15.6152
2087.66	18.4547
2087.9	16.5625
2088.15	19.4028
2088.39	13.7247
2088.64	16.5652
2088.88	16.5683
2089.12	13.7303
2089.37	17.5233
2089.61	16.577
2089.85	14.6833
2090.1	16.5793
2090.34	15.6335
2090.59	14.6878
2090.83	15.6372
2091.07	17.5346
2091.32	13.7474
2091.56	15.6483
2091.8	14.7048
2092.05	15.6587
2092.29	15.6643
2092.54	12.8197
2092.78	16.6224
2093.02	16.6268
2093.27	16.6309
2093.51	16.6344
2093.75	15.6866
2094	15.6874
2094.24	15.6873
2094.49	13.7851
2094.73	14.7346
2094.97	12.8312
2095.22	13.7792
2095.46	16.6278
2095.7	13.7758
2095.95	16.6249
2096.19	12.8245
2096.43	18.5233
2096.68	13.7717
2096.92	16.6177
2097.16	14.7159
2097.41	17.5628
2097.65	16.6127
2097.89	14.7131
2098.14	16.6097
2098.38	16.6097
2098.62	12.8128
2098.87	17.5573
2099.11	15.6586
2099.36	17.5565
2099.6	16.6077
2099.84	15.6594
2100.08	14.7112
2100.33	16.6117
2100.57	16.6158
2100.81	16.6189
2101.06	17.5707
2101.3	15.6721
2101.54	19.4713
2101.79	13.7722
2102.03	17.5714
2102.28	15.6706
2102.52	14.7183
2102.76	18.513
2103	16.6128
2103.25	15.6629
2103.49	13.7639
2103.73	17.5613
2103.98	16.6138
2104.22	15.667
2104.46	12.8204
2104.71	16.6215
2104.95	16.6247
2105.19	16.6286
2105.44	13.7804
2105.68	16.6335
2105.92	13.7834
2106.17	15.6853
2106.41	18.5383
2106.65	15.6878
2106.89	15.688
2107.14	14.7353
2107.38	12.8314
2107.62	15.6786
2107.87	15.6744
2108.11	16.6198
2108.35	15.6671
2108.59	16.6156
2108.84	14.7177
2109.08	15.6721
2109.32	16.6244
2109.57	15.6746
2109.81	16.6247
2110.05	17.5747
2110.3	16.6247
2110.54	14.7248
2110.78	16.6246
2111.02	18.5231
2111.27	15.6711
2111.51	17.5692
2111.75	17.5682
2112	16.6187
2112.24	18.5203
2112.48	18.5221
2112.72	16.6246
2112.97	14.7288
2113.21	13.7811
2113.45	16.6338
2113.7	17.5828
2113.94	17.5814
2114.18	15.6806
2114.42	16.632
2114.67	16.6323
2114.91	15.6808
2115.15	15.6795
2115.39	16.6285
2115.64	16.6271
2115.88	13.7736
2116.12	15.6706
2116.36	17.5688
2116.61	18.5176
2116.85	14.7185
2117.09	15.6691
2117.34	18.5155
2117.58	13.7658
2117.82	16.6111
2118.06	17.5554
2118.3	13.7555
2118.55	14.701
2118.79	13.7496
2119.03	16.5909
2119.28	14.6918
2119.52	16.5845
2119.76	14.6872
2120	15.6342
2120.24	18.4777
2120.49	14.69
2120.73	18.4829
2120.97	16.5912
2121.22	16.5953
2121.46	16.5991
2121.7	15.6538
2121.94	14.7079
2122.18	16.6082
2122.43	13.763
2122.67	15.6631
2122.91	15.6644
2123.15	15.6648
2123.4	16.6128
2123.64	15.6616
2123.88	16.6078
2124.12	15.6544
2124.36	14.6995
2124.61	16.5883
2124.85	15.6337
2125.09	15.6284
2125.33	16.5705
2125.58	14.6725
2125.82	16.5615
2126.06	17.5042
2126.3	15.6086
2126.55	16.5509
2126.79	14.6566
2127.03	17.492
2127.27	14.6548
2127.51	14.6537
2127.76	16.5428
2128	17.4873
2128.24	16.5422
2128.48	18.4328
2128.72	15.5962
2128.97	17.4853
2129.21	16.5391
2129.45	15.5933
2129.69	15.5926
2129.93	17.4816
2130.18	18.4251
2130.42	18.4232
2130.66	16.5316
2130.9	15.5846
2131.14	13.6934
2131.39	14.6358
2131.63	17.467
2131.87	14.6326
2132.11	13.6858
2132.35	14.6271
2132.6	14.6259
2132.84	15.5695
2133.08	13.683
2133.32	13.6835
2133.56	15.571
2133.81	13.6844
2134.05	16.516
2134.29	18.4031
2134.53	17.4588
2134.77	15.571
2135.01	16.5138
2135.26	14.6249
2135.5	12.7355
2135.74	18.3895
2135.98	14.6132
2136.22	15.5541
2136.47	16.4981
2136.71	14.6129
2136.95	16.499
2137.19	15.5582
2137.43	14.6187
2137.67	15.5595
2137.91	16.4977
2138.16	17.437
2138.4	17.4417
2138.64	15.5611
2138.88	12.7346
2139.12	17.4398
2139.37	16.4923
2139.61	13.6627
2139.85	17.4292
2140.09	17.427
2140.33	14.5995
2140.57	16.4821
2140.81	16.4808
2141.06	17.4232
2141.3	18.3603
2141.54	14.591
2141.78	13.6488
2142.02	17.4142
2142.26	16.4767
2142.51	17.4208
2142.75	19.3226
2142.99	15.5422
2143.23	16.437
2143.47	15.5058
2143.71	17.3873
2143.95	17.3943
2144.19	14.5785
2144.44	16.4625
2144.68	15.5112
2144.92	16.4545
2145.16	17.3952
2145.4	17.3941
2145.64	15.5123
2145.88	16.4511
2146.13	16.4497
2146.37	17.3883
2146.61	15.5069
2146.85	13.6253
2147.09	15.5026
2147.33	12.6824
2147.57	17.3778
2147.81	15.4973
2148.06	15.4955
2148.3	16.4324
2148.54	15.4909
2148.78	15.4877
2149.02	16.422
2149.26	19.2296
2149.5	17.3494
2149.74	16.4072
2149.98	13.592
2150.22	15.4654
2150.47	15.4653
2150.71	17.3417
2150.95	17.3445
2151.19	17.3465
2151.43	16.4112
2151.67	15.4748
2151.91	17.3522
2152.15	17.3497
2152.4	14.5341
2152.64	16.4064
2152.88	16.4039
2153.12	17.3398
2153.36	15.4637
2153.6	14.5239
2153.84	14.5201
2154.08	14.5149
2154.32	14.5088
2154.56	12.6314
2154.8	14.4965
2155.05	15.4268
2155.29	20.0956
2155.53	14.484
2155.77	18.2185
2156.01	17.2826
2156.25	15.4136
2156.49	15.4133
2156.73	13.5452
2156.97	17.2833
2157.21	15.4172
2157.45	16.3547
2157.69	14.4877
2157.94	16.3577
2158.18	16.3575
2158.42	15.422
2158.66	18.2244
2158.9	21.9598
2159.14	15.416
2159.38	16.3469
2159.62	16.3428
2159.86	15.4051
2160.1	16.3351
2160.34	14.4655
2160.58	14.4642
2160.82	15.3965
2161.06	16.3279
2161.3	17.2595
2161.54	16.3261
2161.79	17.259
2162.03	18.192
2162.27	19.1245
2162.51	15.3914
2162.75	17.2548
2162.99	14.4551
2163.23	18.1836
2163.47	18.1816
2163.71	16.3149
2163.95	15.3789
2164.19	13.5114
2164.43	16.3044
2164.67	15.374
2164.91	15.3752
2165.15	14.4436
2165.39	14.4439
2165.63	14.444
2165.87	14.442
2166.12	12.5773
2166.35	15.3698
2166.6	16.2979
2166.84	15.3645
2167.08	17.2226
2167.32	14.4252
2167.56	15.3479
2167.8	14.4115
2168.04	17.1988
2168.28	16.2691
2168.52	16.2702
2168.76	15.3428
2169	17.2063
2169.24	16.281
2169.48	15.3562
2169.72	14.4311
2169.96	15.3654
2170.2	17.229
2170.44	17.2275
2170.68	13.5
2170.92	18.1532
2171.16	14.4229
2171.4	15.3429
2171.64	17.1968
2171.88	15.3349
2172.12	14.4031
2172.36	15.3304
2172.6	17.1882
2172.84	10.6844
2173.08	16.2589
2173.32	17.1894
2173.56	18.1209
2173.8	15.3344
2174.04	16.2645
2174.28	18.1235
2174.52	16.2646
2174.76	16.2642
2175	12.5459
2175.24	15.333
2175.48	16.2617
2175.72	14.4024
2175.96	15.3301
2176.2	17.1859
2176.44	14.3982
2176.68	12.5405
2176.92	12.5408
2177.16	15.3279
2177.4	19.9725
2177.64	14.3992
2177.88	14.3974
2178.12	15.3222
2178.36	15.3195
2178.6	15.3193
2178.84	16.2485
2179.08	12.5347
2179.32	19.0344
2179.56	13.4634
2179.8	14.3918
2180.04	16.2482
2180.28	15.3188
2180.52	18.103
2180.76	16.2458
2181	14.3881
2181.24	16.2427
2181.48	15.313
2181.72	12.528
2181.96	15.3101
2182.2	17.1644
2182.44	14.3794
2182.68	16.2316
2182.92	13.4458
2183.16	17.1501
2183.4	12.5124
2183.63	14.3638
2183.87	13.4354
2184.11	13.4349
2184.35	15.2887
2184.59	14.3636
2184.83	15.2914
2185.07	13.4391
2185.31	17.1487
2185.55	14.3704
2185.79	14.3729
2186.03	13.4483
2186.27	19.0188
2186.51	16.2405
2186.75	17.1738
2186.99	14.393
2187.23	17.1823
2187.47	15.3252
2187.71	15.3234
2187.95	14.3922
2188.18	14.3894
2188.43	19.027
2188.66	15.3106
2188.9	15.3064
2189.14	15.3012
2189.38	15.2974
2189.62	18.0764
2189.86	17.1491
2190.1	14.3684
2190.34	18.0785
2190.58	15.2981
2190.82	16.2254
2191.06	18.081
2191.3	17.1553
2191.54	15.3021
2191.78	17.1585
2192.01	16.2324
2192.25	15.3063
2192.49	17.1648
2192.73	17.1677
2192.97	16.2426
2193.21	13.4614
2193.45	16.2542
2193.69	13.4742
2193.93	15.3374
2194.17	15.34
2194.41	15.3386
2194.64	18.1256
2194.88	14.406
2195.12	17.1915
2195.36	18.1167
2195.6	16.2538
2195.84	13.4627
2196.08	17.1712
2196.32	14.3833
2196.56	19.0195
2196.8	11.5953
2197.04	19.0136
2197.27	18.0868
2197.51	15.3045
2197.75	13.4512
2197.99	16.2385
2198.23	14.3863
2198.47	17.1762
2198.71	19.0399
2198.95	17.1872
2199.19	14.4051
2199.42	14.4099
2199.66	13.4873
2199.9	15.3559
2200.14	16.2942
2200.38	16.3008
2200.62	19.1007
2200.86	16.3096
2201.1	16.3011
2201.34	17.2136
2201.58	15.3174
2201.81	17.152
2202.05	16.2402
2202.29	16.2685
2202.53	15.3485
2202.77	16.2743
2203.01	16.2709
2203.25	13.5014
2203.49	15.4021
2203.72	16.318
2203.96	17.2506
2204.2	14.4539
2204.44	15.3753
2204.68	16.2927
2204.92	15.3497
2205.16	19.0613
2205.39	15.34
2205.63	15.3409
2205.87	14.4147
2206.11	15.3437
2206.35	17.1984
2206.59	17.1998
2206.83	16.2726
2207.06	17.2058
2207.3	16.2793
2207.54	15.3525
2207.78	15.3558
2208.02	14.4282
2208.26	15.3618
2208.49	14.4329
2208.73	18.1594
2208.97	13.504
2209.21	16.298
2209.45	18.1602
2209.69	13.5045
2209.93	16.3008
2210.17	16.3033
2210.4	13.5107
2210.64	15.3768
2210.88	16.3113
2211.12	16.3142
2211.36	13.5207
2211.6	17.254
2211.83	13.5256
2212.07	15.392
2212.31	14.4582
2212.55	17.2548
2212.79	15.3881
2213.02	18.1826
2213.26	16.3154
2213.5	16.3168
2213.74	17.2529
2213.98	13.5288
2214.22	16.3334
2214.45	16.3352
2214.69	16.3367
2214.93	16.3378
2215.17	16.3386
2215.41	17.2727
2215.65	15.4055
2215.88	15.4053
2216.12	16.3386
2216.36	18.2051
2216.6	15.4038
2216.84	15.4039
2217.07	17.2719
2217.31	15.4054
2217.55	14.4717
2217.79	14.4717
2218.03	18.2073
2218.26	15.4079
2218.5	14.4763
2218.74	15.4131
2218.98	13.5475
2219.22	16.3521
2219.45	14.4854
2219.69	18.2252
2219.93	16.3554
2220.17	16.3549
2220.41	14.4853
2220.64	15.4181
2220.88	15.4142
2221.12	15.4102
2221.36	13.5394
2221.6	16.3377
2221.83	17.2693
2222.07	14.4687
2222.31	16.3371
2222.55	18.2071
2222.78	17.276
2223.02	15.4111
2223.26	16.3493
2223.5	16.3543
2223.74	14.4899
2223.97	16.3643
2224.21	16.3684
2224.45	14.501
2224.69	14.5043
2224.93	15.444
2225.16	14.5123
2225.4	16.3885
2225.64	16.3921
2225.88	15.4589
2226.11	16.3983
2226.35	15.4649
2226.59	16.4053
2226.83	16.408
2227.07	17.3478
2227.3	15.4734
2227.54	15.4729
2227.78	14.534
2228.02	15.4707
2228.25	13.5946
2228.49	12.6565
2228.73	18.2806
2228.96	16.4059
2229.2	13.5962
2229.44	15.4758
2229.68	16.4177
2229.92	13.6057
2230.15	13.6085
2230.39	14.5501
2230.63	14.5533
2230.87	16.4352
2231.1	15.4999
2231.34	17.3821
2231.58	15.5062
2231.82	14.5694
2232.05	16.4527
2232.29	18.3365
2232.53	16.4591
2232.77	14.5808
2233	16.4653
2233.24	17.4096
2233.48	14.5885
2233.71	18.3554
2233.95	14.5892
2234.19	14.5881
2234.43	14.5863
2234.66	18.3472
2234.9	14.5783
2235.14	14.5749
2235.38	13.6353
2235.61	13.636
2235.85	14.5773
2236.09	13.6377
2236.33	16.46
2236.56	14.5799
2236.8	17.4062
2237.04	19.2924
2237.27	14.5929
2237.51	16.4828
2237.75	14.6046
2237.98	16.4937
2238.22	14.6127
2238.46	16.5035
2238.7	16.5094
2238.93	14.6234
2239.17	16.5087
2239.41	17.4498
2239.65	15.5586
2239.88	15.5553
2240.12	12.7257
2240.36	14.6188
2240.59	14.6233
2240.83	13.6808
2241.07	15.569
2241.3	12.7394
2241.54	13.684
2241.78	13.6853
2242.02	15.5748
2242.25	16.5209
2242.49	13.6889
2242.73	14.6325
2242.96	16.5182
2243.2	18.4034
2243.44	14.6274
2243.67	15.5708
2243.91	16.5153
2244.15	15.5743
2244.38	12.7467
2244.62	14.6413
2244.86	18.4264
2245.09	15.5951
2245.33	16.5437
2245.57	13.7107
2245.81	18.4423
2246.04	13.7159
2246.28	14.6633
2246.52	10.8811
2246.75	17.507
2246.99	15.616
2247.23	14.6703
2247.46	15.6165
2247.7	15.6158
2247.94	14.6685
2248.17	17.5066
2248.41	13.7208
2248.65	15.6125
2248.88	15.612
2249.12	15.6153
2249.36	15.617
2249.59	15.6168
2249.83	15.6147
2250.07	17.504
2250.3	14.6625
2250.54	15.6048
2250.78	16.5478
2251.01	17.4909
2251.25	17.4903
2251.49	16.5458
2251.72	13.711
2251.96	14.6591
2252.2	14.6622
2252.43	14.6673
2252.67	16.5693
2252.91	17.5226
2253.14	14.6855
2253.38	17.532
2253.61	15.6396
2253.85	15.6428
2254.09	15.6449
2254.32	16.5933
2254.56	14.6954
2254.8	16.5929
2255.03	14.6966
2255.27	14.6973
2255.51	18.4911
2255.74	15.6494
2255.98	13.7552
2256.22	16.6041
2256.45	14.7089
2256.69	18.5081
2256.92	13.7648
2257.16	15.6659
2257.4	14.7181
2257.63	18.5174
2257.87	17.5687
2258.11	15.6706
2258.34	17.5719
2258.58	16.6246
2258.81	19.4777
2259.05	16.6289
2259.29	14.7298
2259.52	16.6325
2259.76	16.6344
2260	15.6855
2260.23	16.6378
2260.47	15.6898
2260.7	15.6952
2260.94	13.7956
2261.18	17.6019
2261.41	15.7002
2261.65	16.6532
2261.88	13.7997
2262.12	18.5611
2262.36	14.757
2262.59	15.7128
2262.83	13.812
2263.06	15.7222
2263.3	16.6811
2263.54	16.6879
2263.77	14.7864
2264.01	12.883
2264.24	16.7052
2264.48	15.7545
2264.72	17.6679
2264.95	18.6261
2265.19	14.8059
2265.42	14.8065
2265.66	17.6708
2265.9	13.847
2266.13	14.7986
2266.37	13.8405
2266.6	18.6092
2266.84	15.7437
2267.08	15.7415
2267.31	16.6928
2267.55	14.782
2267.78	17.6403
2268.02	17.6395
2268.26	12.8727
2268.49	16.6894
2268.73	17.6471
2268.96	16.6978
2269.2	15.7483
2269.43	12.889
2269.67	12.8936
2269.91	14.8084
2270.14	16.7224
2270.38	16.7248
2270.61	14.8167
2270.85	16.7316
2271.08	16.7339
2271.32	17.6928
2271.55	16.7396
2271.79	16.7413
2272.03	12.9152
2272.26	11.9591
2272.5	13.8734
2272.73	15.7881
2272.97	14.8321
2273.2	15.79
2273.44	17.705
2273.68	16.749
2273.91	14.8356
2274.15	16.7509
2274.38	14.8375
2274.62	15.7959
2274.85	14.8396
2275.09	14.8405
2275.32	15.7978
2275.56	15.8004
2275.79	15.8044
2276.03	13.8922
2276.27	15.812
2276.5	14.8569
2276.74	14.8605
2276.97	13.9065
2277.21	16.7902
2277.44	16.7971
2277.68	15.8438
2277.91	14.8858
2278.15	18.7287
2278.38	16.8081
2278.62	17.768
2278.85	17.7668
2279.09	15.8428
2279.33	14.8762
2279.56	17.7504
2279.8	16.7865
2280.03	15.8237
2280.27	14.862
2280.5	12.9426
2280.74	16.7758
2280.97	14.8567
2281.21	15.8142
2281.44	15.816
2281.68	13.9001
2281.91	14.8611
2282.15	16.7822
2282.38	15.827
2282.62	18.7092
2282.85	13.9162
2283.09	17.7625
2283.32	15.8497
2283.56	16.8177
2283.79	15.8641
2284.03	18.7533
2284.26	16.8322
2284.5	16.8363
2284.73	14.9154
2284.97	14.9167
2285.2	16.8417
2285.44	14.9133
2285.67	12.9847
2285.91	12.0227
2286.14	17.795
2286.38	18.7608
2286.61	14.9196
2286.85	12.9993
2287.08	17.8165
2287.32	13.0032
2287.55	14.9332
2287.79	15.8955
2288.02	13.9667
2288.26	14.9278
2288.49	17.8137
2288.73	15.8829
2288.96	14.9149
2289.2	16.8335
2289.43	13.9424
2289.67	18.7476
2289.9	19.7074
2290.14	16.8235
2290.37	15.8628
2290.61	17.7885
2290.84	15.87
2291.08	14.9131
2291.31	15.8789
2291.55	14.9193
2291.78	13.9593
2292.02	15.8879
2292.25	14.9287
2292.48	15.8954
2292.72	15.8984
2292.95	16.8645
2293.19	13.9751
2293.42	16.8674
2293.66	14.9386
2293.89	15.9005
2294.13	15.898
2294.36	14.9318
2294.6	14.9298
2294.83	13.9647
2295.07	17.8146
2295.3	17.8123
2295.54	17.8102
2295.77	15.8806
2296.01	13.9505
2296.24	14.9121
2296.47	17.8
2296.71	12.9912
2296.94	16.8437
2297.18	16.8477
2297.41	15.8898
2297.65	16.8586
2297.88	16.8623
2298.11	16.8649
2298.35	16.8685
2298.58	16.873
2298.82	16.8767
2299.05	16.8798
2299.29	16.8813
2299.52	16.8813
2299.76	15.9167
2299.99	17.8458
2300.23	17.8482
2300.46	17.8514
2300.69	16.8887
2300.93	18.8211
2301.16	13.0309
2301.4	17.8576
2301.63	17.8571
2301.87	17.8555
2302.1	16.8895
2302.33	14.9597
2302.57	14.9593
2302.8	14.9587
2303.04	15.9236
2303.27	14.959
2303.5	16.8911
2303.74	14.9634
2303.97	15.9314
2304.21	16.8989
2304.44	13.0384
2304.68	16.9049
2304.91	15.9407
2305.14	13.0432
2305.38	17.8756
2305.61	15.9454
2305.85	14.9808
2306.08	15.9481
2306.31	13.0487
2306.55	15.9483
2306.78	15.9479
2307.02	14.9799
2307.25	17.8772
2307.48	16.9097
2307.72	16.9081
2307.95	15.9409
2308.19	15.9409
2308.42	15.942
2308.65	17.8772
2308.89	14.9809
2309.12	16.9185
2309.36	14.9898
2309.59	17.8948
2309.82	14.9944
2310.06	14.9949
2310.29	14.027
2310.53	16.9274
2310.76	16.9232
2310.99	16.9129
2311.23	18.8344
2311.46	13.0346
2311.7	15.9275
2311.93	16.8904
2312.16	17.8525
2312.4	15.9206
2312.63	14.9557
2312.86	15.9227
2313.1	16.8934
2313.33	15.9342
2313.56	16.9051
2313.8	15.9439
2314.03	16.9155
2314.27	16.9223
2314.5	15.9605
2314.73	16.9308
2314.97	14.0241
2315.2	14.9878
2315.43	15.9516
2315.67	14.9808
2315.9	17.87
2316.14	15.9342
2316.37	19.7944
2316.6	16.8976
2316.84	14.9674
2317.07	16.8997
2317.3	17.8707
2317.54	15.9414
2317.77	17.8668
2318	15.9332
2318.24	13.0345
2318.47	15.9286
2318.71	16.8912
2318.94	15.9237
2319.17	16.8871
2319.41	17.8509
2319.64	18.8161
2319.87	17.8518
2320.11	15.9218
2320.34	17.8537
2320.57	15.9261
2320.81	15.9289
2321.04	18.8287
2321.27	14.9698
2321.51	21.7369
2321.74	16.9119
2321.97	16.9164
2322.21	17.8847
2322.44	18.8505
2322.67	14.9847
2322.91	16.9195
2323.14	14.9868
2323.37	16.9219
2323.61	19.8235
2323.84	16.9217
2324.07	17.8879
2324.31	16.9166
2324.54	18.8441
2324.77	21.7354
2325.01	18.8332
2325.24	14.9671
2325.47	22.6876
2325.71	21.7178
2325.94	23.6432
2326.17	25.5677
2326.41	29.4207
2326.64	35.2008
2326.87	38.0855
2327.1	51.577
2327.34	67.9545
2327.57	87.2232
2327.8	120.964
2328.04	126.748
2328.27	101.691
2328.5	75.6491
2328.74	51.5474
2328.97	37.0847
2329.2	31.303
2329.44	28.4123
2329.67	25.5268
2329.9	25.5246
2330.13	22.6333
2330.37	20.7052
2330.6	21.6676
2330.83	18.7802
2331.07	15.8934
2331.3	18.7863
2331.53	18.7912
2331.77	17.8218
2332	18.7818
2332.23	18.7791
2332.47	16.8508
2332.7	15.8858
2332.93	13.9586
2333.16	15.8822
2333.4	14.9183
2333.63	16.8409
2333.86	15.8759
2334.09	20.6813
2334.33	13.9459
2334.56	15.8679
2334.79	17.7909
2335.02	15.8666
2335.26	16.8291
2335.49	16.8304
2335.72	16.8298
2335.96	17.7896
2336.19	12.9809
2336.42	15.8649
2336.66	14.9028
2336.89	15.8636
2337.12	15.863
2337.35	16.8229
2337.59	17.7831
2337.82	17.7824
2338.05	14.8981
2338.28	15.8588
2338.52	14.8984
2338.75	16.8212
2338.98	12.9764
2339.21	14.8983
2339.45	16.8193
2339.68	14.8953
2339.91	13.9319
2340.14	17.7723
2340.38	14.8869
2340.61	16.8031
2340.84	18.7173
2341.07	14.8722
2341.31	14.868
2341.54	14.8655
2341.77	14.863
2342	17.7371
2342.24	14.8592
2342.47	16.7757
2342.7	18.6926
2342.93	15.8171
2343.17	16.7749
2343.4	15.8158
2343.63	12.9405
2343.86	18.6932
2344.1	16.7766
2344.33	16.7761
2344.56	13.8993
2344.79	14.8563
2345.02	15.8122
2345.26	15.808
2345.49	18.6789
2345.72	11.9714
2345.95	14.8437
2346.19	17.7157
2346.42	11.9695
2346.65	15.7984
2346.88	15.7972
2347.12	15.797
2347.35	18.6697
2347.58	14.8308
2347.81	16.7474
2348.04	16.7179
2348.28	16.6874
2348.51	17.5765
2348.74	16.6853
2348.97	14.0104
2349.2	14.025
2349.44	16.5166
2349.67	15.6414
2349.9	16.4938
2350.13	17.3681
2350.37	16.2251
2350.6	17.4529
2350.83	16.5857
2351.06	15.2607
2351.29	15.6779
2351.53	15.2772
2351.76	15.6339
2351.99	15.3144
2352.22	16.9045
2352.45	16.5272
2352.69	16.3346
2352.92	14.7466
2353.15	14.6462
2353.38	16.5483
2353.61	14.9036
2353.85	16.4993
2354.08	16.9927
2354.31	14.1449
2354.54	15.597
2354.77	14.0528
2355.01	15.152
2355.24	18.2838
2355.47	13.9511
2355.7	15.2107
2355.93	14.6567
2356.17	14.1523
2356.4	14.6492
2356.63	14.1915
2356.86	16.3744
2357.09	15.9181
2357.32	15.0404
2357.56	15.3627
2357.79	16.0553
2358.02	16.1686
2358.25	14.7468
2358.48	14.9729
2358.71	15.0612
2358.95	15.8378
2359.18	17.0396
2359.41	15.8243
2359.64	13.491
2359.87	15.4938
2360.1	13.8346
2360.34	14.4657
2360.57	16.2271
2360.8	16.3064
2361.03	13.8096
2361.26	15.682
2361.49	16.4794
2361.73	15.4199
2361.96	15.9526
2362.19	15.3552
2362.42	15.9103
2362.65	15.8973
2362.88	15.3454
2363.11	16.1322
2363.35	16.9367
2363.58	17.3127
2363.81	15.6627
2364.04	16.7081
2364.27	16.0926
2364.5	13.1448
2364.73	14.7412
2364.97	15.6653
2365.2	14.2742
2365.43	17.4584
2365.66	16.658
2365.89	15.8597
2366.12	13.6187
2366.36	14.2684
2366.59	16.3453
2366.82	15.3375
2367.05	14.7334
2367.28	14.0852
2367.51	15.0956
2367.74	16.7403
2367.97	17.4272
2368.2	17.9421
2368.44	14.5965
2368.67	12.7898
2368.9	13.955
2368.98	14.6283
2369.22	16.5122
2369.45	15.5649
2369.69	16.504
2369.92	15.557
2370.15	16.4962
2370.39	15.5507
2370.62	16.4899
2370.86	13.6606
2371.09	15.5427
2371.33	15.5411
2371.56	12.7141
2371.79	15.5366
2372.03	17.417
2372.26	13.6488
2372.5	16.4702
2372.73	15.5276
2372.97	14.5857
2373.2	17.4078
2373.43	17.405
2373.67	16.4604
2373.9	16.4573
2374.14	16.4546
2374.37	11.7512
2374.6	15.5088
2374.84	15.5054
2375.07	15.5023
2375.31	14.5611
2375.54	15.4994
2375.77	14.5591
2376.01	16.4363
2376.24	14.555
2376.48	15.4913
2376.71	12.6735
2376.94	18.3048
2377.18	12.6713
2377.41	13.6076
2377.65	14.5429
2377.88	12.6645
2378.11	13.5999
2378.35	14.5349
2378.58	14.5318
2378.82	16.4027
2379.05	12.649
2379.28	13.5814
2379.52	14.5148
2379.75	14.5131
2379.98	15.4482
2380.22	13.5745
2380.45	13.5737
2380.69	13.573
2380.92	17.317
2381.15	17.3172
2381.39	15.4458
2381.62	14.5095
2381.85	15.4444
2382.09	14.5079
2382.32	13.5712
2382.56	16.3776
2382.79	14.5048
2383.02	15.44
2383.26	17.3109
2383.49	15.439
2383.72	15.4389
2383.96	14.5033
2384.19	13.5671
2384.42	15.4374
2384.66	13.5653
2384.89	14.4986
2385.13	15.4314
2385.36	16.3635
2385.59	16.3591
2385.83	17.2892
2386.06	16.3509
2386.29	21.9501
2386.53	16.3405
2386.76	11.6685
2386.99	12.5976
2387.23	17.2587
2387.46	13.5261
2387.69	17.2578
2387.93	17.258
2388.16	15.3919
2388.4	14.4582
2388.63	14.4568
2388.86	16.3204
2389.1	17.2526
2389.33	14.4543
2389.56	17.2511
2389.8	18.1832
2390.03	13.5208
2390.26	15.3863
2390.5	15.3872
2390.73	16.321
2390.96	13.5237
2391.2	17.2549
2391.43	17.2545
2391.66	15.3881
2391.9	16.3193
2392.13	14.4529
2392.36	14.4511
2392.59	13.5137
2392.83	14.4405
2393.06	16.2978
2393.3	11.6364
2393.53	14.4253
2393.76	15.353
2394	13.491
2394.23	13.4875
2394.46	15.3436
2394.69	15.3447
2394.93	16.2777
2395.16	14.4226
2395.39	12.5865
2395.63	14.4538
2395.86	13.5207
2396.09	16.3303
2396.33	14.4708
2396.56	16.3257
2396.79	13.5242
2397.02	14.4558
2397.26	15.3884
2397.49	16.3215
2397.73	17.2543
2397.96	15.3882
2398.19	16.3202
2398.42	17.2527
2398.66	14.4548
2398.89	15.387
2399.12	14.4552
2399.36	14.4555
2399.59	15.3883
2399.82	14.4556
