#Acq. time (s)=	30
#Accumulations=	2
#Range (cm-¹)=	1200...2365
#Windows=	3
#Auto scanning=	Off
#Autofocus=	Off
#Macrospot=	Off
#AutoExposure=	Off
#Spike filter=	Multiple accum.
#Delay time (s)=	2
#Binning=	1
#Readout mode=	Signal
#DeNoise=	Off
#ICS correction=	On
#Dark correction=	Off
#Inst. Process=	Off
#Detector Gain=	Best Dynamic
#Detector ADC=	50 kHz HS
#Detector temperature (°C)=	-60.09
#Instrument=	LabRAM HR Evol
#Detector=	SIN-EM FIVIS
#Objective=	x100_VIS
#Grating=	1800 (450-850nm)
#ND Filter=	100%
#Laser=	532nm_Edge
#Hole=	49.98
#Temperature=	0
#Range=	Visible
#StageXY=	75x50mm Scan+
#StageZ=	Z motor
#X (µm)=	0
#Y (µm)=	0
#Z (µm)=	-244.7
#Full time(mm:ss)=	3:22
#Project=	21_11_04
#Sample=	BU19w
#Site=	
#Title=	BU19w-E-FF11b-FI04-V_1800 (450-850nm)_532nm_Edge_100%_x100_VIS_H50um_30sX2
#Remark=	
#Date=	04.11.2021 18:47
#Acquired=	04.11.2021 18:47:44
1202.73	25.3062
1203.01	28.5233
1203.29	26.3472
1203.57	30.6432
1203.85	25.2574
1204.12	27.4163
1204.4	25.263
1204.68	26.3302
1204.96	23.096
1205.24	24.1601
1205.51	24.1482
1205.79	25.2096
1206.07	25.1978
1206.35	26.2577
1206.63	26.2463
1206.9	28.38
1207.18	24.0907
1207.46	27.2971
1207.74	21.941
1208.01	21.9354
1208.29	27.2773
1208.57	25.1314
1208.85	24.0574
1209.13	20.8484
1209.4	29.3998
1209.68	27.2575
1209.96	27.2487
1210.23	19.7604
1210.51	26.1598
1210.79	26.1508
1211.07	22.9409
1211.35	26.1327
1211.62	28.2549
1211.9	25.0482
1212.18	26.1068
1212.46	25.0338
1212.73	25.0277
1213.01	30.348
1213.29	25.0193
1213.57	25.0178
1213.84	26.0835
1214.12	27.1488
1214.4	28.2135
1214.68	27.1481
1214.95	30.3406
1215.23	26.0808
1215.51	27.1402
1215.78	29.2597
1216.06	27.1206
1216.34	29.2355
1216.62	31.3511
1216.9	29.2171
1217.17	34.519
1217.45	22.83
1217.73	24.9481
1218	28.1265
1218.28	27.0609
1218.56	28.1201
1218.84	25.9955
1219.11	33.4198
1219.39	28.1093
1219.67	25.9857
1219.94	25.9863
1220.22	29.1669
1220.5	25.9837
1220.77	27.0392
1221.05	31.2761
1221.33	32.3285
1221.61	25.9596
1221.88	21.7119
1222.16	31.2287
1222.44	31.2126
1222.72	29.0842
1222.99	31.184
1223.27	26.9472
1223.55	25.8803
1223.82	32.2088
1224.1	29.0354
1224.38	32.1968
1224.65	33.2504
1224.93	30.0847
1225.21	30.0895
1225.49	30.0928
1225.76	26.9261
1226.04	31.1474
1226.32	30.0876
1226.59	32.193
1226.87	32.1815
1227.15	34.2652
1227.42	34.2387
1227.7	28.9544
1227.98	27.8796
1228.25	31.0094
1228.53	32.0489
1228.81	26.8327
1229.08	35.3324
1229.36	33.2327
1229.64	28.9849
1229.91	35.2878
1230.19	31.0727
1230.47	32.1183
1230.74	33.1193
1231.02	33.0994
1231.3	30.9996
1231.57	32.0497
1231.85	33.0972
1232.13	35.1967
1232.4	30.9929
1232.68	36.2426
1232.96	32.0387
1233.23	37.2919
1233.51	34.1432
1233.79	32.045
1234.06	30.9982
1234.34	34.1566
1234.62	28.9047
1234.89	26.8047
1235.17	31.0131
1235.45	28.9137
1235.72	31.0175
1236	28.9119
1236.27	32.0612
1236.55	34.1578
1236.83	29.9445
1237.1	33.0848
1237.38	26.7734
1237.66	32.0117
1237.93	31.9997
1238.21	30.9402
1238.49	29.8855
1238.76	31.978
1239.04	28.8292
1239.31	29.875
1239.59	33.0184
1239.87	31.9695
1240.14	26.7291
1240.42	27.7785
1240.7	28.8285
1240.97	28.8283
1241.25	30.9189
1241.52	28.8182
1241.8	33.0083
1242.08	27.7714
1242.35	27.7728
1242.63	28.8271
1242.91	30.9245
1243.18	27.7785
1243.46	31.9735
1243.74	26.7332
1244.01	30.9245
1244.29	28.8258
1244.56	28.8214
1244.84	29.8615
1245.11	30.9007
1245.39	27.7477
1245.67	31.9285
1245.94	27.7392
1246.22	30.8779
1246.49	32.972
1246.77	30.8766
1247.05	29.828
1247.32	30.8733
1247.6	26.6806
1247.87	29.8094
1248.15	31.8987
1248.43	36.0825
1248.7	35.0395
1248.98	33.9937
1249.25	28.7619
1249.53	35.0371
1249.8	24.576
1250.08	29.7972
1250.36	29.79
1250.63	25.6037
1250.91	32.913
1251.18	31.8626
1251.46	33.946
1251.74	30.8068
1252.01	31.8452
1252.29	31.8388
1252.56	29.7451
1252.84	31.828
1253.11	30.7833
1253.39	28.699
1253.66	32.8793
1253.94	28.71
1254.22	31.8465
1254.49	30.8034
1254.77	33.9376
1255.04	28.7174
1255.32	32.8934
1255.59	29.7609
1255.87	34.9843
1256.14	30.811
1256.42	34.9919
1256.7	33.947
1256.97	34.9875
1257.25	43.3381
1257.52	40.202
1257.8	40.1988
1258.07	39.1513
1258.35	37.055
1258.62	39.1383
1258.9	32.879
1259.18	36.0125
1259.45	31.8522
1259.73	38.1146
1260	38.1065
1260.28	39.1367
1260.55	38.0821
1260.83	43.2904
1261.1	39.1132
1261.38	49.5765
1261.65	45.4504
1261.93	51.8062
1262.2	50.6851
1262.48	66.278
1262.75	63.069
1263.03	59.9946
1263.31	54.8227
1263.58	62.177
1263.85	65.396
1264.13	55.9387
1264.41	48.6006
1264.68	41.2823
1264.96	45.4654
1265.23	40.2282
1265.51	44.4059
1265.78	38.1385
1266.06	37.0977
1266.33	36.0588
1266.61	36.0665
1266.88	36.0757
1267.16	43.4078
1267.43	36.097
1267.71	32.9705
1267.98	36.1281
1268.26	36.136
1268.53	35.0946
1268.81	37.1953
1269.08	38.2451
1269.36	37.1901
1269.63	36.1328
1269.91	40.3112
1270.18	37.1623
1270.46	37.1543
1270.73	40.2896
1271.01	38.1932
1271.28	38.1918
1271.56	39.2452
1271.83	37.162
1272.1	39.2689
1272.38	38.2341
1272.65	38.2438
1272.93	39.3021
1273.2	36.1675
1273.48	38.2743
1273.75	40.3801
1274.03	39.335
1274.3	40.3837
1274.58	38.2852
1274.85	38.2878
1275.13	35.1459
1275.4	42.497
1275.68	36.209
1275.95	41.4652
1276.22	37.2733
1276.5	39.3795
1276.78	38.3373
1277.05	40.4478
1277.32	40.4577
1277.6	38.3642
1277.87	34.1663
1278.15	43.639
1278.42	40.4927
1278.7	45.7598
1278.97	47.8648
1279.24	48.9135
1279.52	46.8044
1279.79	46.8009
1280.07	62.5791
1280.34	61.5318
1280.62	77.324
1280.89	82.6102
1281.17	102.627
1281.44	134.206
1281.71	170.002
1281.99	240.568
1282.26	312.141
1282.54	383.615
1282.81	517.876
1283.09	622.652
1283.36	668.895
1283.63	570.992
1283.91	403.87
1284.18	278.689
1284.46	175.466
1284.73	132.203
1285.01	91.0774
1285.28	85.8014
1285.55	60.5486
1285.83	59.505
1286.1	56.3305
1286.38	51.065
1286.65	44.7466
1286.93	45.7942
1287.2	38.4179
1287.47	41.5691
1287.75	38.4105
1288.02	39.464
1288.3	39.4653
1288.57	41.5754
1288.84	39.4775
1289.12	38.4316
1289.39	36.333
1289.67	38.4475
1289.94	35.2911
1290.21	33.18
1290.49	35.2839
1290.76	35.2831
1291.04	34.2297
1291.31	33.1759
1291.58	31.0683
1291.86	35.2832
1292.13	30.018
1292.4	35.2799
1292.68	30.0142
1292.95	36.3393
1293.23	34.2482
1293.5	32.1532
1293.77	34.2733
1294.05	28.9991
1294.32	33.2174
1294.59	28.9989
1294.87	34.2842
1295.14	32.1903
1295.42	34.3231
1295.69	34.3445
1295.96	31.1806
1296.24	30.1247
1296.51	29.0667
1296.79	32.2325
1297.06	32.2265
1297.33	32.2195
1297.61	30.0994
1297.88	29.0407
1298.15	33.2676
1298.43	31.1504
1298.7	32.2015
1298.97	30.0857
1299.25	35.3608
1299.52	34.3087
1299.79	32.2024
1300.07	32.2043
1300.34	33.2597
1300.61	29.035
1300.89	31.147
1301.16	27.9829
1301.44	35.3806
1301.71	31.1597
1301.98	30.1051
1302.26	32.2179
1302.53	27.9915
1302.8	34.3261
1303.08	30.0969
1303.35	29.0381
1303.62	32.206
1303.9	33.2624
1304.17	25.8706
1304.44	31.148
1304.72	30.0877
1304.99	31.137
1305.26	26.9091
1305.54	30.0678
1305.81	30.0613
1306.08	27.9481
1306.36	27.947
1306.63	29.0034
1306.9	29.005
1307.18	32.1693
1307.45	30.0594
1307.72	29.0061
1307.99	30.0599
1308.27	31.1149
1308.54	27.9543
1308.81	31.1235
1309.09	25.8522
1309.36	31.1322
1309.63	30.0774
1309.91	27.965
1310.18	30.0749
1310.45	29.0206
1310.73	30.0775
1311	31.1344
1311.27	27.9696
1311.54	31.1409
1311.82	30.0904
1312.09	32.2053
1312.36	29.0386
1312.64	27.9783
1312.91	29.0315
1313.18	24.8076
1313.45	30.0832
1313.73	29.0267
1314	27.9723
1314.27	23.7521
1314.55	24.8106
1314.82	26.9256
1315.09	30.0971
1315.36	30.1011
1315.64	26.9337
1315.91	29.0443
1316.18	25.8746
1316.46	31.1541
1316.73	29.0417
1317	27.9879
1317.28	26.9351
1317.55	26.9373
1317.82	31.1643
1318.09	25.8831
1318.37	30.1093
1318.64	29.0525
1318.91	32.2208
1319.18	29.0504
1319.46	27.9949
1319.73	32.2217
1320	31.1645
1320.27	30.1049
1320.55	26.9309
1320.82	29.0358
1321.09	29.0268
1321.36	30.0757
1321.64	32.1782
1321.91	31.1174
1322.18	27.9491
1322.45	26.8908
1322.73	30.0483
1323	31.1033
1323.27	26.8878
1323.54	28.9977
1323.82	28.997
1324.09	27.943
1324.36	28.9964
1324.63	24.7808
1324.91	27.9406
1325.18	26.8759
1325.45	27.9161
1325.72	27.8953
1325.99	28.9358
1326.27	29.9823
1326.54	27.882
1326.81	28.9533
1327.08	26.859
1327.36	27.9219
1327.63	25.8243
1327.9	33.2161
1328.17	25.8439
1328.45	25.8505
1328.72	24.7906
1328.99	24.7937
1329.26	27.9586
1329.53	33.2317
1329.81	26.8991
1330.08	23.7307
1330.35	31.107
1330.62	30.0444
1330.9	26.873
1331.17	28.9674
1331.44	28.9561
1331.71	30.0008
1331.98	27.8875
1332.26	27.8785
1332.53	29.9716
1332.8	26.8078
1333.07	26.7994
1333.34	33.0957
1333.62	29.9353
1333.89	28.8773
1334.16	28.87
1334.43	26.7644
1334.7	26.7593
1334.98	27.8034
1335.25	27.7984
1335.52	26.745
1335.79	26.7407
1336.06	25.6886
1336.34	28.8305
1336.61	29.8759
1336.88	27.777
1337.15	26.7265
1337.42	25.6742
1337.69	26.7142
1337.96	27.7575
1338.24	29.8481
1338.51	25.6548
1338.78	26.7007
1339.05	30.8893
1339.32	32.9856
1339.6	29.8453
1339.87	24.6097
1340.14	29.8473
1340.41	24.6111
1340.68	24.6101
1340.95	31.939
1341.23	30.889
1341.5	27.7439
1341.77	27.7387
1342.04	25.639
1342.31	29.8169
1342.58	27.7189
1342.86	29.8083
1343.13	28.7609
1343.4	26.6688
1343.67	26.669
1343.94	29.807
1344.21	26.6682
1344.48	31.8929
1344.76	26.6593
1345.03	27.6972
1345.3	28.7341
1345.57	26.6367
1345.84	24.537
1346.11	24.5269
1346.39	30.7801
1346.66	27.6415
1346.93	29.719
1347.2	25.5422
1347.47	27.6232
1347.74	28.6627
1348.01	26.5761
1348.28	26.573
1348.55	27.6103
1348.83	31.7719
1349.1	29.6829
1349.37	26.5536
1349.64	28.6312
1349.91	27.5851
1350.18	29.6606
1350.45	24.4509
1350.73	30.6876
1351	31.721
1351.27	32.7562
1351.54	28.5954
1351.81	29.6371
1352.08	27.5622
1352.35	30.691
1352.62	26.5343
1352.89	29.6732
1353.17	31.7873
1353.44	27.6121
1353.71	29.6569
1353.98	29.6192
1354.25	25.4552
1354.52	27.5368
1354.79	31.6873
1355.06	26.4822
1355.33	26.4869
1355.6	31.6942
1355.88	32.7233
1356.15	32.72
1356.42	28.5625
1356.69	28.5601
1356.96	29.5952
1357.23	26.4761
1357.5	25.4336
1357.77	26.467
1358.04	30.6133
1358.31	26.4578
1358.58	27.4894
1358.86	28.5222
1359.13	28.5186
1359.4	28.5138
1359.67	29.5412
1359.94	32.6419
1360.21	29.5259
1360.48	34.7019
1360.75	30.5573
1361.02	30.5569
1361.29	30.5552
1361.56	36.7669
1361.83	31.5844
1362.1	32.6169
1362.37	32.6146
1362.65	34.6862
1362.92	32.6195
1363.19	33.6608
1363.46	32.6286
1363.73	33.6668
1364	37.808
1364.27	39.8763
1364.54	32.6214
1364.81	36.7562
1365.08	38.818
1365.35	35.7043
1365.62	34.6617
1365.89	30.5161
1366.16	30.5081
1366.43	32.566
1366.7	38.7592
1366.97	34.6213
1367.24	33.5885
1367.52	37.7273
1367.79	34.6285
1368.06	39.7994
1368.33	51.1738
1368.6	60.4826
1368.87	59.4533
1369.14	44.9763
1369.41	34.6325
1369.68	36.6961
1369.95	37.7225
1370.22	34.6154
1370.49	35.6433
1370.76	32.5361
1371.03	39.754
1371.3	36.6429
1371.57	38.6924
1371.84	41.7727
1372.11	36.6047
1372.38	34.5354
1372.65	33.4996
1372.92	39.6791
1373.19	37.6137
1373.46	36.5799
1373.73	44.8198
1374	41.7261
1374.27	36.5721
1374.54	44.8088
1374.81	45.8378
1375.08	42.7518
1375.35	38.6323
1375.62	41.7246
1375.89	46.8692
1376.16	41.7087
1376.43	40.667
1376.7	47.8539
1376.97	47.8505
1377.24	51.9772
1377.51	48.9061
1377.78	52.0183
1378.05	45.8641
1378.32	48.9711
1378.59	47.9421
1378.86	55.1537
1379.13	52.0541
1379.4	59.2594
1379.67	60.2724
1379.94	58.1681
1380.21	60.1945
1380.48	59.1355
1380.75	64.2837
1381.02	65.3052
1381.29	61.167
1381.56	69.3566
1381.83	65.2171
1382.1	74.4337
1382.37	73.3773
1382.64	66.1746
1382.91	70.2557
1383.18	79.4713
1383.45	72.2789
1383.72	76.3797
1383.99	88.6868
1384.26	99.9809
1384.53	113.334
1384.8	131.852
1385.07	155.494
1385.34	214.058
1385.61	301.353
1385.87	456.5
1386.14	701.017
1386.41	1135.55
1386.68	1455.87
1386.95	1300.38
1387.22	830.371
1387.49	451.1
1387.76	273.526
1388.03	172.592
1388.3	128.71
1388.57	103.188
1388.84	87.7786
1389.11	74.4554
1389.38	65.2021
1389.65	57.9804
1389.92	57.9243
1390.19	50.7684
1390.46	51.7636
1390.73	45.6064
1390.99	48.6806
1391.26	46.6217
1391.53	40.4633
1391.8	43.5257
1392.07	35.3262
1392.34	37.3687
1392.61	45.5535
1392.88	36.3368
1393.15	40.4273
1393.42	39.4005
1393.69	37.351
1393.96	43.4883
1394.23	37.3468
1394.5	38.3706
1394.76	34.2844
1395.03	35.3126
1395.3	37.363
1395.57	38.3866
1395.84	39.4077
1396.11	36.3332
1396.38	36.3286
1396.65	36.3233
1396.92	37.339
1397.19	34.2656
1397.46	30.1729
1397.73	33.2427
1397.99	37.3378
1398.26	34.2722
1398.53	31.205
1398.8	33.2551
1399.07	33.2599
1399.34	32.2398
1399.61	37.3586
1399.88	31.2198
1400.14	34.2978
1400.41	33.2799
1400.68	32.2569
1400.95	34.3068
1401.22	37.3809
1401.49	31.2423
1401.76	35.3563
1402.03	35.3774
1402.3	31.2917
1402.57	35.4086
1402.83	34.3899
1403.1	36.4458
1403.37	36.4418
1403.64	30.2693
1403.91	31.2919
1404.18	34.3699
1404.45	36.4182
1404.72	36.4127
1404.99	40.5083
1405.25	39.4758
1405.52	37.419
1405.79	42.5397
1406.06	43.5606
1406.33	42.5359
1406.6	51.7639
1406.87	56.894
1407.13	56.898
1407.4	68.1794
1407.67	85.614
1407.94	86.6444
1408.21	93.8288
1408.48	86.6584
1408.75	86.6661
1409.01	67.1848
1409.28	56.9314
1409.55	51.8051
1409.82	49.7471
1410.09	40.5059
1410.36	36.393
1410.62	39.4582
1410.89	36.3768
1411.16	36.3714
1411.43	31.246
1411.7	32.273
1411.97	35.3545
1412.23	29.2175
1412.5	38.4875
1412.77	24.1429
1413.04	28.2469
1413.31	34.3555
1413.58	33.3232
1413.84	28.2127
1414.11	30.2855
1414.38	29.2587
1414.65	34.393
1414.92	30.2868
1415.19	28.2338
1415.45	33.3697
1415.72	28.2385
1415.99	28.2414
1416.26	31.3255
1416.53	23.1118
1416.8	32.3605
1417.06	22.0901
1417.33	33.3948
1417.6	29.2856
1417.87	27.231
1418.14	27.2335
1418.4	30.3161
1418.67	29.2907
1418.94	32.372
1419.21	25.1742
1419.48	30.3055
1419.74	24.1375
1420.01	27.2138
1420.28	27.2079
1420.55	29.2555
1420.82	27.1986
1421.08	29.2514
1421.35	30.2824
1421.62	26.1874
1421.89	31.3296
1422.16	28.2619
1422.42	33.4216
1422.69	26.2523
1422.96	27.2852
1423.23	28.1767
1423.5	29.2372
1423.76	28.1855
1424.03	27.1393
1424.3	30.2367
1424.57	27.1584
1424.83	28.2203
1425.1	27.1674
1425.37	27.1869
1425.64	27.185
1425.91	33.3371
1426.17	29.2266
1426.44	28.194
1426.71	23.0613
1426.98	28.177
1427.24	27.1406
1427.51	29.1834
1427.78	24.0611
1428.05	26.1087
1428.32	26.1101
1428.58	26.1122
1428.85	27.1391
1429.12	25.0944
1429.38	26.1237
1429.65	25.1056
1429.92	24.0871
1430.19	23.0674
1430.46	23.0767
1430.72	24.1126
1430.99	24.1184
1431.26	29.2523
1431.53	25.1442
1431.79	29.2426
1432.06	28.2111
1432.33	23.0775
1432.6	28.1954
1432.86	27.1596
1433.13	25.0994
1433.4	27.1399
1433.67	27.136
1433.93	28.1649
1434.2	22.0299
1434.47	27.1546
1434.73	23.0565
1435	25.1058
1435.27	27.1544
1435.54	25.1037
1435.8	27.1513
1436.07	26.1248
1436.34	22.0248
1436.6	28.1688
1436.87	27.1432
1437.14	23.0448
1437.41	30.2117
1437.67	25.0915
1437.94	22.0217
1438.21	26.1221
1438.48	26.1237
1438.74	24.0759
1439.01	26.128
1439.28	29.2079
1439.54	24.09
1439.81	27.1706
1440.08	28.1985
1440.35	25.1233
1440.61	27.1754
1440.88	24.0986
1441.15	24.0956
1441.41	27.1685
1441.68	30.2472
1441.95	25.123
1442.21	25.1266
1442.48	25.1268
1442.75	25.123
1443.02	25.1193
1443.28	27.1669
1443.55	23.0649
1443.82	26.1407
1444.08	25.1209
1444.35	24.1018
1444.62	23.0836
1444.88	25.1371
1445.15	22.0572
1445.42	25.1329
1445.69	26.1566
1445.95	24.1034
1446.22	25.1273
1446.49	24.1
1446.75	26.1488
1447.02	23.0699
1447.28	27.1682
1447.55	26.1418
1447.82	26.1447
1448.09	26.1508
1448.35	20.0001
1448.62	24.1032
1448.89	24.102
1449.15	23.0739
1449.42	26.1466
1449.69	24.0919
1449.95	23.0643
1450.22	24.0876
1450.49	24.0858
1450.75	24.084
1451.02	23.0571
1451.29	24.0795
1451.55	21.0039
1451.82	23.0518
1452.09	22.0273
1452.35	25.1016
1452.62	24.0795
1452.88	24.0824
1453.15	25.1085
1453.42	26.1321
1453.68	25.1056
1453.95	23.056
1454.22	23.0562
1454.48	22.0314
1454.75	25.104
1455.02	25.103
1455.28	25.1071
1455.55	25.1106
1455.81	23.0616
1456.08	25.1105
1456.35	23.0574
1456.61	27.1515
1456.88	23.0512
1457.15	27.1475
1457.41	25.0972
1457.68	22.0241
1457.95	25.0976
1458.21	22.0257
1458.48	24.076
1458.74	26.126
1459.01	24.0781
1459.28	25.1023
1459.54	21.0028
1459.81	19.977
1460.08	21
1460.34	19.9738
1460.61	20.9955
1460.87	22.017
1461.14	24.062
1461.41	23.0345
1461.67	25.0778
1461.94	23.0262
1462.2	27.1142
1462.47	20.9706
1462.74	24.0339
1463	23.0057
1463.27	20.9575
1463.54	21.9833
1463.8	20.9719
1464.07	22.003
1464.33	22.0109
1464.6	26.1186
1464.86	21.9694
1465.13	23.9889
1465.4	21.9367
1465.66	19.9042
1465.93	25.0114
1466.19	20.9195
1466.46	21.9309
1466.73	27.0369
1466.99	23.9749
1467.26	22.953
1467.52	24.9919
1467.79	20.9112
1468.05	26.0112
1468.32	22.9503
1468.59	19.8886
1468.85	24.9854
1469.12	26.0016
1469.38	24.976
1469.65	20.8938
1469.92	21.9098
1470.18	23.9452
1470.45	22.924
1470.71	21.9037
1470.98	23.9364
1471.24	25.9693
1471.51	24.9486
1471.77	20.8745
1472.04	22.9104
1472.31	23.9281
1472.57	20.8725
1472.84	20.8702
1473.1	22.9026
1473.37	23.9175
1473.64	22.8975
1473.9	20.8616
1474.17	22.898
1474.43	23.9183
1474.7	21.8833
1474.96	22.901
1475.23	18.8285
1475.49	18.8263
1475.76	24.9291
1476.02	21.8749
1476.29	23.907
1476.55	21.8685
1476.82	21.8659
1477.09	22.8819
1477.35	20.8474
1477.62	23.8969
1477.88	21.8594
1478.15	23.8888
1478.41	22.869
1478.68	21.8492
1478.94	22.8614
1479.21	22.8568
1479.47	21.8363
1479.74	18.7839
1480	24.8682
1480.27	20.8033
1480.53	24.8593
1480.8	20.7978
1481.07	20.7975
1481.33	23.8443
1481.6	24.8633
1481.86	19.793
1482.12	22.8422
1482.39	20.8131
1482.65	20.8146
1482.92	20.8165
1483.19	21.8326
1483.45	20.8168
1483.72	22.842
1483.98	20.8015
1484.25	19.7699
1484.51	22.7831
1484.78	22.7649
1485.04	23.7594
1485.31	23.7877
1485.57	22.799
1485.84	21.7942
1486.1	20.7686
1486.37	23.8066
1486.63	20.7737
1486.9	24.8239
1487.16	24.8176
1487.43	24.8134
1487.69	22.7844
1487.96	21.7676
1488.22	21.7625
1488.49	25.806
1488.75	23.7788
1489.02	21.7531
1489.28	22.7631
1489.54	20.7392
1489.81	21.7508
1490.07	21.7491
1490.34	19.7226
1490.6	19.7186
1490.87	24.7714
1491.13	23.7589
1491.4	21.7364
1491.66	19.7152
1491.93	22.7482
1492.19	21.7361
1492.46	18.7024
1492.72	22.7461
1492.99	21.7341
1493.25	20.7221
1493.52	21.7328
1493.78	20.723
1494.04	20.7249
1494.31	22.7471
1494.57	24.7664
1494.84	21.7286
1495.1	22.7314
1495.37	21.7142
1495.63	24.7388
1495.9	23.7255
1496.16	19.6848
1496.43	24.7284
1496.69	22.7088
1496.96	25.7367
1497.22	21.6985
1497.48	22.707
1497.75	20.6886
1498.01	21.6982
1498.28	23.7173
1498.54	21.6997
1498.81	23.7196
1499.07	22.7121
1499.33	24.7333
1499.6	25.7443
1499.86	20.6966
1500.13	21.7056
1500.39	18.6765
1500.66	20.6944
1500.92	24.7273
1501.18	22.7065
1501.45	22.7058
1501.71	23.7142
1501.98	21.6949
1502.24	21.691
1502.51	23.7031
1502.77	25.7181
1503.03	21.6794
1503.3	21.6778
1503.56	19.6632
1503.83	23.6981
1504.09	23.6987
1504.35	23.6983
1504.62	19.6629
1504.88	26.718
1505.15	23.6889
1505.41	21.6632
1505.68	24.683
1505.94	21.66
1506.2	22.6666
1506.47	23.6784
1506.73	23.6794
1507	17.6346
1507.26	22.6736
1507.52	21.6647
1507.79	23.6781
1508.05	20.6554
1508.32	22.6715
1508.58	23.6798
1508.84	18.6415
1509.11	22.6715
1509.37	23.68
1509.63	22.6774
1509.9	20.6577
1510.16	22.6692
1510.43	21.6569
1510.69	23.6658
1510.95	22.6514
1511.22	23.6462
1511.48	20.6163
1511.75	23.6223
1512.01	22.6055
1512.27	21.5949
1512.54	21.5898
1512.8	22.5893
1513.07	23.5896
1513.33	21.5829
1513.59	23.6022
1513.86	19.5892
1514.12	23.6056
1514.38	21.5931
1514.65	21.5865
1514.91	23.5895
1515.17	22.579
1515.44	25.5818
1515.7	20.5601
1515.96	23.5663
1516.23	22.5617
1516.49	22.56
1516.76	24.5642
1517.02	23.5617
1517.28	23.5628
1517.55	21.5607
1517.81	22.566
1518.07	22.5674
1518.34	22.5689
1518.6	23.5737
1518.86	21.5693
1519.13	24.5805
1519.39	19.5642
1519.65	19.563
1519.92	23.5741
1520.18	23.5743
1520.44	22.573
1520.71	21.5718
1520.97	23.5799
1521.23	22.5763
1521.5	21.5714
1521.76	22.5725
1522.02	22.5699
1522.29	23.5705
1522.55	20.5586
1522.81	25.5667
1523.08	24.5555
1523.34	20.5399
1523.6	21.5369
1523.87	24.5376
1524.13	22.5308
1524.39	21.5296
1524.66	24.5356
1524.92	19.5292
1525.18	23.5376
1525.45	22.5398
1525.71	24.5491
1525.97	23.5525
1526.24	23.5556
1526.5	21.5513
1526.76	22.5515
1527.02	22.5495
1527.29	23.5499
1527.55	20.5419
1527.81	20.5398
1528.08	22.5412
1528.34	23.5408
1528.6	20.5342
1528.87	21.5353
1529.13	24.5392
1529.39	21.5317
1529.65	23.5325
1529.92	20.5292
1530.18	21.5341
1530.44	20.5368
1530.71	21.5423
1530.97	18.5378
1531.23	19.5391
1531.5	23.5473
1531.76	24.5472
1532.02	22.5439
1532.28	21.5464
1532.55	24.5609
1532.81	21.5607
1533.07	21.5651
1533.34	24.5768
1533.6	17.5553
1533.86	25.5796
1534.12	21.5657
1534.39	22.5666
1534.65	24.5704
1534.91	22.5617
1535.17	23.5549
1535.44	24.5481
1535.7	21.5372
1535.96	22.5321
1536.22	25.5272
1536.49	22.516
1536.75	25.5134
1537.01	25.5077
1537.28	20.5053
1537.54	23.5032
1537.8	20.4967
1538.06	24.4922
1538.33	24.489
1538.59	21.4932
1538.85	18.5026
1539.11	22.5189
1539.38	25.5362
1539.64	20.5381
1539.9	22.5519
1540.16	24.5646
1540.43	23.5674
1540.69	23.5602
1540.95	22.5548
1541.21	24.5546
1541.48	21.5425
1541.74	24.5424
1542	20.5303
1542.26	21.5268
1542.52	19.52
1542.79	25.5203
1543.05	21.511
1543.31	24.5029
1543.57	22.5014
1543.84	25.5026
1544.1	22.5057
1544.36	23.5129
1544.62	23.5178
1544.89	24.5277
1545.15	23.5332
1545.41	20.532
1545.67	21.5368
1545.93	21.5361
1546.2	24.5413
1546.46	22.5402
1546.72	21.5408
1546.98	22.5461
1547.25	18.537
1547.51	21.5311
1547.77	22.5302
1548.03	21.5273
1548.29	20.5358
1548.56	21.5251
1548.82	20.5009
1549.08	22.4885
1549.34	22.4957
1549.61	21.5127
1549.87	23.5498
1550.13	24.5779
1550.39	23.6091
1550.65	20.5844
1550.91	20.5841
1551.18	22.5911
1551.44	21.577
1551.7	21.5825
1551.96	19.5858
1552.22	24.6069
1552.49	26.6134
1552.75	23.582
1553.01	22.5719
1553.27	21.5672
1553.53	24.5728
1553.79	24.5664
1554.06	26.5639
1554.32	28.557
1554.58	23.5429
1554.84	23.5408
1555.1	23.54
1555.37	25.5445
1555.63	21.5395
1555.89	22.5375
1556.15	23.5384
1556.41	24.5415
1556.68	22.5396
1556.94	20.5369
1557.2	24.5435
1557.46	20.5344
1557.72	24.5329
1557.98	21.5242
1558.25	21.517
1558.51	26.5126
1558.77	21.5042
1559.03	24.499
1559.29	21.4951
1559.55	26.4899
1559.82	25.4873
1560.08	26.4846
1560.34	22.4852
1560.6	24.4832
1560.86	25.4831
1561.12	19.49
1561.38	21.4937
1561.65	26.5018
1561.91	22.5034
1562.17	23.503
1562.43	24.5011
1562.69	26.5017
1562.95	26.5004
1563.21	26.4978
1563.48	23.503
1563.74	25.5132
1564	23.5174
1564.26	24.5187
1564.52	23.5107
1564.78	24.4793
1565.04	23.4279
1565.3	25.3692
1565.57	23.4397
1565.83	19.4938
1566.09	23.494
1566.35	23.4769
1566.61	25.4832
1566.87	23.5068
1567.13	26.5123
1567.39	23.4964
1567.66	24.4927
1567.92	25.496
1568.18	23.4987
1568.44	25.4982
1568.7	26.4904
1568.96	24.4843
1569.22	24.4826
1569.48	25.4835
1569.75	28.4827
1570.01	24.4856
1570.27	24.4855
1570.53	24.4847
1570.79	22.4844
1571.05	25.479
1571.31	21.4783
1571.57	22.4757
1571.83	26.4691
1572.1	25.4658
1572.36	26.4602
1572.62	26.4565
1572.88	25.4541
1573.14	25.45
1573.4	24.4509
1573.66	28.4465
1573.92	25.4576
1574.18	22.4678
1574.44	26.4687
1574.7	23.478
1574.97	24.4822
1575.23	26.4835
1575.49	25.483
1575.75	23.4837
1576.01	21.4837
1576.27	25.4745
1576.53	25.4652
1576.79	24.4577
1577.05	27.4428
1577.31	23.4436
1577.57	21.4417
1577.83	23.4309
1578.1	23.4285
1578.36	29.4095
1578.62	23.4277
1578.88	24.4246
1579.14	25.4223
1579.4	25.4255
1579.66	24.4309
1579.92	27.4235
1580.18	24.4315
1580.44	25.4265
1580.7	22.4317
1580.96	26.4162
1581.22	22.4249
1581.48	21.4234
1581.74	26.4026
1582	23.412
1582.26	27.3949
1582.53	29.3853
1582.79	23.4076
1583.05	28.3876
1583.31	26.3931
1583.57	23.4042
1583.83	25.3977
1584.09	27.3917
1584.35	23.4087
1584.61	25.4012
1584.87	23.4078
1585.13	24.4032
1585.39	27.3898
1585.65	24.3972
1585.91	21.4044
1586.17	25.3815
1586.43	27.3682
1586.69	25.3748
1586.95	28.3574
1587.21	26.3657
1587.47	25.3703
1587.73	24.3767
1587.99	26.3693
1588.25	27.3682
1588.51	26.3763
1588.77	27.3752
1589.03	26.3826
1589.29	29.371
1589.55	26.384
1589.81	26.3853
1590.07	23.4008
1590.33	24.3995
1590.59	25.3953
1590.85	27.387
1591.12	24.3981
1591.38	27.3835
1591.64	26.3832
1591.9	27.3706
1592.16	26.368
1592.42	28.3542
1592.68	29.3401
1592.94	27.3406
1593.2	26.335
1593.46	26.3268
1593.72	23.3421
1593.98	27.3138
1594.24	25.3291
1594.5	29.308
1594.76	31.2995
1595.02	26.3351
1595.28	26.3238
1595.54	26.3205
1595.8	24.3338
1596.06	27.3135
1596.32	22.348
1596.58	23.3426
1596.84	27.3179
1597.09	26.3273
1597.35	26.3276
1597.61	27.3193
1597.87	28.3088
1598.13	27.3086
1598.39	26.3087
1598.65	26.3034
1598.91	30.2685
1599.17	24.31
1599.43	28.2741
1599.69	25.2938
1599.95	29.2563
1600.21	24.2923
1600.47	26.2677
1600.73	26.2592
1600.99	24.2693
1601.25	28.2234
1601.51	29.2071
1601.77	25.2419
1602.03	27.2161
1602.29	19.2941
1602.55	30.171
1602.81	24.2308
1603.07	26.205
1603.33	26.2023
1603.59	28.1786
1603.85	27.1899
1604.11	26.202
1604.37	25.2135
1604.63	28.1803
1604.89	26.2035
1605.14	28.1826
1605.4	31.1528
1605.66	26.2111
1605.92	31.1607
1606.18	26.2175
1606.44	26.22
1606.7	27.2107
1606.96	22.2634
1607.22	29.1789
1607.48	30.1399
1607.74	26.1809
1608	29.2046
1608.26	31.7423
1608.52	28.1829
1608.78	27.0644
1609.04	29.9971
1609.29	30.0551
1609.55	29.147
1609.81	25.9586
1610.07	28.8805
1610.33	24.2031
1610.59	26.7209
1610.85	29.0456
1611.11	27.0944
1611.37	25.9886
1611.63	32.6507
1611.89	27.7425
1612.15	29.4666
1612.4	31.7752
1612.66	30.5645
1612.92	21.9668
1613.18	26.5287
1613.44	26.6427
1613.7	27.6567
1613.96	28.7636
1614.22	32.6325
1614.48	25.9384
1614.74	25.2403
1615	27.6659
1615.25	25.4806
1615.51	29.0286
1615.77	29.1378
1616.03	27.6246
1616.29	24.892
1616.55	28.2267
1616.81	26.6186
1617.07	28.4488
1617.33	29.1104
1617.59	29.5359
1617.84	29.0496
1618.1	28.3798
1618.36	26.9712
1618.62	28.1571
1618.88	27.8637
1619.14	27.3899
1619.4	29.7666
1619.66	26.2732
1619.91	25.6929
1620.17	26.0533
1620.43	26.225
1620.69	27.6847
1620.95	25.9952
1621.21	29.2342
1621.47	27.8774
1621.73	27.5544
1621.98	29.0306
1622.24	26.7516
1622.5	28.0949
1622.76	28.9231
1623.02	26.7617
1623.28	26.7136
1623.54	28.505
1623.79	25.969
1624.05	28.2587
1624.31	26.6416
1624.57	27.3984
1624.83	27.9712
1625.09	26.6668
1625.35	25.0666
1625.6	27.8939
1625.86	28.7572
1626.12	27.2248
1626.38	27.9662
1626.64	26.7308
1626.9	26.2523
1627.16	28.9631
1627.41	27.8148
1627.67	29.0443
1627.93	28.1478
1628.19	26.6692
1628.45	29.7475
1628.71	27.9434
1628.96	26.0432
1629.22	28.2584
1629.48	28.5004
1629.74	27.2046
1630	28.0181
1630.26	28.1391
1630.51	29.0926
1630.77	29.0573
1631.03	27.212
1631.29	28.0441
1631.3	28.0815
1631.56	29.0721
1631.82	25.1301
1632.08	34.0067
1632.34	27.1199
1632.6	30.0731
1632.86	26.1159
1633.13	30.0521
1633.39	28.0843
1633.65	26.1179
1633.91	28.0912
1634.17	26.1208
1634.43	28.0921
1634.69	30.0625
1634.96	26.1185
1635.22	30.0587
1635.48	28.0849
1635.74	33.0082
1636	28.0782
1636.26	27.0894
1636.52	27.0853
1636.79	26.0955
1637.05	31.0159
1637.31	31.015
1637.57	27.0743
1637.83	32.9781
1638.09	29.0378
1638.35	24.1165
1638.61	27.0698
1638.87	31.9913
1639.13	29.0382
1639.4	25.1007
1639.66	28.0527
1639.92	23.131
1640.18	26.0893
1640.44	27.078
1640.7	28.0646
1640.96	30.0324
1641.22	30.0289
1641.48	24.1199
1641.75	27.0719
1642.01	28.0553
1642.27	30.0227
1642.53	29.0375
1642.79	28.0524
1643.05	29.0364
1643.31	23.129
1643.57	28.0472
1643.83	29.0272
1644.09	28.0387
1644.35	26.0702
1644.62	30.0066
1644.88	27.0596
1645.14	26.0775
1645.4	27.063
1645.66	30.9966
1645.92	26.0734
1646.18	32.9572
1646.44	25.085
1646.7	29.0176
1646.96	25.0799
1647.22	28.0281
1647.48	28.0269
1647.74	29.0116
1648.01	28.0325
1648.27	28.038
1648.53	26.0812
1648.79	30.0293
1649.05	28.0565
1649.31	30.0226
1649.57	30.0212
1649.83	30.0285
1650.09	28.0679
1650.35	32.9979
1650.61	28.0787
1650.87	25.1268
1651.13	30.0558
1651.39	30.0563
1651.65	27.1
1651.92	27.101
1652.18	28.0849
1652.44	25.1253
1652.7	27.0942
1652.96	25.1237
1653.22	28.0806
1653.48	23.1564
1653.74	28.0856
1654	28.0869
1654.26	27.1032
1654.52	24.1495
1654.78	21.1965
1655.04	27.1194
1655.3	28.1157
1655.56	27.1367
1655.82	29.1154
1656.08	29.1185
1656.34	27.1459
1656.6	26.1585
1656.86	23.1955
1657.12	24.18
1657.38	27.1389
1657.64	25.1634
1657.9	30.0944
1658.16	24.1709
1658.42	25.1539
1658.69	25.1502
1658.95	23.1742
1659.21	26.1288
1659.47	27.1091
1659.73	28.0959
1659.99	26.1275
1660.25	29.0899
1660.51	29.0952
1660.77	25.1549
1661.03	26.1472
1661.29	24.176
1661.55	27.1422
1661.81	23.1674
1662.07	27.1587
1662.33	27.1955
1662.59	27.1815
1662.85	29.1528
1663.11	27.1821
1663.37	25.1368
1663.63	27.1411
1663.89	29.1242
1664.15	22.2134
1664.41	32.1026
1664.67	29.1516
1664.93	25.1787
1665.19	26.114
1665.45	26.1967
1665.71	25.2174
1665.97	27.1878
1666.23	26.1946
1666.49	29.0124
1666.75	25.1745
1667.01	27.143
1667.27	26.1509
1667.53	26.149
1667.79	25.1576
1668.05	27.1298
1668.31	20.2313
1668.56	26.1708
1668.83	28.15
1669.09	25.1874
1669.35	24.2006
1669.6	27.1629
1669.86	24.1967
1670.12	25.1963
1670.38	27.1857
1670.64	25.2062
1670.9	23.2271
1671.16	23.2262
1671.42	26.1916
1671.68	25.206
1671.94	22.2415
1672.2	25.2072
1672.46	28.1725
1672.72	26.1962
1672.98	27.186
1673.24	26.1992
1673.5	27.1906
1673.76	23.2388
1674.02	24.231
1674.28	25.2233
1674.54	24.2385
1674.8	25.2324
1675.06	25.2349
1675.32	25.2358
1675.58	25.2354
1675.83	24.2464
1676.1	26.2272
1676.35	24.2487
1676.61	19.3
1676.87	24.2475
1677.13	23.2559
1677.39	25.2318
1677.65	24.2379
1677.91	23.2436
1678.17	22.2503
1678.43	26.2021
1678.69	21.2557
1678.95	18.2881
1679.21	25.2056
1679.47	23.2263
1679.73	22.2362
1679.98	25.1986
1680.25	26.1841
1680.5	23.2178
1680.76	23.2165
1681.02	23.2161
1681.28	25.1917
1681.54	25.1917
1681.8	21.2403
1682.06	23.2166
1682.32	23.216
1682.58	24.2032
1682.84	21.2393
1683.1	27.1665
1683.35	22.2267
1683.61	22.2254
1683.87	22.2224
1684.13	24.1954
1684.39	25.1816
1684.65	21.2308
1684.91	28.1426
1685.17	25.1801
1685.43	24.1928
1685.69	23.2058
1685.95	25.1824
1686.2	26.1755
1686.46	24.2029
1686.72	26.1798
1686.98	22.2268
1687.24	20.2488
1687.5	19.2587
1687.76	23.2071
1688.02	23.2047
1688.28	25.1763
1688.54	24.1836
1688.79	21.2188
1689.05	19.2416
1689.31	23.1843
1689.57	21.2062
1689.83	25.1477
1690.09	24.1679
1690.35	21.2116
1690.6	23.187
1690.86	21.215
1691.12	20.23
1691.38	21.2193
1691.64	21.2196
1691.9	23.1925
1692.16	21.216
1692.42	20.2253
1692.68	22.1937
1692.93	24.1601
1693.19	21.1954
1693.45	23.1618
1693.71	24.1429
1693.97	22.1674
1694.23	23.1489
1694.49	26.103
1694.74	26.1044
1695	24.1358
1695.26	21.1816
1695.52	23.1536
1695.78	25.1273
1696.04	23.1592
1696.3	22.1739
1696.55	20.2013
1696.81	25.1242
1697.07	20.1929
1697.33	23.1418
1697.59	23.1367
1697.85	23.1326
1698.11	22.1445
1698.36	20.1733
1698.62	22.1395
1698.88	21.1549
1699.14	20.1718
1699.4	22.1403
1699.66	19.1885
1699.92	24.1052
1700.17	23.1196
1700.43	21.1511
1700.69	21.15
1700.95	22.1319
1701.21	24.0955
1701.46	21.141
1701.72	24.0864
1701.98	23.0988
1702.24	24.0773
1702.5	25.058
1702.76	22.1093
1703.01	19.1603
1703.27	21.1235
1703.53	21.1221
1703.79	21.1235
1704.05	17.1959
1704.3	22.1102
1704.56	19.1615
1704.82	22.108
1705.08	21.1252
1705.34	20.143
1705.6	22.1052
1705.85	22.1006
1706.11	20.1314
1706.37	24.0534
1706.63	19.1397
1706.89	21.0983
1707.14	19.1307
1707.4	24.0284
1707.66	17.1576
1707.92	17.1523
1708.18	21.0651
1708.43	23.0167
1708.69	21.0527
1708.95	19.0912
1709.21	21.0475
1709.47	23.0049
1709.72	20.0685
1709.98	19.0901
1710.24	23.9865
1710.5	22.0321
1710.76	19.0964
1711.01	22.0363
1711.27	20.0792
1711.53	20.0799
1711.79	20.0782
1712.04	21.0525
1712.3	21.0438
1712.56	20.0565
1712.82	20.0478
1713.08	20.0412
1713.33	19.0555
1713.59	21.0057
1713.85	21.9798
1714.11	22.9544
1714.36	23.9297
1714.62	19.0456
1714.88	21.0013
1715.14	21.0073
1715.4	19.0533
1715.65	22.96
1715.91	20.0263
1716.17	20.9989
1716.43	21.9697
1716.68	22.9382
1716.94	18.0503
1717.2	19.0168
1717.46	21.9321
1717.71	16.0774
1717.97	18.9938
1718.23	20.937
1718.49	19.9603
1718.74	18.9859
1719	18.9859
1719.26	21.9057
1719.52	15.0911
1719.78	18.0134
1720.03	18.9856
1720.29	18.9824
1720.55	20.9239
1720.81	18.973
1721.06	21.8877
1721.32	19.9376
1721.58	20.905
1721.83	22.8438
1722.09	17.9788
1722.35	18.946
1722.61	20.8846
1722.86	18.9384
1723.12	20.8782
1723.38	20.8776
1723.64	20.8763
1723.89	17.9621
1724.15	21.843
1724.41	20.8669
1724.66	19.889
1724.92	20.8514
1725.18	21.8131
1725.44	19.8687
1725.69	20.835
1725.95	17.9284
1726.21	22.7731
1726.46	19.8631
1726.72	15.9823
1726.98	18.8864
1727.24	17.9214
1727.49	19.8589
1727.75	18.8872
1728.01	18.8808
1728.27	16.9238
1728.52	18.8289
1728.78	21.7095
1729.04	18.822
1729.29	20.7638
1729.55	23.671
1729.81	17.8662
1730.06	21.7219
1730.32	17.8577
1730.58	22.7059
1730.83	20.7784
1731.09	19.8126
1731.35	20.7788
1731.61	20.7778
1731.86	19.8094
1732.12	17.875
1732.38	19.8046
1732.63	16.903
1732.89	19.795
1733.15	21.7178
1733.4	18.8137
1733.66	17.8434
1733.92	18.8021
1734.17	19.7599
1734.43	19.7534
1734.69	19.7471
1734.95	23.5931
1735.2	21.6625
1735.46	18.771
1735.72	20.6942
1735.97	17.805
1736.23	17.8026
1736.49	17.8003
1736.74	17.7977
1737	18.7571
1737.26	19.7166
1737.51	18.7517
1737.77	20.6706
1738.03	18.7438
1738.28	19.7009
1738.54	17.7747
1738.8	20.6514
1739.05	19.6838
1739.31	19.675
1739.57	18.7069
1739.82	20.6176
1740.08	21.5694
1740.34	16.7719
1740.59	17.7264
1740.85	15.8064
1741.1	18.6765
1741.36	17.7156
1741.62	17.7136
1741.88	20.5847
1742.13	20.5834
1742.39	20.5812
1742.64	19.6225
1742.9	20.5791
1743.16	16.7492
1743.41	17.7029
1743.67	22.4831
1743.93	17.697
1744.18	17.6952
1744.44	18.6517
1744.69	19.6085
1744.95	21.5217
1745.21	17.6949
1745.46	22.4748
1745.72	17.6896
1745.98	21.509
1746.23	20.547
1746.49	16.72
1746.74	17.6708
1747	19.5762
1747.26	19.5718
1747.51	17.6597
1747.77	20.5229
1748.03	19.5685
1748.28	18.6147
1748.54	20.5252
1748.8	20.5275
1749.05	19.5758
1749.31	18.6245
1749.56	18.6288
1749.82	17.6777
1750.08	18.6374
1750.33	18.6395
1750.59	17.6855
1750.84	21.5105
1751.1	16.7287
1751.36	20.5471
1751.61	17.6746
1751.87	19.5806
1752.12	17.6665
1752.38	16.7078
1752.64	16.7041
1752.89	19.5638
1753.15	16.6979
1753.4	19.5572
1753.66	18.5993
1753.92	18.5952
1754.17	19.5455
1754.43	22.4027
1754.68	19.5405
1754.94	17.6319
1755.2	17.6291
1755.45	18.5782
1755.71	20.4787
1755.96	14.7598
1756.22	22.3707
1756.47	15.7021
1756.73	17.6001
1756.99	17.5975
1757.24	17.5953
1757.5	16.6447
1757.75	17.6007
1758.01	18.5544
1758.27	20.4582
1758.52	19.507
1758.78	16.6525
1759.03	20.46
1759.29	17.6051
1759.54	20.4586
1759.8	18.5539
1760.05	22.3578
1760.31	18.5502
1760.57	20.4497
1760.82	19.4947
1761.08	18.5403
1761.33	18.5378
1761.59	17.5858
1761.84	15.6834
1762.1	16.6369
1762.36	19.4915
1762.61	19.4924
1762.87	19.4913
1763.12	21.3935
1763.38	20.4441
1763.63	15.6913
1763.89	18.5472
1764.14	18.5552
1764.4	19.51
1764.66	18.561
1764.91	18.5629
1765.17	18.5643
1765.42	17.6131
1765.68	18.5654
1765.93	19.517
1766.19	19.5157
1766.44	21.4178
1766.7	17.6102
1766.95	17.6089
1767.21	18.5584
1767.46	20.4584
1767.72	20.4564
1767.98	18.5512
1768.23	20.4537
1768.48	20.4464
1768.74	17.5831
1769	18.5243
1769.25	19.4657
1769.51	16.6173
1769.76	19.4695
1770.02	14.7257
1770.27	20.4264
1770.53	17.5773
1770.78	18.5314
1771.04	18.5388
1771.29	21.3949
1771.55	21.3958
1771.8	23.3012
1772.06	17.5984
1772.31	17.6015
1772.57	17.6038
1772.82	19.5093
1773.08	20.4633
1773.33	15.706
1773.59	18.5632
1773.84	17.6124
1774.1	21.4217
1774.35	19.52
1774.61	19.522
1774.86	21.43
1775.12	19.5331
1775.37	17.633
1775.63	20.4956
1775.88	21.4501
1776.14	18.5896
1776.39	19.5407
1776.65	17.6314
1776.9	21.4411
1777.16	17.6265
1777.41	21.4338
1777.67	18.5725
1777.92	19.5215
1778.18	17.6133
1778.43	19.5125
1778.69	17.604
1778.94	17.6007
1779.2	17.6001
1779.45	18.5559
1779.71	20.4615
1779.96	18.5595
1780.21	16.6575
1780.47	17.6112
1780.73	20.4678
1780.98	18.5646
1781.23	16.662
1781.49	18.5688
1781.74	13.8098
1782	18.5762
1782.25	16.6738
1782.51	18.5818
1782.76	18.5839
1783.02	18.5864
1783.27	18.5889
1783.53	17.6383
1783.78	15.7342
1784.04	16.6922
1784.29	18.6032
1784.54	19.5592
1784.8	18.6054
1785.05	18.6047
1785.31	16.6949
1785.56	19.5546
1785.82	18.6008
1786.07	17.6483
1786.33	19.5593
1786.58	17.6548
1786.84	20.5233
1787.09	19.5755
1787.34	14.8099
1787.6	21.5122
1787.85	19.6134
1788.11	17.7086
1788.36	16.7543
1788.62	16.7578
1788.87	16.7646
1789.12	19.6441
1789.38	19.6469
1789.63	21.5664
1789.89	19.6525
1790.14	17.7358
1790.4	25.404
1790.65	16.7748
1790.91	20.5937
1791.16	17.7189
1791.41	15.8015
1791.67	19.6323
1791.92	15.8025
1792.18	17.7185
1792.43	22.5106
1792.68	18.6808
1792.94	17.7238
1793.19	19.6393
1793.45	17.7262
1793.7	21.5597
1793.96	18.6857
1794.21	17.7243
1794.46	22.5178
1794.72	19.6595
1794.97	17.7517
1795.23	19.6768
1795.48	16.8
1795.73	20.6439
1795.99	21.6083
1796.24	17.7704
1796.49	17.7742
1796.75	16.8168
1797	20.6642
1797.26	19.7059
1797.51	18.7469
1797.76	16.8259
1798.02	17.7887
1798.27	19.7123
1798.53	20.673
1798.78	15.8637
1799.04	17.784
1799.29	17.7807
1799.54	18.7382
1799.8	20.6571
1800.05	17.7726
1800.3	18.7316
1800.56	16.8093
1800.81	20.6508
1801.07	16.8087
1801.32	19.6909
1801.57	15.8499
1801.83	16.8121
1802.08	19.6968
1802.33	16.8172
1802.59	19.7041
1802.84	17.7857
1803.1	20.6738
1803.35	17.7911
1803.6	18.7539
1803.86	17.7942
1804.11	18.7597
1804.36	18.7633
1804.62	19.7299
1804.87	18.7723
1805.13	19.74
1805.38	17.8182
1805.63	18.785
1805.89	17.8246
1806.14	19.7545
1806.39	20.7203
1806.65	20.7213
1806.9	19.7578
1807.15	16.8666
1807.41	16.8668
1807.66	20.7225
1807.91	16.8677
1808.17	17.8321
1808.42	19.7607
1808.67	16.8697
1808.93	20.7264
1809.18	17.8352
1809.43	15.9078
1809.69	17.8368
1809.94	19.7654
1810.2	20.7289
1810.45	18.7997
1810.7	17.8353
1810.95	15.9069
1811.21	18.7988
1811.46	15.9069
1811.71	15.9075
1811.97	18.8019
1812.22	18.8045
1812.47	18.808
1812.73	18.8112
1812.98	18.8122
1813.23	20.7444
1813.49	18.8188
1813.74	20.7548
1813.99	15.9323
1814.25	19.802
1814.5	15.9414
1814.75	19.8095
1815.01	20.7779
1815.26	18.8462
1815.51	18.8471
1815.77	17.8817
1816.02	19.8159
1816.27	17.8848
1816.53	18.8501
1816.78	19.8155
1817.03	16.908
1817.29	14.9693
1817.54	16.9013
1817.79	17.8701
1818.04	20.7735
1818.3	17.8791
1818.55	18.8441
1818.8	18.8454
1819.06	15.948
1819.31	20.7835
1819.56	17.8852
1819.81	19.821
1820.07	19.8238
1820.32	17.892
1820.57	17.8937
1820.83	19.8308
1821.08	19.8341
1821.33	16.9342
1821.58	16.9363
1821.84	19.8417
1822.09	15.9714
1822.34	20.8125
1822.6	21.7817
1822.85	13.0691
1823.1	17.9081
1823.35	18.8743
1823.61	16.9376
1823.86	18.8748
1824.11	19.8446
1824.37	17.9102
1824.62	16.9438
1824.87	15.0091
1825.12	18.8841
1825.38	16.9478
1825.63	17.9162
1825.88	20.8218
1826.14	15.9801
1826.39	17.9176
1826.64	16.9501
1826.89	18.8891
1827.15	16.9536
1827.4	20.831
1827.65	15.9871
1827.9	19.862
1828.16	15.9853
1828.41	20.8264
1828.66	14.0442
1828.91	17.9177
1829.17	18.8857
1829.42	17.9162
1829.67	20.8195
1829.92	18.8805
1830.18	15.0061
1830.43	18.8782
1830.68	23.7213
1830.93	16.9461
1831.19	18.8855
1831.44	14.045
1831.69	18.8906
1831.94	17.9244
1832.2	18.8969
1832.45	20.8386
1832.7	18.9009
1832.95	15.9934
1833.2	17.9335
1833.46	15.9958
1833.71	19.8748
1833.96	18.902
1834.21	20.8303
1834.47	20.8195
1834.72	20.81
1834.97	17.9003
1835.22	17.8955
1835.47	16.927
1835.73	18.8585
1835.98	19.8877
1836.23	16.9954
1836.48	18.9106
1836.74	19.8677
1836.99	22.7609
1837.24	15.9705
1837.49	16.9227
1837.75	16.9105
1838	17.8733
1838.25	19.8321
1838.5	19.8521
1838.75	15.9848
1839.01	20.8326
1839.26	17.9281
1839.51	18.9016
1839.76	20.8259
1840.01	20.8095
1840.26	18.8624
1840.52	17.8858
1840.77	16.9109
1841.02	19.801
1841.27	17.8619
1841.53	14.9598
1841.78	17.8491
1842.03	17.8432
1842.28	19.7739
1842.53	18.8086
1842.79	18.81
1843.04	18.8103
1843.29	15.9163
1843.54	18.8086
1843.79	14.9501
1844.04	18.8102
1844.3	16.8817
1844.55	17.844
1844.8	18.8086
1845.05	15.9153
1845.3	17.8507
1845.56	17.8586
1845.81	17.8658
1846.06	17.8778
1846.31	18.8375
1846.56	19.7779
1846.81	17.8182
1847.06	18.7714
1847.32	16.8454
1847.57	16.853
1847.82	19.7523
1848.07	20.7074
1848.32	19.7381
1848.58	17.8127
1848.83	16.8471
1849.08	16.8425
1849.33	20.6857
1849.58	16.8324
1849.83	16.8259
1850.08	18.7433
1850.34	16.8164
1850.59	16.8127
1850.84	15.8489
1851.09	18.7277
1851.34	19.6859
1851.59	15.8439
1851.85	18.7244
1852.1	20.645
1852.35	16.8041
1852.6	18.7242
1852.85	17.763
1853.1	13.921
1853.36	17.7581
1853.61	16.7937
1853.86	17.7477
1854.11	19.6603
1854.36	15.8214
1854.61	18.6956
1854.86	18.6906
1855.11	17.7261
1855.37	17.7222
1855.62	19.6364
1855.87	19.6352
1856.12	16.7617
1856.37	17.7196
1856.62	18.6767
1856.87	16.7599
1857.13	18.6731
1857.38	18.6709
1857.63	19.6255
1857.88	16.7502
1858.13	17.7034
1858.38	19.6127
1858.63	18.6515
1858.88	14.8218
1859.14	17.687
1859.39	20.5542
1859.64	19.5986
1859.89	20.5554
1860.14	20.559
1860.39	17.6938
1860.64	16.7398
1860.89	17.6997
1861.14	18.6597
1861.39	18.6611
1861.64	19.6175
1861.9	15.7876
1862.15	15.7843
1862.4	17.6934
1862.65	19.6016
1862.9	18.6411
1863.15	20.5485
1863.4	17.6778
1863.65	19.5853
1863.9	16.7162
1864.16	19.5784
1864.41	18.6197
1864.66	18.6151
1864.91	19.564
1865.16	16.6955
1865.41	17.6429
1865.66	21.4487
1865.91	19.5338
1866.16	17.6206
1866.41	17.6133
1866.66	19.5094
1866.92	20.4531
1867.17	17.5937
1867.42	17.5903
1867.67	17.5883
1867.92	17.587
1868.17	19.4883
1868.42	18.5387
1868.67	17.5881
1868.92	19.4887
1869.17	22.3393
1869.42	21.3875
1869.67	19.4854
1869.92	20.4349
1870.17	20.4341
1870.42	18.5328
1870.68	21.3837
1870.93	16.6308
1871.18	20.43
1871.43	17.5765
1871.68	18.5241
1871.93	18.5223
1872.18	18.5192
1872.43	18.5154
1872.68	14.7152
1872.93	19.4609
1873.18	20.4089
1873.43	17.5588
1873.68	16.6067
1873.93	18.5006
1874.18	19.4446
1874.43	20.3879
1874.68	17.5384
1874.93	16.5857
1875.18	19.4223
1875.44	19.4122
1875.69	20.3508
1875.94	22.237
1876.19	17.5013
1876.44	18.4444
1876.69	19.382
1876.94	17.4805
1877.19	16.5184
1877.44	20.3028
1877.69	19.4203
1877.94	21.3067
1878.19	18.4514
1878.44	17.5028
1878.69	17.5161
1878.94	18.4737
1879.19	18.4704
1879.44	20.3583
1879.69	18.4628
1879.94	15.6215
1880.19	19.4119
1880.44	16.5689
1880.69	18.4608
1880.94	18.4544
1881.19	17.4995
1881.44	17.4907
1881.69	19.3714
1881.94	17.4714
1882.19	20.2908
1882.44	14.6231
1882.69	17.442
1882.94	14.6926
1883.19	16.5479
1883.44	21.2124
1883.69	17.4349
1883.94	18.3871
1884.19	19.3234
1884.44	16.4993
1884.69	17.4509
1884.94	16.511
1885.19	18.4004
1885.44	15.5764
1885.69	18.4137
1885.94	18.4169
1886.19	19.3603
1886.44	19.353
1886.69	18.4044
1886.94	16.5129
1887.19	15.5656
1887.44	22.1635
1887.69	17.4431
1887.94	15.5514
1888.19	15.5458
1888.44	16.4828
1888.69	18.3605
1888.94	18.3569
1889.19	19.2978
1889.44	19.2965
1889.69	19.2979
1889.94	19.3022
1890.19	16.4818
1890.44	16.4833
1890.69	19.3087
1890.94	17.423
1891.19	17.4229
1891.44	19.3053
1891.69	18.3624
1891.94	17.4205
1892.19	18.3597
1892.44	20.2389
1892.69	18.3505
1892.94	18.3402
1893.19	20.2107
1893.43	21.1456
1893.69	19.2718
1893.93	14.5656
1894.18	15.5023
1894.43	20.198
1894.68	21.138
1894.93	18.3209
1895.18	17.3832
1895.43	17.3853
1895.68	19.2673
1895.93	18.3303
1896.18	19.2742
1896.43	18.3374
1896.68	17.3994
1896.93	16.4607
1897.18	17.4023
1897.43	16.4617
1897.68	15.5203
1897.93	19.2808
1898.17	14.5758
1898.42	20.2136
1898.67	18.3285
1898.92	20.2041
1899.17	22.0813
1899.42	15.5021
1899.67	19.2574
1899.92	18.3173
1900.17	17.3783
1900.42	16.4405
1900.67	16.4431
1900.92	17.3866
1901.17	19.2699
1901.42	21.1544
1901.67	20.2187
1901.91	16.4613
1902.16	18.3434
1902.41	18.3419
1902.66	20.2212
1902.91	19.2783
1903.16	21.1572
1903.41	19.2753
1903.66	17.394
1903.91	17.3935
1904.16	17.393
1904.41	16.452
1904.66	19.2715
1904.9	19.2713
1905.15	22.0906
1905.4	23.0257
1905.65	23.0165
1905.9	19.256
1906.15	16.4361
1906.4	18.3126
1906.65	17.3722
1906.9	18.3111
1907.15	18.3124
1907.39	18.3143
1907.64	18.3182
1907.89	17.3805
1908.14	17.3815
1908.39	18.3228
1908.64	17.3859
1908.89	15.5095
1909.14	20.2143
1909.39	19.2799
1909.63	18.3455
1909.88	17.4108
1910.13	21.1823
1910.38	14.5958
1910.63	19.3075
1910.88	20.2516
1911.13	19.3107
1911.38	19.3107
1911.62	17.4259
1911.87	20.2501
1912.12	18.366
1912.37	17.4241
1912.62	18.3661
1912.87	19.3085
1913.12	19.311
1913.37	17.4318
1913.61	17.4375
1913.86	18.3848
1914.11	15.5596
1914.36	18.3928
1914.61	18.3965
1914.86	17.4559
1915.11	22.1755
1915.36	17.4572
1915.6	19.343
1915.85	16.5113
1916.1	16.5095
1916.35	19.3356
1916.6	18.3891
1916.85	19.3293
1917.1	16.4988
1917.34	18.3832
1917.59	19.3262
1917.84	18.3858
1918.09	21.219
1918.34	14.6214
1918.59	19.3439
1918.84	19.3501
1919.08	20.3022
1919.33	15.5868
1919.58	20.3145
1919.83	18.4261
1920.08	15.59
1920.32	17.4799
1920.57	16.5391
1920.82	19.3797
1921.07	19.3833
1921.32	16.5489
1921.57	18.4423
1921.82	18.4426
1922.06	19.3872
1922.31	17.4933
1922.56	19.3816
1922.81	17.489
1923.06	22.214
1923.3	17.4861
1923.55	18.4289
1923.8	17.4808
1924.05	18.4233
1924.3	14.6434
1924.55	17.4782
1924.79	18.4252
1925.04	16.5388
1925.29	21.2704
1925.54	18.4398
1925.79	17.4988
1926.03	19.396
1926.28	20.3485
1926.53	19.4066
1926.78	18.4629
1927.03	20.3595
1927.27	14.6798
1927.52	18.4703
1927.77	19.4198
1928.02	15.6318
1928.27	20.3712
1928.52	17.5312
1928.76	22.2728
1929.01	18.4857
1929.26	18.4913
1929.51	17.5478
1929.75	20.3995
1930	17.5577
1930.25	16.613
1930.5	15.6655
1930.75	18.5145
1930.99	17.5641
1931.24	21.3591
1931.49	15.6613
1931.74	20.4044
1931.99	15.6571
1932.23	16.6035
1932.48	20.3973
1932.73	15.652
1932.98	15.6524
1933.22	16.6053
1933.47	21.3596
1933.72	17.5735
1933.97	16.6378
1934.22	18.5555
1934.46	20.4742
1934.71	19.5345
1934.96	19.5446
1935.21	18.598
1935.45	17.6357
1935.7	16.6787
1935.95	15.7249
1936.2	18.5818
1936.45	17.6255
1936.69	15.7164
1936.94	16.6653
1937.19	18.5661
1937.44	18.5627
1937.68	21.4143
1937.93	23.3169
1938.18	19.5158
1938.43	17.6148
1938.67	20.4743
1938.92	19.5253
1939.17	19.5281
1939.42	19.5312
1939.66	18.5798
1939.91	18.5836
1940.16	21.4481
1940.41	19.5533
1940.65	16.6993
1940.9	21.4718
1941.15	19.5611
1941.4	16.6932
1941.64	19.544
1941.89	19.5478
1942.14	16.7028
1942.39	19.5737
1942.63	17.6652
1942.88	17.6594
1943.13	19.5597
1943.37	14.7838
1943.62	19.562
1943.87	18.6135
1944.12	16.7079
1944.36	18.6217
1944.61	20.5367
1944.86	18.631
1945.1	16.7243
1945.35	18.64
1945.6	17.6876
1945.85	17.6905
1946.09	17.6926
1946.34	18.6503
1946.59	18.6503
1946.83	23.4307
1947.08	16.7346
1947.33	18.6465
1947.58	19.6026
1947.82	17.6901
1948.07	18.6451
1948.32	19.6018
1948.57	17.6924
1948.81	19.6091
1949.06	17.6998
1949.31	17.7043
1949.55	20.5807
1949.8	15.8008
1950.05	19.6404
1950.3	19.6478
1950.54	17.7378
1950.79	21.582
1951.04	17.7521
1951.28	19.6776
1951.53	17.7618
1951.78	18.7249
1952.02	19.6884
1952.27	17.7675
1952.52	20.6519
1952.76	19.6962
1953.01	16.8106
1953.26	19.6854
1953.5	16.7945
1953.75	15.8258
1954	17.7346
1954.25	17.7264
1954.49	18.681
1954.74	16.7642
1954.98	15.8079
1955.23	18.6867
1955.48	17.7358
1955.72	19.6663
1955.97	19.6733
1956.22	17.7596
1956.47	19.6836
1956.71	14.8862
1956.96	17.7712
1957.21	18.7356
1957.45	20.6604
1957.7	18.7406
1957.95	18.7422
1958.19	18.7433
1958.44	15.8588
1958.69	19.6999
1958.93	16.8151
1959.18	15.8536
1959.43	18.7336
1959.67	16.8096
1959.92	17.7675
1960.17	17.7646
1960.41	16.8013
1960.66	18.7182
1960.9	15.836
1961.15	16.7939
1961.4	19.6733
1961.64	16.7953
1961.89	18.7156
1962.14	15.837
1962.38	16.7976
1962.63	18.7182
1962.88	18.7189
1963.12	17.7597
1963.37	18.7206
1963.62	20.6432
1963.86	18.7251
1964.11	17.7649
1964.36	17.7636
1964.6	18.7242
1964.85	20.644
1965.09	19.6841
1965.34	17.7653
1965.59	17.7686
1965.83	17.7727
1966.08	16.8159
1966.33	16.8187
1966.57	15.8599
1966.82	20.6657
1967.06	20.6657
1967.31	18.745
1967.56	18.746
1967.8	20.6696
1968.05	18.7468
1968.3	19.7066
1968.54	18.7424
1968.79	17.777
1969.03	20.6536
1969.28	19.6867
1969.53	20.6415
1969.77	18.7174
1970.02	17.7549
1970.26	17.752
1970.51	17.7492
1970.76	16.7879
1971	17.7455
1971.25	20.6215
1971.49	18.7041
1971.74	18.7061
1971.99	19.6666
1972.23	16.7887
1972.48	20.6246
1972.72	17.744
1972.97	18.6993
1973.22	18.6957
1973.46	16.7759
1973.71	20.6085
1973.95	20.6076
1974.2	18.6907
1974.45	17.7328
1974.69	20.6101
1974.94	17.7365
1975.18	19.657
1975.43	20.6188
1975.68	15.8255
1975.92	19.6635
1976.17	17.7459
1976.41	14.8684
1976.66	15.8273
1976.9	21.5815
1977.15	16.7839
1977.4	20.6172
1977.64	20.6139
1977.89	19.6524
1978.13	17.7331
1978.38	19.6489
1978.63	19.6487
1978.87	19.6493
1979.12	16.7741
1979.36	16.7747
1979.61	18.6923
1979.85	15.8154
1980.1	19.6462
1980.34	19.6429
1980.59	19.641
1980.84	19.6385
1981.08	18.6783
1981.33	20.5927
1981.57	19.6341
1981.82	15.8025
1982.06	19.6309
1982.31	20.585
1982.55	26.324
1982.8	14.8329
1983.05	19.6131
1983.29	15.7844
1983.54	18.653
1983.78	21.5208
1984.03	18.6495
1984.27	19.6042
1984.52	22.4698
1984.76	18.6406
1985.01	19.5935
1985.25	21.5049
1985.5	15.7712
1985.75	19.597
1985.99	20.5565
1986.24	16.7338
1986.48	19.6021
1986.73	16.7343
1986.97	17.6887
1987.22	19.5954
1987.46	19.589
1987.71	15.761
1987.95	16.7091
1988.2	19.5606
1988.44	18.5933
1988.69	20.488
1988.93	19.5192
1989.18	17.6333
1989.42	18.6006
1989.67	19.4579
1989.91	18.4619
1990.16	18.6674
1990.41	19.5255
1990.65	16.8692
1990.89	19.3099
1991.14	21.2788
1991.39	23.0995
1991.63	18.2531
1991.88	16.5728
1992.12	19.1535
1992.37	18.4588
1992.61	18.7374
1992.86	19.2141
1993.1	22.0427
1993.35	17.8079
1993.59	20.8402
1993.84	17.0608
1994.08	17.0731
1994.33	18.5402
1994.57	19.895
1994.82	19.3446
1995.06	18.6736
1995.31	18.7763
1995.55	17.9046
1995.8	17.7186
1996.04	18.7944
1996.29	19.6171
1996.53	17.3637
1996.78	17.721
1997.02	18.1874
1997.26	19.7382
1997.51	18.7942
1997.76	19.7831
1998	18.5186
1998.24	17.6679
1998.49	18.3995
1998.73	18.804
1998.98	19.9025
1999.22	19.8424
1999.47	17.3566
1999.71	15.6895
1999.96	18.7188
2000.2	16.3809
2000.45	18.4973
2000.69	17.5468
2000.94	19.3399
2001.18	18.6275
2001.43	19.002
2001.67	19.6931
2001.92	19.0715
2002.16	18.1793
2002.4	18.5925
2002.65	17.2145
2002.89	17.7653
2003.14	18.5663
2003.38	17.0427
2003.63	18.5187
2003.87	19.0443
2004.12	18.849
2004.36	19.2294
2004.6	19.4469
2004.85	19.8783
2005.1	19.604
2005.34	19.5865
2005.58	20.8039
2005.83	19.1876
2006.07	18.6995
2006.32	16.7522
2006.56	18.6762
2006.81	17.7066
2007.05	17.6867
2007.3	19.2312
2007.54	19.9252
2007.78	18.6244
2008.03	17.6213
2008.27	15.6225
2008.52	18.4187
2008.76	20.6264
2009	18.7581
2009.25	17.2889
2009.49	19.2761
2009.74	15.277
2009.98	18.3113
2010.23	16.3454
2010.47	18.4228
2010.72	17.7587
2010.96	18.1092
2011.2	16.6139
2011.45	16.7504
2011.69	20.1595
2011.94	19.3143
2012.18	20.2096
2012.42	20.24
2012.67	19.2929
2012.92	18.3416
2013.16	18.3365
2013.41	17.39
2013.66	16.4428
2013.91	16.4344
2014.15	15.4869
2014.4	20.1765
2014.65	19.2387
2014.9	18.3025
2015.14	17.3671
2015.39	19.2472
2015.64	18.3079
2015.88	17.3691
2016.13	20.2037
2016.38	14.5684
2016.63	20.2069
2016.87	19.2644
2017.12	18.3206
2017.37	17.3759
2017.61	18.3083
2017.86	17.3621
2018.11	20.1699
2018.35	15.4737
2018.6	14.53
2018.85	17.3357
2019.1	22.0159
2019.34	15.456
2019.59	19.2009
2019.84	17.3273
2020.08	18.2632
2020.33	19.199
2020.58	22.0094
2020.82	17.3278
2021.07	17.3281
2021.32	20.1374
2021.57	19.1991
2021.81	18.2602
2022.06	16.3843
2022.31	18.2525
2022.55	20.119
2022.8	16.3721
2023.05	19.1747
2023.29	19.1704
2023.54	19.1662
2023.79	16.3581
2024.03	16.3532
2024.28	19.1499
2024.53	19.1434
2024.77	16.3366
2025.02	19.1315
2025.27	17.2602
2025.51	18.187
2025.76	20.9853
2026.01	18.1934
2026.25	18.2043
2026.5	17.2839
2026.75	16.3637
2026.99	16.3735
2027.24	21.0513
2027.49	18.2343
2027.73	19.1524
2027.98	17.2417
2028.23	15.4045
2028.47	18.2723
2028.72	19.1851
2028.97	20.1342
2029.21	16.3644
2029.46	17.2792
2029.71	24.7204
2029.95	17.2566
2030.2	18.1724
2030.45	20.0489
2030.69	19.1301
2030.94	20.0605
2031.19	18.1946
2031.43	16.3282
2031.68	17.2662
2031.92	15.4047
2032.17	18.2124
2032.42	18.2188
2032.66	19.1585
2032.91	22.9013
2033.16	18.2327
2033.4	19.1735
2033.65	16.3589
2033.89	15.4156
2034.14	18.1975
2034.39	18.1895
2034.64	19.1312
2034.88	19.1373
2035.13	17.2794
2035.37	17.2927
2035.62	15.4319
2035.87	16.3695
2036.11	19.164
2036.36	20.0973
2036.6	19.1687
2036.85	19.1686
2037.1	21.0379
2037.34	18.2312
2037.59	19.1639
2037.84	16.3571
2038.08	20.0928
2038.33	18.2208
2038.57	18.2178
2038.82	18.2147
2039.07	16.3437
2039.31	21.9428
2039.56	18.2027
2039.8	19.1308
2040.05	17.2598
2040.3	17.2556
2040.54	16.3193
2040.79	20.0458
2041.03	18.1792
2041.28	17.2461
2041.53	19.1082
2041.77	20.0377
2042.02	19.1022
2042.26	17.2364
2042.51	18.1682
2042.76	19.1011
2043	16.3098
2043.25	20.978
2043.49	16.3232
2043.74	20.9916
2043.99	20.0582
2044.23	19.1213
2044.48	18.1809
2044.72	21.8925
2044.97	19.1123
2045.22	18.1915
2045.46	19.1462
2045.71	21.0496
2045.95	17.3012
2046.2	17.283
2046.44	17.2695
2046.69	19.1345
2046.94	19.1305
2047.18	17.2516
2047.43	20.9746
2047.67	19.1104
2047.92	15.3824
2048.16	17.2481
2048.41	17.2498
2048.66	17.2543
2048.9	17.2579
2049.15	19.129
2049.39	17.269
2049.64	16.3404
2049.88	19.1471
2050.13	17.2824
2050.37	19.1521
2050.62	19.1513
2050.87	18.2138
2051.11	18.2087
2051.36	19.1414
2051.6	15.4068
2051.85	21.0122
2052.09	15.41
2052.34	17.2797
2052.58	17.2825
2052.83	19.1547
2053.08	16.3557
2053.32	19.1685
2053.57	16.3671
2053.81	20.1113
2054.06	18.2414
2054.3	20.1121
2054.55	17.3049
2054.79	18.2395
2055.04	17.2999
2055.29	16.3627
2055.53	18.2319
2055.78	19.1652
2056.02	18.2283
2056.27	19.1616
2056.51	17.292
2056.76	15.4233
2057	17.2941
2057.25	14.4914
2057.49	19.1693
2057.74	18.2366
2057.98	19.1768
2058.23	20.117
2058.47	18.2497
2058.72	17.317
2058.96	18.2543
2059.21	17.3192
2059.45	18.2564
2059.7	16.3819
2059.95	18.2517
2060.19	21.9921
2060.44	18.2509
2060.68	21.062
2060.93	18.2559
2061.17	18.2569
2061.42	17.3211
2061.66	18.258
2061.91	21.0684
2062.15	20.1342
2062.4	18.2638
2062.64	19.204
2062.89	16.3966
2063.13	19.2102
2063.38	17.3382
2063.62	18.2771
2063.87	16.4039
2064.11	20.1556
2064.36	15.4707
2064.6	19.2252
2064.85	13.6026
2065.09	21.1137
2065.34	17.3646
2065.58	18.3072
2065.83	15.4931
2066.07	19.2503
2066.32	19.2518
2066.56	16.4368
2066.81	18.3169
2067.05	17.3798
2067.29	15.5035
2067.54	17.3855
2067.78	19.2672
2068.03	18.3287
2068.27	18.3311
2068.52	16.452
2068.76	19.2699
2069.01	19.2649
2069.25	18.3176
2069.5	17.374
2069.74	16.436
2069.99	20.2002
2070.23	15.5105
2070.48	21.1619
2070.72	20.2226
2070.97	19.2764
2071.21	18.3518
2071.46	21.1891
2071.7	19.3051
2071.94	21.1868
2072.19	17.4197
2072.43	19.3015
2072.68	20.2426
2072.92	18.3589
2073.17	18.3594
2073.41	15.5356
2073.66	19.3029
2073.9	22.1301
2074.15	20.2504
2074.39	19.3136
2074.64	22.1475
2074.88	19.3286
2075.13	19.3389
2075.37	19.3466
2075.61	17.463
2075.86	18.408
2076.1	17.4648
2076.35	20.2953
2076.59	17.4601
2076.84	18.3998
2077.08	20.278
2077.32	18.3886
2077.57	19.3333
2077.81	18.3943
2078.06	17.4529
2078.3	18.398
2078.55	15.5697
2078.79	19.3481
2079.03	20.3022
2079.28	20.3068
2079.52	17.4765
2079.77	18.4243
2080.01	20.3171
2080.26	19.3729
2080.5	21.2607
2080.74	17.4797
2080.99	18.424
2081.23	20.3137
2081.48	18.423
2081.72	18.4245
2081.97	21.2608
2082.21	16.5373
2082.45	20.3179
2082.7	20.3177
2082.94	18.427
2083.19	18.4262
2083.43	20.3161
2083.67	15.5918
2083.92	17.4815
2084.16	16.5368
2084.41	15.5924
2084.65	19.3728
2084.89	13.7026
2085.14	16.5379
2085.38	22.2088
2085.63	17.4879
2085.87	18.4392
2086.12	20.3361
2086.36	23.1761
2086.6	16.5563
2086.85	19.3978
2087.09	21.2931
2087.34	15.6151
2087.58	19.401
2087.82	20.3479
2088.07	16.5631
2088.31	19.4036
2088.56	18.458
2088.8	18.4606
2089.04	19.4108
2089.29	18.4686
2089.53	18.4712
2089.77	19.4195
2090.02	15.6315
2090.26	22.2652
2090.51	16.5823
2090.75	18.4796
2090.99	22.2728
2091.24	19.4341
2091.48	18.4916
2091.72	17.549
2091.97	20.4015
2092.21	17.561
2092.45	20.4147
2092.7	21.3698
2092.94	19.4754
2093.19	16.6296
2093.43	22.3361
2093.67	15.6859
2093.92	18.5395
2094.16	20.4412
2094.41	15.6868
2094.65	20.4391
2094.89	18.535
2095.14	16.6309
2095.38	15.6783
2095.62	17.5766
2095.87	20.4252
2096.11	17.5745
2096.35	19.4738
2096.6	15.6722
2096.84	17.5685
2097.08	21.3627
2097.33	17.5632
2097.57	19.4608
2097.81	18.5109
2098.06	18.508
2098.3	16.6097
2098.55	17.5586
2098.79	18.5066
2099.03	17.5568
2099.28	18.5054
2099.52	15.6586
2099.76	20.4042
2100	19.4563
2100.25	18.5086
2100.49	18.5134
2100.74	17.5678
2100.98	19.4697
2101.22	17.5716
2101.47	17.5718
2101.71	17.5713
2101.95	19.4712
2102.2	19.4705
2102.44	19.4676
2102.68	17.5645
2102.92	17.5622
2103.17	18.5112
2103.41	18.51
2103.65	18.5102
2103.9	17.5623
2104.14	16.6156
2104.39	20.4167
2104.63	18.5201
2104.87	17.5734
2105.11	19.4777
2105.36	19.482
2105.6	16.6328
2105.84	21.3875
2106.09	19.4877
2106.33	20.4391
2106.57	18.5395
2106.82	21.3931
2107.06	18.539
2107.3	19.4862
2107.54	19.4813
2107.79	15.6757
2108.03	16.6213
2108.27	15.6678
2108.52	17.5652
2108.76	19.4646
2109	18.5191
2109.25	19.4741
2109.49	15.6746
2109.73	18.5246
2109.97	20.4246
2110.22	19.4746
2110.46	15.6748
2110.7	20.4247
2110.95	22.3235
2111.19	16.6217
2111.43	20.4186
2111.68	18.5181
2111.92	21.3667
2112.16	17.5697
2112.4	17.5718
2112.65	19.4736
2112.89	19.478
2113.13	20.433
2113.38	15.683
2113.62	14.7321
2113.86	21.3833
2114.1	15.6806
2114.35	18.5324
2114.59	17.5826
2114.83	20.4331
2115.07	19.4811
2115.32	20.4298
2115.56	18.5279
2115.8	21.3745
2116.04	21.3702
2116.29	17.5691
2116.53	20.4171
2116.77	17.5675
2117.02	18.5176
2117.26	17.5668
2117.5	19.463
2117.74	19.4597
2117.99	18.5059
2118.23	16.603
2118.47	21.3416
2118.71	19.4404
2118.96	19.4363
2119.2	18.4844
2119.44	21.3242
2119.68	18.4781
2119.93	18.4769
2120.17	17.5297
2120.41	17.5323
2120.65	17.5343
2120.9	21.3299
2121.14	17.5423
2121.38	19.4433
2121.62	19.4475
2121.86	15.6559
2122.11	22.3014
2122.35	19.4572
2122.59	19.4596
2122.84	17.5628
2123.08	18.5131
2123.32	18.512
2123.56	22.307
2123.81	21.3544
2124.05	20.4004
2124.29	17.5472
2124.53	16.5907
2124.77	21.3212
2125.02	17.5245
2125.26	21.307
2125.5	18.4605
2125.74	17.5091
2125.98	20.3441
2126.23	20.3398
2126.47	16.5521
2126.71	16.5483
2126.95	18.4378
2127.2	21.2733
2127.44	18.436
2127.68	23.1606
2127.92	16.542
2128.16	20.3231
2128.41	19.3781
2128.65	17.4871
2128.89	20.3212
2129.13	16.5393
2129.38	19.3738
2129.62	17.4829
2129.86	17.4819
2130.1	14.646
2130.34	22.2031
2130.58	19.3664
2130.83	19.3636
2131.07	19.3606
2131.31	17.4692
2131.55	17.4673
2131.79	17.4656
2132.04	19.3502
2132.28	19.3463
2132.52	20.2879
2132.76	21.2309
2133	20.2882
2133.25	17.4581
2133.49	20.2895
2133.73	18.4027
2133.97	16.5161
2134.21	15.572
2134.46	17.459
2134.7	16.5148
2134.94	19.3451
2135.18	18.3998
2135.42	20.2837
2135.67	18.3917
2135.91	17.4429
2136.15	21.2107
2136.39	19.3255
2136.63	22.1551
2136.87	23.0983
2137.12	20.2718
2137.36	19.3329
2137.6	20.2761
2137.84	17.442
2138.08	22.1509
2138.32	18.3824
2138.57	16.5026
2138.81	19.3366
2139.05	17.4442
2139.29	20.2632
2139.53	18.375
2139.77	18.3721
2140.02	19.3117
2140.26	22.1354
2140.5	20.2499
2140.74	20.2483
2140.98	20.2482
2141.22	18.3619
2141.46	19.299
2141.71	17.4142
2141.95	19.2967
2142.19	20.2413
2142.43	16.4784
2142.67	18.3745
2142.91	18.3721
2143.15	18.3321
2143.4	18.3217
2143.64	20.2062
2143.88	20.2125
2144.12	18.3389
2144.36	18.3431
2144.6	20.2156
2144.85	20.2144
2145.09	18.3354
2145.33	16.4542
2145.57	17.393
2145.81	21.1519
2146.05	19.2702
2146.29	21.1485
2146.53	17.3871
2146.78	18.3245
2147.02	18.322
2147.26	18.3197
2147.5	19.2571
2147.74	22.0727
2147.98	17.3744
2148.22	21.1283
2148.46	19.2473
2148.7	18.3048
2148.95	17.3621
2149.19	18.2933
2149.43	15.475
2149.67	20.1589
2149.91	18.2797
2150.15	20.1522
2150.39	18.277
2150.63	17.3409
2150.88	18.2813
2151.12	18.2833
2151.36	17.3485
2151.6	20.1632
2151.84	21.1047
2152.08	20.164
2152.32	21.099
2152.56	18.2825
2152.8	21.0913
2153.05	18.2776
2153.29	19.2134
2153.53	18.2732
2153.77	18.269
2154.01	18.263
2154.25	17.3189
2154.49	19.1839
2154.73	17.3039
2154.97	19.1684
2155.21	20.0973
2155.45	23.83
2155.7	18.2192
2155.94	16.3486
2156.18	18.2162
2156.42	21.0182
2156.66	20.0839
2156.9	19.1511
2157.14	20.0879
2157.38	15.4192
2157.62	16.3568
2157.86	15.4229
2158.1	17.2924
2158.34	18.2264
2158.59	18.225
2158.83	17.2883
2159.07	17.2855
2159.31	20.0847
2159.55	18.2119
2159.79	18.2072
2160.03	19.1367
2160.27	20.066
2160.51	16.3307
2160.75	18.1962
2160.99	17.2616
2161.23	19.1257
2161.47	18.1919
2161.72	17.259
2161.95	20.0578
2162.2	21.9235
2162.44	15.392
2162.68	20.0535
2162.92	18.186
2163.16	18.1842
2163.4	20.9795
2163.64	17.2478
2163.88	19.1089
2164.12	17.2397
2164.36	20.0318
2164.6	18.1683
2164.84	15.3751
2165.08	21.8983
2165.32	20.9668
2165.56	19.1033
2165.8	18.1698
2166.04	19.0994
2166.28	18.1652
2166.53	19.093
2166.76	14.4339
2167.01	18.1548
2167.25	19.0803
2167.49	17.2109
2167.73	19.0627
2167.97	19.0588
2168.21	19.0581
2168.45	17.1995
2168.69	18.1315
2168.93	19.0651
2169.17	15.3493
2169.41	16.2852
2169.65	20.0153
2169.89	20.0204
2170.13	19.0914
2170.37	18.1593
2170.61	19.0872
2170.85	20.0161
2171.09	19.0784
2171.33	16.2756
2171.57	19.0576
2171.81	16.2651
2172.05	19.9793
2172.29	19.0474
2172.53	18.1174
2172.77	19.9753
2173.01	18.1169
2173.25	19.0472
2173.49	21.8373
2173.73	17.1928
2173.97	14.4056
2174.21	21.8412
2174.45	17.1941
2174.69	21.8408
2174.93	18.1222
2175.17	18.121
2175.41	16.2619
2175.65	19.0487
2175.89	16.2599
2176.13	18.1153
2176.37	17.185
2176.61	17.185
2176.85	18.1144
2177.09	18.1149
2177.33	16.2565
2177.57	17.1864
2177.81	19.0431
2178.05	19.9666
2178.29	17.1766
2178.53	17.1759
2178.77	19.0338
2179.01	18.1057
2179.25	19.0345
2179.49	19.0344
2179.73	19.9629
2179.97	17.177
2180.21	17.176
2180.45	19.0315
2180.69	15.3177
2180.93	18.1018
2181.17	17.1715
2181.41	18.0974
2181.65	19.0248
2181.89	18.0943
2182.13	19.0203
2182.37	19.0189
2182.61	19.0152
2182.85	19.0113
2183.09	19.9326
2183.33	16.2205
2183.57	17.1448
2183.81	19.9218
2184.05	16.2145
2184.28	15.2883
2184.53	16.2165
2184.76	18.0713
2185	18.0727
2185.24	19.9287
2185.48	14.3695
2185.72	16.2269
2185.96	18.0843
2186.2	18.0894
2186.44	15.3112
2186.68	19.0287
2186.92	20.8914
2187.16	17.1816
2187.4	16.2543
2187.64	17.1816
2187.88	19.0359
2188.12	18.1038
2188.36	19.9564
2188.6	13.4558
2188.84	19.0186
2189.07	19.94
2189.31	18.0795
2189.55	19.9311
2189.79	18.0758
2190.03	20.8574
2190.27	17.1504
2190.51	19.0069
2190.75	19.9339
2190.99	19.935
2191.23	15.3002
2191.47	19.0112
2191.71	19.9404
2191.95	19.9422
2192.19	18.0887
2192.42	21.8026
2192.67	19.023
2192.9	19.026
2193.14	19.0302
2193.38	20.8949
2193.62	18.1183
2193.86	18.1247
2194.1	17.1988
2194.34	19.9877
2194.58	16.2669
2194.82	18.1243
2195.06	19.051
2195.3	19.0471
2195.53	18.113
2195.77	20.8925
2196.01	16.2443
2196.25	19.9522
2196.49	18.0926
2196.73	20.8725
2196.97	17.1593
2197.21	15.3038
2197.45	21.7974
2197.69	17.1611
2197.92	19.0207
2198.16	19.0257
2198.4	19.9596
2198.64	17.1806
2198.88	19.0439
2199.12	17.1915
2199.36	17.1974
2199.6	18.1353
2199.84	16.2841
2200.07	20.016
2200.31	20.0245
2200.55	17.236
2200.79	19.1042
2201.03	18.1672
2201.27	16.2885
2201.51	17.1858
2201.75	18.0851
2201.99	17.1627
2202.23	19.0518
2202.46	20.0012
2202.7	20.9252
2202.94	17.2017
2203.18	17.2038
2203.42	18.2104
2203.66	18.1841
2203.9	19.1133
2204.14	19.1196
2204.37	17.2433
2204.61	17.2276
2204.85	19.0745
2205.09	19.9922
2205.33	15.3402
2205.57	17.1994
2205.8	19.0631
2206.05	19.0662
2206.28	18.1278
2206.52	19.0584
2206.76	16.2718
2207	15.3449
2207.24	18.1387
2207.48	21.8643
2207.71	20.9385
2207.95	19.0814
2208.19	16.2921
2208.43	17.2258
2208.67	20.0215
2208.91	18.1604
2209.15	17.2295
2209.38	18.1603
2209.62	15.3667
2209.86	18.163
2210.1	18.1657
2210.34	17.237
2210.58	19.1037
2210.81	19.1067
2211.05	17.2456
2211.29	20.9788
2211.53	18.186
2211.77	17.256
2212.01	18.1908
2212.24	17.257
2212.48	16.3227
2212.72	19.1189
2212.96	19.1166
2213.2	17.2478
2213.44	18.1807
2213.67	17.2517
2213.91	18.1908
2214.15	16.3328
2214.39	15.4013
2214.63	18.2033
2214.87	15.4039
2215.1	14.4712
2215.34	17.2726
2215.58	16.3392
2215.82	17.2727
2216.06	18.206
2216.29	17.2717
2216.53	17.271
2216.77	17.271
2217.01	20.0724
2217.25	18.2062
2217.49	19.1401
2217.72	19.1399
2217.96	19.1406
2218.2	17.2749
2218.44	20.0791
2218.68	21.0167
2218.91	17.2838
2219.15	16.3518
2219.39	14.4847
2219.63	19.1596
2219.87	18.2249
2220.1	20.0932
2220.34	18.2236
2220.58	19.1565
2220.82	19.1525
2221.06	16.3452
2221.29	20.0768
2221.53	17.2721
2221.77	19.1367
2222.01	20.0695
2222.25	20.0707
2222.48	20.0736
2222.72	16.3416
2222.96	16.3443
2223.2	15.4139
2223.43	18.2219
2223.67	17.2929
2223.91	19.1681
2224.15	15.432
2224.39	19.1776
2224.62	15.4391
2224.86	17.3148
2225.1	18.256
2225.34	21.0698
2225.58	17.3278
2225.81	15.458
2226.05	18.2717
2226.29	17.3382
2226.53	17.3419
2226.76	16.4073
2227	19.2226
2227.24	19.2242
2227.48	17.3486
2227.72	17.3474
2227.95	19.2215
2228.19	19.2203
2228.43	22.0319
2228.67	16.4059
2228.9	21.0932
2229.14	18.2834
2229.38	18.2882
2229.62	19.231
2229.85	16.4199
2230.09	20.177
2230.33	20.1812
2230.57	17.3691
2230.8	17.3732
2231.04	19.2562
2231.28	19.2603
2231.52	18.3245
2231.75	12.6888
2231.99	14.5716
2232.23	17.3953
2232.47	17.3987
2232.7	18.3427
2232.94	18.3461
2233.18	18.3497
2233.42	17.4114
2233.65	18.3549
2233.89	18.3545
2234.13	17.4119
2234.37	18.3511
2234.6	17.4072
2234.84	18.3421
2235.08	13.6353
2235.31	18.3369
2235.55	18.3378
2235.79	18.3389
2236.03	14.578
2236.26	20.2221
2236.5	18.342
2236.74	19.2868
2236.97	18.3501
2237.21	16.4741
2237.45	17.4228
2237.69	15.5454
2237.92	16.4926
2238.16	17.4397
2238.4	19.331
2238.64	18.3948
2238.87	18.3972
2239.11	17.4526
2239.35	17.4504
2239.58	15.5601
2239.82	15.5558
2240.06	19.3247
2240.29	17.4445
2240.53	17.4533
2240.77	15.5676
2241.01	15.5687
2241.24	15.57
2241.48	14.6275
2241.72	19.3476
2241.96	16.5182
2242.19	21.2404
2242.43	19.3535
2242.67	19.3528
2242.9	18.4068
2243.14	20.2916
2243.38	20.2899
2243.61	18.4019
2243.85	19.3462
2244.09	18.405
2244.32	18.4102
2244.56	14.6396
2244.8	18.4248
2245.03	16.5395
2245.27	14.6522
2245.51	18.4374
2245.75	17.4957
2245.98	19.3907
2246.22	18.447
2246.46	21.288
2246.69	18.4527
2246.93	19.4013
2247.17	17.5095
2247.4	16.5631
2247.64	17.5088
2247.88	17.5079
2248.11	18.4532
2248.35	16.5597
2248.59	18.4513
2248.82	16.5583
2249.06	17.5069
2249.3	17.5096
2249.53	20.3493
2249.77	16.5617
2250.01	19.3973
2250.24	17.5014
2250.48	14.66
2250.72	17.494
2250.95	15.6006
2251.19	19.3812
2251.43	19.3819
2251.66	17.4928
2251.9	19.387
2252.14	18.445
2252.37	14.6659
2252.61	18.4602
2252.85	21.3095
2253.08	19.4213
2253.32	18.4786
2253.55	20.378
2253.79	16.59
2254.03	17.5407
2254.26	18.4897
2254.5	16.5921
2254.74	15.6444
2254.97	17.5411
2255.21	17.5417
2255.45	18.4909
2255.68	18.4938
2255.92	18.4974
2256.16	16.6033
2256.39	15.6573
2256.63	17.5582
2256.87	15.6627
2257.1	19.4629
2257.34	17.5663
2257.57	18.5172
2257.81	17.5685
2258.05	19.4691
2258.28	17.5714
2258.52	19.4738
2258.76	19.4769
2258.99	16.6285
2259.23	15.6798
2259.47	17.5824
2259.7	14.7329
2259.94	18.537
2260.17	16.6374
2260.41	18.5417
2260.64	19.4984
2260.88	19.5031
2261.12	14.7474
2261.35	18.5544
2261.59	18.556
2261.83	15.7027
2262.06	12.8495
2262.3	15.7082
2262.53	18.5685
2262.77	17.621
2263.01	15.7209
2263.24	17.6327
2263.48	17.6398
2263.71	17.6467
2263.95	20.5157
2264.19	16.704
2264.42	19.5726
2264.66	14.8021
2264.89	17.6703
2265.13	18.6266
2265.37	18.6275
2265.6	18.6265
2265.84	18.6229
2266.07	17.6638
2266.31	15.7504
2266.55	17.6557
2266.78	17.6527
2267.02	17.6502
2267.25	17.6475
2267.49	19.5513
2267.73	17.6408
2267.96	16.686
2268.2	16.6865
2268.43	17.6423
2268.67	16.6922
2268.91	16.6967
2269.14	15.7471
2269.38	16.7066
2269.61	20.5325
2269.85	18.6287
2270.08	16.7217
2270.32	18.6353
2270.56	15.7718
2270.79	17.687
2271.03	15.7771
2271.26	18.6483
2271.5	19.6086
2271.73	17.6978
2271.97	18.655
2272.2	17.6993
2272.44	19.6139
2272.68	17.7015
2272.91	16.7457
2273.15	18.6606
2273.38	14.8337
2273.62	22.4912
2273.85	19.621
2274.09	16.7507
2274.33	16.7517
2274.56	19.6247
2274.8	17.7114
2275.03	18.6703
2275.27	17.7123
2275.5	19.6298
2275.74	20.5923
2275.97	17.7236
2276.21	15.8112
2276.45	17.7315
2276.68	17.7354
2276.92	19.6592
2277.15	14.8699
2277.39	18.7147
2277.62	18.7235
2277.86	17.7665
2278.09	18.7286
2278.33	17.7686
2278.56	16.8077
2278.8	17.7673
2279.03	17.765
2279.27	14.8773
2279.5	17.7515
2279.74	15.8282
2279.98	18.7016
2280.21	17.7391
2280.45	17.7365
2280.68	20.6108
2280.92	17.7328
2281.15	20.6058
2281.39	18.6913
2281.62	16.7754
2281.86	14.8603
2282.09	17.7401
2282.33	18.7036
2282.56	17.7486
2282.8	19.6729
2283.03	18.7205
2283.27	16.8087
2283.5	18.7375
2283.74	18.747
2283.97	17.7912
2284.21	12.0223
2284.44	13.9492
2284.68	14.9151
2284.91	17.8034
2285.15	17.8047
2285.38	16.8395
2285.62	20.6795
2285.85	17.7932
2286.09	16.8327
2286.32	17.7967
2286.56	16.8429
2286.79	17.8131
2287.03	15.8902
2287.26	18.7807
2287.5	17.8237
2287.74	17.8228
2287.97	17.8202
2288.2	19.7439
2288.44	15.8889
2288.67	16.8471
2288.91	19.7276
2289.14	18.7594
2289.38	18.7507
2289.61	19.7096
2289.85	17.7846
2290.08	18.7462
2290.32	16.8237
2290.55	19.7105
2290.79	18.7538
2291.02	17.7984
2291.26	18.7652
2291.49	16.8436
2291.73	17.8093
2291.96	19.7384
2292.2	18.7802
2292.43	17.8214
2292.67	15.8977
2292.9	19.755
2293.14	22.6487
2293.37	16.8676
2293.6	14.9389
2293.84	15.901
2294.07	16.8623
2294.31	18.7858
2294.54	18.7832
2294.78	16.8545
2295.01	19.7412
2295.25	17.8127
2295.48	16.848
2295.72	19.7328
2295.95	17.7993
2296.19	19.7221
2296.42	16.8373
2296.65	17.802
2296.89	18.7678
2297.12	17.8094
2297.36	17.8143
2297.59	15.8943
2297.83	16.8617
2298.06	18.7915
2298.3	18.7952
2298.53	13.0155
2298.77	18.8046
2299	17.8437
2299.23	13.0228
2299.47	17.8457
2299.7	19.7756
2299.94	16.8809
2300.17	20.7416
2300.41	13.9912
2300.64	17.8532
2300.87	13.0297
2301.11	17.857
2301.34	16.8924
2301.58	19.7879
2301.81	17.856
2302.05	15.9242
2302.28	15.9248
2302.51	17.855
2302.75	13.0286
2302.98	16.8887
2303.22	20.7493
2303.45	17.8556
2303.69	15.9281
2303.92	19.793
2304.15	20.761
2304.39	14.9693
2304.62	17.8702
2304.86	15.9405
2305.09	20.7721
2305.33	14.0103
2305.56	19.8101
2305.79	18.8466
2306.03	16.9145
2306.26	17.8816
2306.5	17.8815
2306.73	19.8142
2306.97	14.9804
2307.2	15.9448
2307.43	18.8425
2307.67	18.8411
2307.9	15.9408
2308.13	19.8055
2308.37	16.9076
2308.6	19.8091
2308.84	20.7791
2309.07	17.8839
2309.3	15.9558
2309.54	18.8615
2309.77	16.9289
2310.01	15.9622
2310.24	18.8642
2310.47	17.8952
2310.71	15.9574
2310.94	19.816
2311.18	15.938
2311.41	18.8293
2311.64	15.928
2311.88	17.8562
2312.11	16.8881
2312.34	16.8857
2312.58	17.8501
2312.81	18.817
2313.05	16.8917
2313.28	16.8988
2313.51	14.9721
2313.75	16.909
2313.98	20.7806
2314.21	16.9205
2314.45	15.9598
2314.68	17.8976
2314.92	16.927
2315.15	14.9885
2315.39	18.8527
2315.62	16.9148
2315.85	19.8046
2316.09	18.832
2316.32	19.7949
2316.55	19.7942
2316.79	15.9327
2317.02	15.9338
2317.25	18.8353
2317.49	16.9071
2317.72	16.9028
2317.95	17.8648
2318.19	15.9316
2318.42	18.8253
2318.66	15.9265
2318.89	18.8195
2319.12	17.8524
2319.35	13.9914
2319.59	16.8861
2319.82	14.9568
2320.06	19.7816
2320.29	16.8881
2320.52	18.8211
2320.76	18.8243
2320.99	18.8279
2321.22	16.9006
2321.46	18.8374
2321.69	20.776
2321.92	22.715
2322.16	20.7846
2322.39	20.7842
2322.62	21.7515
2322.86	18.8529
2323.09	19.821
2323.32	18.8555
2323.56	17.8894
2323.79	23.6907
2324.02	18.855
2324.26	24.6515
2324.49	20.7782
2324.72	23.6693
2324.96	21.7316
2325.19	30.4183
2325.42	26.5505
2325.66	28.4757
2325.89	28.4696
2326.12	35.2175
2326.36	39.0686
2326.59	40.9891
2326.82	53.5151
2327.06	65.0756
2327.29	93.0192
2327.52	130.597
2327.76	160.479
2327.99	160.483
2328.22	133.498
2328.46	92.0365
2328.69	64.0754
2328.92	48.6466
2329.15	34.1928
2329.39	37.0808
2329.62	32.2685
2329.85	28.4149
2330.09	26.4861
2330.32	26.4839
2330.55	21.6677
2330.78	20.7059
2331.02	20.7089
2331.25	20.7124
2331.48	21.6809
2331.72	20.7135
2331.95	20.7088
2332.18	18.7797
2332.42	14.9254
2332.65	17.8119
2332.88	18.7723
2333.12	18.7703
2333.35	17.806
2333.58	15.879
2333.81	18.7631
2334.05	17.7965
2334.28	20.6789
2334.51	14.9065
2334.74	15.8676
2334.98	17.7901
2335.21	17.7905
2335.44	15.8684
2335.68	18.7534
2335.91	14.9051
2336.14	18.7503
2336.37	15.865
2336.61	19.7103
2336.84	16.8252
2337.07	17.7859
2337.3	19.7072
2337.54	18.7446
2337.77	15.8601
2338	15.8594
2338.24	20.6647
2338.47	17.7818
2338.7	17.7824
2338.93	17.7824
2339.17	18.7432
2339.4	20.6641
2339.63	18.7397
2339.86	15.8542
2340.1	17.7728
2340.33	14.8876
2340.56	19.6848
2340.79	18.7186
2341.03	17.7521
2341.26	16.7874
2341.49	19.6615
2341.72	20.6171
2341.96	16.7788
2342.19	17.7356
2342.42	18.6931
2342.65	18.6927
2342.89	17.7343
2343.12	15.8165
2343.35	18.6915
2343.58	18.6917
2343.82	17.7343
2344.05	20.6111
2344.28	19.6521
2344.51	17.7338
2344.75	17.7321
2344.98	18.6878
2345.21	19.6413
2345.44	17.7216
2345.68	17.7184
2345.91	16.7591
2346.14	15.8006
2346.37	17.715
2346.6	14.8412
2346.84	18.6697
2347.07	17.7118
2347.3	19.627
2347.53	18.6708
2347.77	17.7153
2348	18.6747
2348.23	18.6749
2348.46	17.7158
2348.69	16.7556
2348.93	17.7063
2349.16	15.7853
2349.39	16.7337
2349.62	14.8126
2349.85	19.577
2350.09	17.6454
2350.32	18.5617
2350.55	15.7217
2350.78	17.685
2351.02	17.7106
2351.25	19.5935
2351.48	21.4762
2351.71	19.566
2351.94	16.7051
2352.18	16.6967
2352.41	18.5886
2352.64	18.5747
2352.87	16.6715
2353.1	18.5766
2353.34	15.7158
2353.57	19.5254
2353.8	17.6201
2354.03	18.5762
2354.26	18.5817
2354.5	17.6284
2354.73	17.6274
2354.96	18.5787
2355.19	22.3877
2355.42	17.6224
2355.66	15.7148
2355.89	19.5189
2356.12	16.6545
2356.35	18.5502
2356.58	18.5464
2356.81	15.6904
2357.05	17.5894
2357.28	19.4881
2357.51	16.6339
2357.74	16.6318
2357.97	16.6312
2358.21	17.5774
2358.44	15.6755
2358.67	18.5243
2358.9	16.6236
2359.13	20.421
2359.36	18.5184
2359.6	17.565
2359.83	17.5609
2360.06	17.5569
2360.29	17.5529
2360.52	19.4459
2360.75	18.4929
2360.99	16.5921
2361.22	17.5358
2361.45	16.5837
2361.68	16.579
2361.91	17.5217
2362.14	19.4115
2362.38	17.5141
2362.61	12.7783
2362.84	21.2938
2363.07	18.4524
2363.3	17.5042
2363.53	17.5023
2363.77	20.3376
2364	16.5515
2364.23	17.4944
2364.46	16.5475
2364.69	17.4895
2364.92	19.3772
