#Acq. time (s)=	30
#Accumulations=	2
#Range (cm-¹)=	1200...2365
#Windows=	3
#Auto scanning=	Off
#Autofocus=	Off
#Macrospot=	Off
#AutoExposure=	Off
#Spike filter=	Multiple accum.
#Delay time (s)=	2
#Binning=	1
#Readout mode=	Signal
#DeNoise=	Off
#ICS correction=	On
#Dark correction=	Off
#Inst. Process=	Off
#Detector Gain=	Best Dynamic
#Detector ADC=	50 kHz HS
#Detector temperature (°C)=	-60.09
#Instrument=	LabRAM HR Evol
#Detector=	SIN-EM FIVIS
#Objective=	x50_VIS_LWD
#Grating=	1800 (450-850nm)
#ND Filter=	100%
#Laser=	532nm_Edge
#Hole=	100.021
#Temperature=	0
#Range=	Visible
#StageXY=	75x50mm Scan+
#StageZ=	Z motor
#X (µm)=	0
#Y (µm)=	0
#Z (µm)=	-10.1
#Full time(mm:ss)=	3:23
#Project=	21_11_26
#Sample=	BU19(2)w
#Site=	
#Title=	BU19(2)w-A-FF2b-FI03-V_1800 (450-850nm)_532nm_Edge_100%_x50_VIS_LWD_H100um_30sX2
#Remark=	
#Date=	26.11.2021 14:57
#Acquired=	26.11.2021 14:57:04
1202.72	93.0237
1203	95.3101
1203.28	89.953
1203.56	97.434
1203.84	99.5091
1204.11	85.4795
1204.39	87.5938
1204.67	88.6707
1204.95	86.5288
1205.23	91.8844
1205.5	90.7727
1205.78	95.0294
1206.06	89.6151
1206.34	87.4239
1206.61	98.1061
1206.89	85.1934
1207.17	89.437
1207.45	92.6135
1207.73	86.1627
1208	87.2103
1208.28	89.3348
1208.56	88.2441
1208.84	81.7962
1209.11	79.6325
1209.39	79.6097
1209.67	83.8745
1209.95	84.9381
1210.23	79.5831
1210.5	83.84
1210.78	84.8712
1211.06	82.6992
1211.34	80.5352
1211.61	84.7713
1211.89	80.4762
1212.17	77.2424
1212.45	80.4086
1212.72	81.4503
1213	84.6208
1213.28	80.3327
1213.56	86.7039
1213.83	78.1724
1214.11	90.9284
1214.39	84.5427
1214.67	76.0265
1214.94	76.0253
1215.22	82.4103
1215.5	74.9526
1215.78	80.2694
1216.05	67.487
1216.33	81.302
1216.61	81.2708
1216.89	85.4869
1217.16	79.073
1217.44	79.0465
1217.72	72.6477
1218	71.5625
1218.27	83.2229
1218.55	77.8945
1218.83	83.1824
1219.1	81.048
1219.38	85.2846
1219.66	77.8473
1219.94	77.8353
1220.21	75.698
1220.49	76.7539
1220.77	75.6913
1221.04	78.8667
1221.32	76.7355
1221.6	69.2975
1221.88	68.2227
1222.15	72.4399
1222.43	71.35
1222.71	71.315
1222.98	86.0943
1223.26	64.8937
1223.54	75.4358
1223.81	75.4022
1224.09	71.1472
1224.37	75.3447
1224.65	79.5476
1224.92	72.1399
1225.2	80.5728
1225.48	70.0125
1225.76	79.5202
1226.03	79.5264
1226.31	68.975
1226.59	78.4719
1226.86	82.6872
1227.14	75.28
1227.42	74.2094
1227.69	72.059
1227.97	74.0952
1228.25	72.9948
1228.52	78.214
1228.8	72.8792
1229.08	74.9229
1229.35	75.9653
1229.63	74.0447
1229.91	72.0892
1230.18	80.4556
1230.46	65.6267
1230.74	74.0269
1231.01	76.1395
1231.29	77.145
1231.57	72.7883
1231.84	77.0027
1232.12	73.8465
1232.4	75.9433
1232.67	73.8307
1232.95	64.3709
1233.23	74.8707
1233.5	70.6593
1233.78	70.6552
1234.06	75.9094
1234.33	78.0153
1234.61	68.5645
1234.89	68.5723
1235.16	72.7856
1235.44	73.8403
1235.71	67.5377
1235.99	69.6465
1236.27	70.7014
1236.54	78.0578
1236.82	71.7382
1237.1	75.929
1237.37	78.0119
1237.65	75.8822
1237.93	77.953
1238.2	80.0224
1238.48	78.9418
1238.76	71.5679
1239.03	82.0331
1239.31	79.9195
1239.58	71.519
1239.86	80.944
1240.14	71.5024
1240.41	74.6423
1240.69	74.6398
1240.97	73.5914
1241.24	70.4482
1241.52	74.6418
1241.79	76.7293
1242.07	70.4249
1242.35	73.5583
1242.62	72.5095
1242.9	76.7037
1243.18	72.5198
1243.45	73.5755
1243.73	68.331
1244	78.812
1244.28	78.8151
1244.56	76.7152
1244.83	77.7562
1245.11	75.65
1245.39	79.823
1245.66	64.0856
1245.94	78.7233
1246.21	79.7418
1246.49	79.7282
1246.76	81.8131
1247.04	77.6244
1247.32	80.7607
1247.59	75.5185
1247.87	77.6079
1248.14	76.5508
1248.42	90.1193
1248.7	74.4111
1248.97	73.3594
1249.25	73.3616
1249.52	79.6408
1249.8	72.3118
1250.08	78.5825
1250.35	78.5811
1250.63	78.5624
1250.9	74.3581
1251.18	80.6102
1251.45	76.4122
1251.73	69.083
1252.01	82.6486
1252.28	83.6756
1252.56	84.7021
1252.83	77.3759
1253.11	79.4448
1253.39	79.4273
1253.66	85.6783
1253.94	80.4589
1254.21	78.3822
1254.49	82.5704
1254.76	83.6302
1255.04	81.5468
1255.31	84.6771
1255.59	83.6373
1255.87	78.4137
1256.14	80.4961
1256.42	79.4533
1256.69	84.6791
1256.97	98.2678
1257.24	82.6021
1257.52	90.9515
1257.79	93.0249
1258.07	90.9259
1258.35	84.6517
1258.62	83.5982
1258.9	91.9383
1259.17	89.8269
1259.45	100.259
1259.72	84.6116
1260	99.2374
1260.27	97.1875
1260.55	107.602
1260.82	110.705
1261.1	109.619
1261.37	122.109
1261.65	120.001
1261.92	141.923
1262.2	141.003
1262.48	144.323
1262.75	149.643
1263.02	152.528
1263.3	145.04
1263.58	148.099
1263.85	134.673
1264.13	130.596
1264.4	116.08
1264.68	118.228
1264.95	110.834
1265.23	108.714
1265.5	107.666
1265.78	99.2943
1266.05	97.1842
1266.33	102.406
1266.6	91.9616
1266.88	86.7464
1267.15	93.0322
1267.43	90.9606
1267.7	92.0287
1267.98	94.1456
1268.25	91.0352
1268.53	88.9798
1268.8	92.152
1269.08	89.0255
1269.35	91.1331
1269.63	90.0947
1269.9	93.2302
1270.18	87.9699
1270.45	97.3653
1270.73	76.403
1271	86.8494
1271.28	88.9252
1271.55	88.917
1271.83	92.0419
1272.1	91.0003
1272.38	92.0659
1272.65	92.0899
1272.93	87.9338
1273.2	81.6689
1273.47	87.9757
1273.75	95.3344
1274.03	91.1637
1274.3	90.137
1274.57	89.1009
1274.85	91.2009
1275.12	93.2927
1275.4	95.3888
1275.67	89.103
1275.95	93.3123
1276.22	109.067
1276.5	98.5953
1276.77	87.063
1277.05	107.028
1277.32	95.4894
1277.6	101.814
1277.87	97.6335
1278.14	106.062
1278.42	116.593
1278.69	117.664
1278.97	130.316
1279.24	127.179
1279.52	129.302
1279.79	160.851
1280.07	174.511
1280.34	204.988
1280.61	248.098
1280.89	292.29
1281.16	361.741
1281.44	497.557
1281.71	688.209
1281.99	848.3
1282.26	1112.48
1282.53	1295.76
1282.81	1418.03
1283.08	1449.37
1283.36	1358.18
1283.63	1154.1
1283.91	911.99
1284.18	666.079
1284.45	481.39
1284.73	362.281
1285	280.154
1285.28	216.924
1285.55	192.593
1285.83	172.521
1286.1	151.465
1286.37	133.593
1286.65	127.271
1286.92	121.981
1287.2	116.713
1287.47	109.334
1287.75	111.421
1288.02	104.032
1288.29	105.071
1288.57	94.5443
1288.84	100.859
1289.12	107.179
1289.39	96.6669
1289.66	90.3654
1289.94	88.274
1290.21	94.6099
1290.49	89.3572
1290.76	89.3547
1291.03	89.3428
1291.31	74.5904
1291.58	95.6516
1291.86	88.276
1292.13	89.3238
1292.4	81.9502
1292.68	88.273
1292.95	73.521
1293.22	87.2036
1293.5	82.9933
1293.77	86.179
1294.05	74.6193
1294.32	89.4108
1294.59	79.9285
1294.87	84.1448
1295.14	84.1368
1295.42	80.986
1295.69	73.6327
1295.96	80.0052
1296.24	86.3994
1296.51	80.0922
1296.79	74.8137
1297.06	81.1557
1297.33	80.0879
1297.61	71.6181
1297.88	71.6014
1298.15	78.9768
1298.43	77.8978
1298.7	85.2978
1298.97	74.7285
1299.25	78.9375
1299.52	72.5902
1299.79	76.7987
1300.07	79.9624
1300.34	78.9188
1300.62	71.5339
1300.89	69.4221
1301.16	71.5284
1301.44	77.8585
1301.71	79.9721
1301.98	78.9276
1302.25	73.657
1302.53	71.5487
1302.8	86.3374
1303.08	75.771
1303.35	66.2577
1303.62	69.4167
1303.9	69.402
1304.17	69.3975
1304.44	74.6767
1304.72	69.3951
1304.99	74.6718
1305.26	71.4931
1305.54	71.4784
1305.81	71.4599
1306.08	75.6624
1306.35	70.3672
1306.63	70.3511
1306.9	69.2881
1307.18	73.5043
1307.45	62.9617
1307.72	71.3994
1308	67.1775
1308.27	65.0654
1308.54	72.4504
1308.81	69.2798
1309.09	66.1172
1309.36	68.2355
1309.63	61.9126
1309.91	65.0854
1310.18	71.4216
1310.45	69.307
1310.73	62.9689
1311	65.0774
1311.27	66.1334
1311.55	69.301
1311.82	75.6348
1312.09	65.0838
1312.37	58.7589
1312.64	71.4358
1312.91	65.1031
1313.18	73.5453
1313.46	58.7514
1313.73	68.2484
1314	66.1289
1314.28	64.0109
1314.55	60.8421
1314.82	70.344
1315.09	69.2933
1315.37	66.1325
1315.64	72.4741
1315.91	61.9207
1316.18	70.3767
1316.46	65.0907
1316.73	65.0844
1317	69.3039
1317.28	66.1317
1317.55	67.1856
1317.82	71.4181
1318.09	66.1415
1318.37	72.482
1318.64	60.8621
1318.91	66.1438
1319.18	60.8596
1319.46	67.1944
1319.73	64.0204
1320	61.9032
1320.28	67.1875
1320.55	66.1299
1320.82	56.6165
1321.09	62.9436
1321.37	68.2074
1321.64	69.2415
1321.91	60.7742
1322.18	61.8162
1322.46	63.9063
1322.73	64.9502
1323	63.8843
1323.27	54.3824
1323.55	63.8581
1323.82	65.9722
1324.09	69.1364
1324.36	60.6998
1324.64	71.2401
1324.91	58.5858
1325.18	67.0173
1325.45	65.9651
1325.73	62.7832
1326	62.7525
1326.27	64.8202
1326.54	65.8239
1326.81	65.8024
1327.09	65.7952
1327.36	64.7629
1327.63	58.4855
1327.9	56.3975
1328.18	66.9537
1328.45	63.8151
1328.72	62.7836
1328.99	64.9116
1329.27	71.2461
1329.54	58.5758
1329.81	64.9103
1330.08	64.9054
1330.35	67.0078
1330.63	61.7229
1330.9	65.9277
1331.17	63.8011
1331.44	66.9418
1331.71	64.8062
1331.99	59.5095
1332.26	62.645
1332.53	64.7303
1332.8	56.2906
1333.07	63.6318
1333.35	61.5037
1333.62	62.5324
1333.89	66.7144
1334.16	56.1876
1334.43	60.3706
1334.71	69.8021
1334.98	70.8325
1335.25	66.6174
1335.52	59.2571
1335.79	61.3419
1336.07	67.6224
1336.34	66.56
1336.61	62.3535
1336.88	64.4397
1337.15	60.2367
1337.43	60.2288
1337.7	67.5585
1337.97	62.3087
1338.24	64.3865
1338.51	63.3218
1338.78	61.2155
1339.06	63.2975
1339.33	60.147
1339.6	67.4727
1339.87	67.4731
1340.14	58.0501
1340.42	62.2381
1340.69	64.3328
1340.96	61.191
1341.23	65.3766
1341.5	60.1355
1341.77	63.2704
1342.04	64.3082
1342.32	66.3893
1342.59	63.2328
1342.86	64.26
1343.13	65.2869
1343.4	65.2756
1343.67	65.2684
1343.95	65.2641
1344.22	62.1239
1344.49	60.0312
1344.76	63.1666
1345.03	60.0213
1345.3	63.146
1345.58	65.2202
1345.85	65.1972
1346.12	65.1784
1346.39	67.2426
1346.66	61.9871
1346.93	64.052
1347.2	59.8573
1347.47	65.0509
1347.75	55.6466
1348.02	66.0587
1348.29	62.921
1348.56	62.9132
1348.83	64.9908
1349.1	67.0623
1349.37	58.713
1349.65	64.9489
1349.92	72.2246
1350.19	67.0031
1350.46	69.071
1350.73	64.8926
1351	59.6712
1351.27	63.8152
1351.54	65.8828
1351.81	64.8236
1352.09	66.8961
1352.36	54.4149
1352.63	61.6988
1352.9	64.8307
1353.17	65.8891
1353.44	61.7349
1353.71	72.2013
1353.98	61.8421
1354.25	62.8225
1354.53	66.8848
1354.8	66.8132
1355.07	57.4672
1355.34	70.9786
1355.61	62.6412
1355.88	67.8203
1356.15	65.7636
1356.42	65.7667
1356.69	66.789
1356.96	73.0124
1357.24	59.502
1357.51	57.4169
1357.78	71.9442
1358.05	65.7015
1358.32	69.84
1358.59	63.5979
1358.86	62.5472
1359.13	66.682
1359.4	72.8903
1359.67	72.8776
1359.94	65.6071
1360.22	68.6979
1360.49	69.7116
1360.76	65.5452
1361.03	64.4946
1361.3	63.4513
1361.57	72.7707
1361.84	62.4077
1362.11	70.6879
1362.38	68.606
1362.65	71.703
1362.92	70.6583
1363.19	81.0075
1363.46	71.6914
1363.73	88.2718
1364	74.816
1364.28	81.0386
1364.55	77.928
1364.82	77.9206
1365.09	74.8029
1365.36	73.7517
1365.63	79.9447
1365.9	70.6079
1366.17	66.4503
1366.44	72.6405
1366.71	73.6554
1366.98	74.6658
1367.25	70.5027
1367.52	80.8247
1367.79	80.8146
1368.06	77.7225
1368.33	93.2312
1368.6	117.01
1368.87	137.691
1369.15	126.325
1369.41	109.791
1369.68	90.15
1369.95	88.0692
1370.23	75.6518
1370.5	76.6746
1370.77	72.5187
1371.04	73.5403
1371.31	76.6236
1371.58	77.6326
1371.85	78.6368
1372.12	73.443
1372.39	81.6655
1372.66	76.4781
1372.93	85.7346
1373.2	73.3477
1373.47	80.5506
1373.74	78.4771
1374.01	86.7105
1374.28	79.4883
1374.55	80.5107
1374.82	82.5638
1375.09	73.2836
1375.36	78.4223
1375.63	87.6941
1375.9	81.5218
1376.17	79.4573
1376.44	91.8227
1376.71	86.6469
1376.98	88.6829
1377.25	84.5334
1377.52	89.6407
1377.79	88.6209
1378.06	83.4949
1378.33	85.5858
1378.6	97.9899
1378.87	86.703
1379.14	92.9017
1379.41	105.268
1379.68	88.7583
1379.95	103.173
1380.22	101.089
1380.49	104.133
1380.76	103.017
1381.03	105.024
1381.3	110.125
1381.57	109.112
1381.84	113.195
1382.11	117.251
1382.38	124.381
1382.65	143.837
1382.92	135.571
1383.19	150.908
1383.46	167.277
1383.73	195.941
1384	203.082
1384.27	235.858
1384.54	283.025
1384.81	361.999
1385.08	457.437
1385.34	615.536
1385.61	857.96
1385.88	1275.97
1386.15	1876.87
1386.42	2590.78
1386.69	3203.43
1386.96	3275.64
1387.23	2653.14
1387.5	1818.69
1387.77	1144.23
1388.04	715.862
1388.31	488.554
1388.58	372.477
1388.85	287.993
1389.12	242.17
1389.39	204.332
1389.66	176.623
1389.93	160.212
1390.2	140.651
1390.46	137.461
1390.73	135.358
1391	129.199
1391.27	121.969
1391.54	112.733
1391.81	109.646
1392.08	99.3734
1392.35	101.394
1392.62	102.393
1392.89	99.3019
1393.16	91.0961
1393.43	90.0598
1393.7	86.978
1393.97	86.9678
1394.23	86.9586
1394.5	87.9736
1394.77	95.1286
1395.04	82.8445
1395.31	83.8748
1395.58	76.7226
1395.85	82.8715
1396.12	82.8735
1396.39	93.105
1396.66	86.9539
1396.93	77.7306
1397.2	77.7184
1397.46	78.7247
1397.73	80.7537
1398	80.7438
1398.27	72.5584
1398.54	73.5842
1398.81	82.7981
1399.08	75.6404
1399.35	77.6887
1399.62	78.7234
1399.89	82.8238
1400.16	75.6651
1400.42	74.6388
1400.69	81.8131
1400.96	77.7363
1401.23	79.7917
1401.5	80.8107
1401.77	81.8427
1402.04	71.5988
1402.31	78.7928
1402.58	81.9112
1402.84	76.8317
1403.11	80.9687
1403.38	80.993
1403.65	87.1634
1403.92	85.109
1404.19	88.1687
1404.46	87.0906
1404.73	91.2057
1404.99	96.3253
1405.26	82.9762
1405.53	99.3697
1405.8	103.451
1406.07	113.683
1406.34	111.613
1406.61	127.999
1406.87	135.162
1407.14	148.491
1407.41	152.6
1407.68	179.266
1407.95	186.451
1408.22	206.967
1408.49	205.952
1408.76	193.657
1409.02	173.161
1409.29	160.868
1409.56	142.417
1409.83	120.886
1410.1	112.685
1410.37	102.425
1410.63	90.0953
1410.9	80.8402
1411.17	83.8879
1411.44	79.7671
1411.71	78.7266
1411.98	68.4692
1412.25	71.5381
1412.51	72.5711
1412.78	64.3911
1413.05	65.4558
1413.32	67.5873
1413.59	71.737
1413.86	64.4927
1414.12	63.3787
1414.39	66.4677
1414.66	65.485
1414.93	60.3808
1415.2	64.4812
1415.47	60.375
1415.73	57.2934
1416	54.213
1416.27	61.4033
1416.54	59.3533
1416.81	55.2493
1417.07	58.3346
1417.34	62.4488
1417.61	56.2903
1417.88	62.4594
1418.15	60.4061
1418.42	55.2675
1418.68	55.268
1418.95	55.2687
1419.22	55.2675
1419.49	51.1559
1419.76	52.1759
1420.02	52.1639
1420.29	54.2058
1420.56	52.1394
1420.83	57.2607
1421.1	61.3526
1421.36	61.3392
1421.63	55.1735
1421.9	44.9106
1422.17	50.0545
1422.44	55.2051
1422.7	56.2497
1422.97	59.3627
1423.24	60.4417
1423.51	54.316
1423.77	56.2371
1424.04	53.039
1424.31	57.1537
1424.58	57.0954
1424.85	57.0939
1425.11	58.1337
1425.38	55.0965
1425.65	57.1532
1425.92	56.1175
1426.19	57.1613
1426.45	53.0519
1426.72	53.0403
1426.99	49.9481
1427.26	48.9069
1427.52	51.9647
1427.79	55.0142
1428.06	58.0661
1428.33	45.7674
1428.59	53.9534
1428.86	56
1429.13	56.0015
1429.4	50.8842
1429.67	50.8883
1429.93	46.7972
1430.2	48.8547
1430.47	49.8911
1430.74	49.9001
1431	47.8631
1431.27	53.012
1431.54	47.8979
1431.81	46.8781
1432.07	50.9818
1432.34	47.8917
1432.61	56.0858
1432.87	47.8687
1433.14	51.9538
1433.41	45.781
1433.68	50.8826
1433.95	51.8843
1434.21	46.7489
1434.48	53.9099
1434.75	42.6648
1435.01	53.9435
1435.28	46.7709
1435.55	48.8187
1435.82	43.692
1436.08	44.7126
1436.35	51.8801
1436.62	48.8009
1436.89	48.7942
1437.15	43.6656
1437.42	47.7569
1437.69	44.6807
1437.95	46.722
1438.22	51.8381
1438.49	45.6939
1438.76	50.8209
1439.02	51.8482
1439.29	49.799
1439.56	45.7017
1439.82	45.7071
1440.09	54.9404
1440.36	44.7021
1440.63	44.7059
1440.89	47.7831
1441.16	43.6801
1441.43	49.8338
1441.69	43.6753
1441.96	47.7669
1442.23	48.7859
1442.49	45.7181
1442.76	48.7937
1443.03	49.8275
1443.3	45.7169
1443.56	46.7322
1443.83	46.7233
1444.1	44.6663
1444.36	44.6626
1444.63	46.7139
1444.9	51.8531
1445.16	45.7099
1445.43	51.8794
1445.7	48.7951
1445.97	47.7626
1446.23	46.7306
1446.5	51.8532
1446.77	48.7703
1447.03	43.6365
1447.3	44.6565
1447.57	45.6752
1447.83	49.7684
1448.1	48.7361
1448.37	47.7086
1448.63	47.7153
1448.9	43.6221
1449.17	46.6999
1449.43	41.5689
1449.7	43.6144
1449.97	43.6066
1450.23	47.6983
1450.5	46.6631
1450.77	44.6069
1451.03	49.7262
1451.3	37.4214
1451.57	44.5897
1451.83	48.6819
1452.1	40.478
1452.37	44.571
1452.63	48.6651
1452.9	44.5657
1453.17	47.6397
1453.43	44.5693
1453.7	42.5221
1453.97	46.6197
1454.23	50.7134
1454.5	48.6592
1454.77	42.5089
1455.03	43.5317
1455.3	48.6518
1455.56	47.6219
1455.83	39.4236
1456.1	38.4039
1456.36	41.4805
1456.63	39.4285
1456.9	43.5225
1457.16	45.5622
1457.43	39.4054
1457.7	41.4492
1457.96	41.4444
1458.23	47.5868
1458.49	45.5363
1458.76	42.4623
1459.03	45.5362
1459.29	42.4628
1459.56	44.5115
1459.82	42.4613
1460.09	46.5558
1460.36	41.4282
1460.62	38.3498
1460.89	40.3931
1461.16	44.4834
1461.42	38.3307
1461.69	42.4194
1461.95	39.3395
1462.22	39.3305
1462.49	43.415
1462.75	40.3339
1463.02	44.4151
1463.28	43.3796
1463.55	44.3893
1463.82	45.4
1464.08	44.3739
1464.35	45.4089
1464.61	42.3592
1464.88	42.3729
1465.15	42.3915
1465.41	41.3324
1465.68	41.252
1465.94	42.2354
1466.21	36.1061
1466.48	41.2197
1466.74	34.0686
1467.01	38.1318
1467.27	38.1243
1467.54	35.0654
1467.8	40.1619
1468.07	35.0562
1468.34	42.193
1468.6	39.1299
1468.87	42.187
1469.13	47.2823
1469.4	40.1362
1469.67	38.0894
1469.93	40.1188
1470.2	37.0488
1470.46	40.0968
1470.73	36.0129
1470.99	38.0442
1471.26	39.058
1471.53	40.0689
1471.79	38.0216
1472.06	42.0875
1472.32	38.009
1472.59	36.9871
1472.85	42.0751
1473.12	43.0899
1473.39	39.0119
1473.65	41.0398
1473.92	43.067
1474.18	33.9
1474.45	36.9482
1474.71	43.0519
1474.98	34.9119
1475.24	42.0369
1475.51	39.9997
1475.78	39.9963
1476.04	44.0612
1476.31	43.0353
1476.57	43.0288
1476.84	40.988
1477.1	43.0135
1477.37	33.8504
1477.63	41.9812
1477.9	44.0115
1478.16	42.9912
1478.43	36.883
1478.69	45.0064
1478.96	36.8655
1479.22	38.8903
1479.49	36.8489
1479.76	36.8394
1480.02	40.892
1480.29	36.8186
1480.55	38.833
1480.82	38.8191
1481.08	43.8826
1481.35	41.847
1481.61	34.7362
1481.88	35.752
1482.14	41.8441
1482.41	43.8798
1482.67	37.7964
1482.94	39.8311
1483.2	42.8746
1483.47	39.8318
1483.73	34.7551
1484	35.7685
1484.26	36.7805
1484.53	36.7627
1484.79	35.7246
1485.06	39.7358
1485.32	33.6051
1485.59	37.632
1485.85	40.6317
1486.12	35.6625
1486.38	33.6441
1486.65	34.6693
1486.91	39.692
1487.18	42.7508
1487.44	31.6081
1487.71	42.7401
1487.97	38.6762
1488.24	38.6684
1488.5	39.6722
1488.77	37.6362
1489.03	42.6851
1489.3	42.6746
1489.56	37.6084
1489.83	39.6263
1490.09	34.563
1490.36	36.5838
1490.62	41.6394
1490.89	33.5397
1491.15	35.5531
1491.42	39.5881
1491.68	38.5709
1491.95	38.567
1492.21	42.6087
1492.48	38.5643
1492.74	36.5387
1493	37.5455
1493.27	34.5092
1493.53	35.5179
1493.8	43.6
1494.06	32.477
1494.33	34.497
1494.59	39.5518
1494.86	41.5751
1495.12	38.5384
1495.39	40.5513
1495.65	36.4946
1495.92	32.438
1496.18	33.4357
1496.45	43.5238
1496.71	38.4677
1496.97	38.4606
1497.24	35.425
1497.5	41.4782
1497.77	41.4756
1498.03	40.4617
1498.3	36.4218
1498.56	39.4476
1498.82	41.4648
1499.09	37.427
1499.35	37.4266
1499.62	36.4176
1499.88	31.3715
1500.15	36.42
1500.41	35.4096
1500.68	41.4646
1500.94	35.4037
1501.2	39.4384
1501.47	38.4224
1501.73	32.357
1502	36.3894
1502.26	35.3769
1502.52	39.4096
1502.79	38.3945
1503.05	36.3662
1503.32	39.3822
1503.58	42.4006
1503.85	40.3738
1504.11	33.3134
1504.37	34.323
1504.64	34.3224
1504.9	39.3628
1505.17	40.3672
1505.43	39.3523
1505.7	35.3112
1505.96	37.3142
1506.22	37.298
1506.49	40.3155
1506.75	39.3046
1507.02	35.2743
1507.28	43.3385
1507.54	35.2768
1507.81	31.2455
1508.07	39.3046
1508.34	44.3378
1508.6	35.2649
1508.86	36.271
1509.13	41.3085
1509.39	40.2993
1509.66	39.2889
1509.92	38.2789
1510.18	35.2579
1510.45	41.3051
1510.71	38.2717
1510.98	33.2246
1511.24	35.2286
1511.5	41.2575
1511.77	34.1922
1512.03	31.1529
1512.29	43.1991
1512.56	37.1446
1512.82	35.1168
1513.08	33.0963
1513.35	38.1064
1513.61	33.077
1513.88	37.0872
1514.14	32.0739
1514.4	35.0984
1514.67	37.1089
1514.93	40.1156
1515.2	41.108
1515.46	35.0706
1515.72	38.07
1515.99	34.042
1516.25	35.0321
1516.51	34.0192
1516.78	36.019
1517.04	38.0192
1517.3	41.0223
1517.57	35.0033
1517.83	39.0123
1518.09	38.0104
1518.36	42.0271
1518.62	39.0185
1518.88	37.0132
1519.15	37.0134
1519.41	39.021
1519.67	33.0026
1519.94	30.9955
1520.2	38.0156
1520.47	39.0129
1520.73	31.986
1520.99	39.0081
1521.26	33.9936
1521.52	37.0048
1521.78	40.0143
1522.05	38.0037
1522.31	31.9782
1522.57	35.9849
1522.84	35.9781
1523.1	29.9542
1523.36	34.9607
1523.62	40.9623
1523.89	34.9304
1524.15	39.9275
1524.41	38.9148
1524.68	35.9011
1524.94	37.8955
1525.2	37.8979
1525.47	40.9021
1525.73	39.9
1525.99	37.9007
1526.26	35.9023
1526.52	38.9166
1526.78	34.9137
1527.05	38.9241
1527.31	30.902
1527.57	34.904
1527.84	36.9038
1528.1	35.8962
1528.36	37.8949
1528.63	35.8841
1528.89	35.8779
1529.15	32.8671
1529.41	37.8714
1529.68	37.8685
1529.94	37.8637
1530.2	37.8551
1530.47	36.8498
1530.73	38.8541
1530.99	36.857
1531.25	36.8629
1531.52	36.8667
1531.78	33.8593
1532.04	36.8607
1532.31	40.8676
1532.57	36.8522
1532.83	34.8506
1533.09	33.8561
1533.36	38.88
1533.62	34.879
1533.88	40.9006
1534.15	34.8829
1534.41	36.8867
1534.67	36.8824
1534.94	37.8802
1535.2	36.8708
1535.46	37.868
1535.72	38.8608
1535.99	40.8424
1536.25	38.8234
1536.51	33.8038
1536.77	39.7969
1537.04	35.7753
1537.3	37.7618
1537.56	37.7541
1537.82	33.7417
1538.09	37.7409
1538.35	33.7303
1538.61	38.7155
1538.87	36.7099
1539.14	36.7039
1539.4	39.7119
1539.66	37.733
1539.92	34.7568
1540.19	36.7766
1540.45	38.7951
1540.71	32.7961
1540.97	37.8173
1541.24	32.8053
1541.5	35.7959
1541.76	32.7847
1542.02	34.7771
1542.29	32.7619
1542.55	35.7558
1542.81	36.7454
1543.07	43.7422
1543.34	32.7194
1543.6	33.7093
1543.86	36.6964
1544.12	32.6808
1544.39	28.6799
1544.65	37.6809
1544.91	33.6857
1545.17	33.6944
1545.43	33.7002
1545.7	33.7124
1545.96	34.7196
1546.22	33.7206
1546.48	34.7242
1546.74	29.7115
1547.01	30.7126
1547.27	37.727
1547.53	35.7257
1547.79	37.7317
1548.06	35.7171
1548.32	37.6977
1548.58	38.6968
1548.84	33.6899
1549.1	34.7
1549.37	38.6666
1549.63	38.6219
1549.89	33.613
1550.15	36.6312
1550.42	36.6699
1550.68	34.7217
1550.94	37.7716
1551.2	34.7946
1551.46	39.7873
1551.73	36.777
1551.99	37.7708
1552.25	39.7632
1552.51	36.7678
1552.77	35.7773
1553.03	33.7615
1553.3	34.7529
1553.56	39.7401
1553.82	34.7154
1554.08	35.7132
1554.34	42.7234
1554.61	32.6823
1554.87	32.6683
1555.13	39.667
1555.39	40.6612
1555.65	41.6579
1555.91	40.6537
1556.18	41.6561
1556.44	42.6561
1556.7	35.6356
1556.96	33.6306
1557.22	32.629
1557.48	33.6306
1557.75	37.6363
1558.01	34.6266
1558.27	31.6129
1558.53	34.6037
1558.79	35.5932
1559.06	40.5813
1559.32	34.5638
1559.58	37.5519
1559.84	35.5412
1560.1	37.5317
1560.36	35.5247
1560.63	35.5185
1560.89	37.512
1561.15	36.5081
1561.41	35.5061
1561.67	35.5066
1561.93	32.5127
1562.19	35.5197
1562.46	38.5293
1562.72	31.5264
1562.98	30.5224
1563.24	30.5175
1563.5	32.5171
1563.76	35.5114
1564.02	30.5073
1564.29	35.5181
1564.55	36.5314
1564.81	34.5325
1565.07	38.5305
1565.33	39.5053
1565.59	36.4339
1565.85	34.345
1566.11	38.2751
1566.38	35.445
1566.64	30.4886
1566.9	38.4655
1567.16	30.4452
1567.42	35.4685
1567.68	33.499
1567.94	32.4881
1568.2	36.4598
1568.47	35.4625
1568.73	38.4654
1568.99	32.4663
1569.25	35.4603
1569.51	27.448
1569.77	37.4322
1570.03	34.4324
1570.29	38.4307
1570.55	42.427
1570.82	37.4284
1571.08	35.4266
1571.34	30.4259
1571.6	36.4162
1571.86	36.4079
1572.12	35.3998
1572.38	40.3908
1572.64	34.3905
1572.9	33.3825
1573.17	34.3734
1573.43	36.3625
1573.69	39.3483
1573.95	26.3662
1574.21	33.3507
1574.47	30.3604
1574.73	37.3548
1574.99	32.3689
1575.25	34.3734
1575.51	28.3852
1575.78	38.382
1576.04	35.3836
1576.3	34.3793
1576.56	33.3771
1576.82	31.3724
1577.08	33.3572
1577.34	33.341
1577.6	36.3202
1577.86	38.3
1578.12	35.2923
1578.38	29.2956
1578.64	33.2754
1578.9	32.2741
1579.17	30.2777
1579.43	36.2567
1579.69	35.2579
1579.95	32.2669
1580.21	34.264
1580.47	42.2421
1580.73	35.2602
1580.99	39.2451
1581.25	28.2703
1581.51	33.2477
1581.77	34.2375
1582.03	36.2209
1582.29	36.2104
1582.55	38.1978
1582.81	33.2116
1583.07	33.2065
1583.33	32.2061
1583.59	35.191
1583.85	28.2155
1584.11	33.1898
1584.38	39.1632
1584.64	35.1805
1584.9	38.169
1585.16	33.1878
1585.42	34.1814
1585.68	38.1613
1585.94	34.1739
1586.2	32.1762
1586.46	37.1443
1586.72	34.1458
1586.98	36.1275
1587.24	36.1201
1587.5	30.1434
1587.76	34.1182
1588.02	38.0938
1588.28	31.1273
1588.54	39.0879
1588.8	31.1295
1589.06	33.1228
1589.32	33.125
1589.58	30.1408
1589.84	35.1196
1590.1	32.1318
1590.36	34.1207
1590.62	36.1129
1590.88	35.1194
1591.14	29.1452
1591.4	37.1091
1591.66	36.1107
1591.92	33.1184
1592.18	33.1124
1592.44	40.0706
1592.7	38.0644
1592.96	33.0778
1593.22	36.0544
1593.48	33.0546
1593.74	36.0202
1594	34.0146
1594.26	38.9697
1594.52	33.0023
1594.78	34.9866
1595.04	33.0021
1595.3	38.9684
1595.56	37.9781
1595.82	33.0075
1596.08	38.9483
1596.34	34.9723
1596.6	35.9632
1596.86	33.9748
1597.12	31.9874
1597.38	38.9409
1597.64	37.949
1597.9	35.9632
1598.16	33.973
1598.42	36.9474
1598.68	34.9516
1598.94	34.9391
1599.2	36.913
1599.46	31.9407
1599.72	33.9173
1599.98	41.8462
1600.24	33.9002
1600.5	32.9001
1600.76	36.8575
1601.02	32.8798
1601.28	34.8486
1601.54	37.8062
1601.8	35.8098
1602.06	34.8069
1602.32	38.7567
1602.58	36.7667
1602.84	32.7975
1603.1	36.744
1603.36	36.7329
1603.62	32.7675
1603.88	34.7383
1604.14	37.6992
1604.4	39.6734
1604.66	35.7169
1604.92	37.6933
1605.17	40.6578
1605.43	38.6789
1605.69	36.7005
1605.95	33.7348
1606.21	32.7478
1606.47	32.7502
1606.73	39.6776
1606.99	40.6692
1607.25	37.6952
1607.51	37.7054
1607.77	36.6896
1608.03	36.6668
1608.29	30.0119
1608.55	36.5747
1608.81	36.6277
1609.07	34.7339
1609.32	35.669
1609.58	33.9553
1609.84	36.4017
1610.1	33.9239
1610.36	30.376
1610.62	32.1056
1610.88	34.2636
1611.14	34.1907
1611.4	40.0071
1611.66	35.6382
1611.92	33.3114
1612.18	34.341
1612.44	34.7844
1612.69	37.0914
1612.95	33.1984
1613.21	37.379
1613.47	36.6264
1613.73	39.97
1613.99	34.2236
1614.25	36.0587
1614.51	31.5054
1614.77	31.091
1615.03	31.6222
1615.29	35.3276
1615.54	35.623
1615.8	34.3336
1616.06	34.3423
1616.32	33.6689
1616.58	37.7373
1616.84	36.7646
1617.1	34.6572
1617.36	35.86
1617.62	36.1925
1617.88	31.6061
1618.13	35.098
1618.39	35.6261
1618.65	36.685
1618.91	33.3166
1619.17	36.012
1619.43	35.3525
1619.69	36.8245
1619.95	34.9207
1620.2	36.1854
1620.46	37.5948
1620.72	36.7619
1620.98	34.9948
1621.24	36.528
1621.5	31.8675
1621.76	36.0116
1622.02	36.5762
1622.27	35.6759
1622.53	32.3091
1622.79	35.5507
1623.05	35.4485
1623.31	36.8642
1623.57	36.6685
1623.83	34.5972
1624.09	32.9374
1624.34	36.0372
1624.6	34.6807
1624.86	35.7914
1625.12	36.9956
1625.38	36.639
1625.64	37.1876
1625.9	37.7266
1626.15	34.1471
1626.41	35.7927
1626.67	36.9438
1626.93	35.9338
1627.19	36.2959
1627.45	36.8155
1627.7	35.7014
1627.96	35.4056
1628.22	35.3063
1628.48	33.936
1628.74	34.9661
1629	35.2434
1629.26	35.6619
1629.51	32.3977
1629.77	34.7963
1630.03	32.555
1630.29	31.54
1630.55	35.2606
1630.81	36.2682
1631.06	34.0514
1631.32	33.5937
1631.53	40.5907
1631.79	34.6838
1632.05	36.6589
1632.31	32.721
1632.57	35.6739
1632.84	35.6816
1633.1	36.6835
1633.36	38.6407
1633.62	30.7362
1633.88	36.6427
1634.14	35.6604
1634.4	34.6784
1634.66	30.7355
1634.93	36.6486
1635.19	35.6605
1635.45	35.6572
1635.71	33.682
1635.97	39.5905
1636.23	39.5847
1636.49	33.6663
1636.75	33.6603
1637.02	31.6839
1637.28	34.6317
1637.54	39.5472
1637.8	34.6187
1638.06	37.5694
1638.32	36.5796
1638.58	37.5585
1638.84	38.5381
1639.1	37.5523
1639.37	38.5349
1639.63	33.6108
1639.89	33.6087
1640.15	33.6062
1640.41	35.5717
1640.67	35.5709
1640.93	34.591
1641.19	36.563
1641.46	37.5472
1641.72	32.6195
1641.98	31.6296
1642.24	35.5634
1642.5	36.5441
1642.76	39.4938
1643.02	37.5215
1643.28	36.534
1643.54	35.547
1643.8	40.4655
1644.06	38.492
1644.33	34.5496
1644.59	36.5103
1644.85	35.5199
1645.11	31.5818
1645.37	31.5822
1645.63	34.5363
1645.89	34.5369
1646.15	32.5673
1646.41	29.6102
1646.67	34.5243
1646.93	33.535
1647.19	30.5798
1647.46	33.5257
1647.72	37.4543
1647.98	34.4988
1648.24	33.5127
1648.5	35.4789
1648.76	39.4176
1649.02	37.4555
1649.28	37.4719
1649.54	29.6009
1649.8	33.5336
1650.06	36.4809
1650.32	41.4004
1650.58	37.472
1650.85	40.4335
1651.11	28.6184
1651.37	34.5332
1651.63	33.5503
1651.89	35.521
1652.15	38.4757
1652.41	35.5175
1652.67	36.5025
1652.93	33.5408
1653.19	34.5202
1653.45	29.5903
1653.71	37.4704
1653.97	29.5878
1654.23	36.4865
1654.49	30.5741
1654.75	32.5444
1655.01	32.5447
1655.27	34.5182
1655.53	35.5089
1655.8	32.5584
1656.06	33.5544
1656.32	35.534
1656.57	36.5245
1656.84	33.5645
1657.1	38.4998
1657.36	36.5226
1657.62	37.5046
1657.88	36.5118
1658.14	37.4944
1658.4	32.5558
1658.66	33.5372
1658.92	36.4903
1659.18	38.4559
1659.44	35.4897
1659.7	35.4827
1659.96	28.5738
1660.22	34.4804
1660.48	35.4671
1660.74	33.4977
1661	37.4453
1661.26	37.4499
1661.52	34.4954
1661.78	39.434
1662.04	33.5145
1662.3	37.4627
1662.56	32.4975
1662.82	37.4946
1663.08	35.553
1663.34	30.5901
1663.6	40.4674
1663.86	30.5753
1664.12	37.4141
1664.38	31.5288
1664.64	33.5089
1664.9	33.5098
1665.16	36.4878
1665.42	34.5169
1665.68	33.4917
1665.94	32.4734
1666.2	35.5185
1666.46	32.5575
1666.72	40.4622
1666.98	30.5314
1667.24	32.4062
1667.5	32.497
1667.76	32.4882
1668.02	34.4547
1668.28	33.4626
1668.54	27.5359
1668.8	32.4675
1669.06	33.4668
1669.32	35.4586
1669.58	33.485
1669.84	34.4715
1670.1	32.4953
1670.36	34.4654
1670.62	30.5128
1670.88	35.4672
1671.14	35.4769
1671.4	32.506
1671.66	30.5249
1671.92	35.4633
1672.18	36.4513
1672.44	30.5216
1672.69	34.4747
1672.95	33.4841
1673.21	32.4935
1673.47	36.4467
1673.73	36.4462
1673.99	36.4468
1674.25	35.4598
1674.51	34.4737
1674.77	32.4978
1675.03	32.5
1675.29	31.5147
1675.55	34.486
1675.81	34.4871
1676.07	34.4856
1676.33	36.4624
1676.59	31.5134
1676.85	30.5233
1677.11	32.5017
1677.37	34.4788
1677.63	34.4749
1677.89	36.4491
1678.14	33.4738
1678.4	33.4655
1678.66	39.3908
1678.92	31.4709
1679.18	32.4534
1679.44	35.4135
1679.7	33.4316
1679.96	34.4147
1680.22	39.351
1680.48	30.4518
1680.74	34.3994
1681	35.3821
1681.26	29.4492
1681.52	30.4338
1681.78	32.4071
1682.03	32.4049
1682.29	38.3303
1682.55	30.4253
1682.81	33.3879
1683.07	37.3362
1683.33	30.418
1683.59	34.3671
1683.85	32.3894
1684.11	34.3623
1684.37	31.3948
1684.63	37.314
1684.89	37.3089
1685.14	36.3176
1685.4	36.3144
1685.66	33.3494
1685.92	32.3598
1686.18	35.3205
1686.44	33.3443
1686.7	32.3575
1686.96	36.313
1687.22	30.3874
1687.48	38.2894
1687.73	29.394
1687.99	35.3151
1688.25	37.2844
1688.51	38.2665
1688.77	35.2982
1689.03	37.2657
1689.29	34.2948
1689.55	32.3134
1689.81	33.2926
1690.06	37.2303
1690.32	33.275
1690.58	32.2847
1690.84	39.1953
1691.1	33.2787
1691.36	33.2797
1691.62	33.2794
1691.88	34.2677
1692.13	31.3079
1692.39	34.2668
1692.65	37.2237
1692.91	34.2561
1693.17	35.2343
1693.43	34.2382
1693.69	35.2132
1693.95	31.2578
1694.2	34.2064
1694.46	36.1687
1694.72	36.1593
1694.98	35.1671
1695.24	30.2395
1695.5	38.1199
1695.76	34.1795
1696.01	32.209
1696.27	37.1356
1696.53	35.1678
1696.79	36.1546
1697.05	33.1958
1697.31	34.1762
1697.57	37.1237
1697.82	34.1575
1698.08	38.0855
1698.34	36.1067
1698.6	36.0985
1698.86	32.1541
1699.12	32.1478
1699.38	34.1115
1699.63	35.0926
1699.89	32.1405
1700.15	35.0908
1700.41	32.1373
1700.67	36.0649
1700.92	33.11
1701.18	32.1228
1701.44	36.0538
1701.7	36.0487
1701.96	29.1567
1702.22	34.0654
1702.47	33.0744
1702.73	34.0489
1702.99	36.0062
1703.25	34.0368
1703.51	32.0687
1703.77	35.9949
1704.02	33.0421
1704.28	36.9678
1704.54	34.0216
1704.8	33.0414
1705.06	34.0231
1705.32	33.0369
1705.57	34.0155
1705.83	32.0483
1706.09	34.0115
1706.35	33.0219
1706.61	32.0308
1706.86	41.8412
1707.12	36.9202
1707.38	31.0203
1707.64	34.9369
1707.9	31.9827
1708.16	32.9515
1708.41	36.8608
1708.67	32.9271
1708.93	33.8931
1709.19	33.8803
1709.44	33.8707
1709.7	32.8848
1709.96	33.8594
1710.22	38.7516
1710.48	33.8555
1710.73	34.8336
1710.99	33.8553
1711.25	29.9414
1711.51	32.8801
1711.77	30.9221
1712.02	34.8403
1712.28	36.7978
1712.54	33.8537
1712.8	38.738
1713.06	35.7842
1713.31	33.8105
1713.57	29.8837
1713.83	31.8263
1714.09	32.7897
1714.34	26.9199
1714.6	35.7063
1714.86	34.7243
1715.12	32.7669
1715.38	35.6944
1715.63	36.6753
1715.89	36.6812
1716.15	35.7019
1716.41	35.6969
1716.66	32.7593
1716.92	33.7271
1717.18	37.6213
1717.44	38.5823
1717.69	38.5643
1717.95	37.5683
1718.21	36.5755
1718.47	32.6625
1718.72	40.4419
1718.98	33.6146
1719.24	33.6084
1719.5	37.5004
1719.75	38.4716
1720.01	38.4674
1720.27	37.4945
1720.53	31.6519
1720.78	35.5412
1721.04	36.5063
1721.3	36.4946
1721.56	38.4308
1721.81	36.4757
1722.07	36.4656
1722.33	36.4547
1722.59	32.5553
1722.84	37.4041
1723.1	36.4218
1723.36	31.5554
1723.62	37.3751
1723.87	36.3978
1724.13	37.3664
1724.39	31.5355
1724.64	39.2993
1724.9	36.3787
1725.16	37.3377
1725.42	42.1719
1725.67	37.3062
1725.93	35.3515
1726.19	35.341
1726.45	35.3348
1726.7	29.5206
1726.96	39.2069
1727.22	36.2924
1727.47	36.2778
1727.73	36.2749
1727.99	37.2502
1728.24	34.3397
1728.5	40.1433
1728.76	31.4127
1729.02	34.2687
1729.27	32.2841
1729.53	35.1585
1729.79	35.1763
1730.05	39.0558
1730.3	37.1364
1730.56	37.1121
1730.82	35.1693
1731.07	36.1293
1731.33	39.0666
1731.59	34.235
1731.84	36.1666
1732.1	37.1302
1732.36	35.1933
1732.61	36.1542
1732.87	38.0807
1733.13	38.0731
1733.39	37.0972
1733.64	39.9808
1733.9	42.8586
1734.16	36.0856
1734.41	39.9306
1734.67	39.9163
1734.93	39.9016
1735.18	28.3244
1735.44	36.9826
1735.7	36.9703
1735.95	35.0352
1736.21	37.9157
1736.47	32.1352
1736.72	35.0172
1736.98	39.822
1737.24	37.8904
1737.49	38.845
1737.75	36.914
1738.01	36.9074
1738.26	34.0143
1738.52	38.8121
1738.78	35.9185
1739.03	38.792
1739.29	38.7808
1739.55	36.8468
1739.8	35.8711
1740.06	33.9338
1740.32	32.9583
1740.57	36.7796
1740.83	38.6834
1741.09	37.7137
1741.34	38.6615
1741.6	31.9455
1741.86	36.7258
1742.11	32.8875
1742.37	39.5844
1742.63	42.4524
1742.88	35.7456
1743.14	38.6117
1743.4	36.6929
1743.65	40.5186
1743.91	38.5985
1744.16	33.8044
1744.42	37.6234
1744.68	37.6159
1744.93	36.6548
1745.19	35.6962
1745.45	34.7383
1745.7	41.432
1745.96	35.689
1746.22	36.639
1746.47	40.4543
1746.73	31.8388
1746.98	30.8718
1747.24	38.5059
1747.5	35.6277
1747.75	42.3019
1748.01	38.4714
1748.27	39.4196
1748.52	37.5077
1748.78	40.3699
1749.03	34.6419
1749.29	37.5063
1749.55	39.4182
1749.8	35.6028
1750.06	36.5629
1750.32	37.5245
1750.57	32.7533
1750.83	36.5815
1751.08	37.5383
1751.34	41.3646
1751.6	37.5397
1751.85	33.7094
1752.11	36.5648
1752.36	34.6411
1752.62	30.8108
1752.88	43.2161
1753.13	40.3404
1753.39	37.466
1753.64	39.3656
1753.9	36.4946
1754.15	33.6248
1754.41	38.3844
1754.67	38.374
1754.92	36.4593
1755.18	38.3588
1755.43	36.4462
1755.69	38.3457
1755.95	37.3845
1756.2	36.4219
1756.46	34.5062
1756.71	38.3039
1756.97	35.4339
1757.23	40.1787
1757.48	33.506
1757.74	37.3047
1757.99	37.2982
1758.25	48.7123
1758.5	33.5019
1758.76	32.5515
1759.02	39.2112
1759.27	41.1128
1759.53	38.2567
1759.78	42.0633
1760.04	36.351
1760.3	43.0071
1760.55	38.2442
1760.81	38.2386
1761.06	42.9886
1761.32	43.9309
1761.57	39.1656
1761.83	42.009
1762.08	42.0019
1762.34	41.0462
1762.6	39.1416
1762.85	43.8998
1763.11	39.1487
1763.36	41.0493
1763.62	41.0456
1763.87	39.1433
1764.13	41.046
1764.38	37.2444
1764.64	38.2013
1764.89	42.9715
1765.15	41.0729
1765.4	44.8838
1765.66	39.1744
1765.92	36.3191
1766.17	36.3185
1766.43	41.077
1766.68	34.4095
1766.94	37.2607
1767.19	42.0157
1767.45	39.1575
1767.7	39.1523
1767.96	37.2417
1768.21	41.0403
1768.47	43.8879
1768.73	40.0768
1768.98	43.8771
1769.24	37.201
1769.49	40.98
1769.75	39.0572
1770	37.1428
1770.26	47.5873
1770.51	42.8476
1770.77	40.0063
1771.02	41.9053
1771.28	40.9563
1771.53	41.9157
1771.79	40.9782
1772.04	42.8833
1772.3	41.9328
1772.55	44.7911
1772.81	37.188
1773.06	43.852
1773.32	43.8555
1773.57	38.1486
1773.83	39.1025
1774.08	43.8638
1774.34	46.7213
1774.59	41.0099
1774.85	41.9621
1775.1	41.9661
1775.36	45.7767
1775.61	46.7355
1775.87	42.9433
1776.12	42.9525
1776.38	38.1897
1776.63	45.816
1776.89	41.9988
1777.14	43.898
1777.4	40.0764
1777.65	42.929
1777.91	38.1556
1778.16	42.9098
1778.42	37.1855
1778.67	39.0815
1778.93	38.1192
1779.18	40.0108
1779.44	41.9008
1779.69	39.0379
1779.95	44.7435
1780.2	36.1898
1780.46	42.8524
1780.71	38.0948
1780.97	35.2406
1781.22	38.0982
1781.47	38.0971
1781.73	41.905
1781.98	40.9548
1782.24	36.1972
1782.49	39.0585
1782.75	37.1605
1783	39.0699
1783.26	38.1197
1783.51	35.2629
1783.77	40.0314
1784.02	37.1749
1784.28	36.225
1784.53	40.0442
1784.79	35.2831
1785.04	38.1489
1785.29	35.2878
1785.55	40.0565
1785.8	39.0984
1786.06	37.1846
1786.31	38.1326
1786.57	40.993
1786.82	35.2707
1787.08	37.1828
1787.33	37.1889
1787.58	38.1519
1787.84	33.3895
1788.09	37.23
1788.35	40.1207
1788.6	40.1444
1788.86	32.5017
1789.11	39.2073
1789.37	40.1724
1789.62	40.1857
1789.87	37.3192
1790.13	36.3638
1790.38	38.2837
1790.64	34.4522
1790.89	39.2441
1791.15	34.4472
1791.4	32.5207
1791.65	37.2881
1791.91	35.3675
1792.16	39.1928
1792.42	42.0644
1792.67	31.5293
1792.93	36.3181
1793.18	38.2367
1793.43	37.2801
1793.69	36.3212
1793.94	34.4036
1794.2	33.448
1794.45	34.4057
1794.7	36.3196
1794.96	32.4799
1795.21	38.2373
1795.47	33.4697
1795.72	31.5659
1795.97	34.4519
1796.23	37.3356
1796.48	36.3804
1796.74	35.425
1796.99	34.4696
1797.25	38.3179
1797.5	34.4793
1797.75	41.2111
1798.01	29.6793
1798.26	35.4492
1798.51	40.2581
1798.77	36.4124
1799.02	36.4109
1799.28	37.3685
1799.53	33.5168
1799.78	30.6259
1800.04	38.3066
1800.29	33.4932
1800.55	35.408
1800.8	30.5986
1801.05	33.4756
1801.31	37.3138
1801.56	32.5082
1801.81	34.4273
1802.07	31.545
1802.32	36.3483
1802.58	37.3107
1802.83	32.5095
1803.08	31.5521
1803.34	30.5952
1803.59	35.4071
1803.84	33.4882
1804.1	36.3745
1804.35	36.3746
1804.61	34.4537
1804.86	35.4203
1805.11	34.4628
1805.37	33.5062
1805.62	33.5127
1805.87	29.6672
1806.13	34.4876
1806.38	34.4918
1806.64	32.5684
1806.89	38.3529
1807.14	35.4632
1807.4	31.6074
1807.65	34.4972
1807.9	35.4592
1808.16	34.4939
1808.41	32.5649
1808.66	30.6361
1808.92	34.4908
1809.17	35.4541
1809.42	33.5256
1809.68	33.5249
1809.93	30.6322
1810.18	34.4881
1810.44	30.6307
1810.69	32.5575
1810.94	33.5181
1811.2	33.5145
1811.45	36.4043
1811.7	34.4735
1811.96	36.3992
1812.21	33.5055
1812.46	39.2899
1812.72	34.4712
1812.97	31.5811
1813.22	32.5494
1813.48	33.5169
1813.73	36.4113
1813.98	35.4497
1814.24	37.386
1814.49	31.6019
1814.74	33.5402
1815	28.7195
1815.25	31.6217
1815.5	33.5575
1815.76	36.4577
1816.01	35.4912
1816.26	28.7253
1816.52	30.6581
1816.77	35.4915
1817.02	30.6586
1817.27	36.4549
1817.53	36.4477
1817.78	33.5304
1818.03	30.6199
1818.29	32.5511
1818.54	34.487
1818.79	31.5957
1819.05	29.666
1819.3	31.5953
1819.55	34.495
1819.8	38.3636
1820.06	31.5994
1820.31	31.6004
1820.56	33.536
1820.82	30.6376
1821.07	36.442
1821.32	29.6728
1821.58	35.4792
1821.83	38.3857
1822.08	27.7448
1822.33	35.4886
1822.59	35.49
1822.84	34.5225
1823.09	33.5545
1823.34	30.6501
1823.6	33.5517
1823.85	31.611
1824.1	34.5095
1824.36	29.6673
1824.61	31.6037
1824.86	34.5087
1825.11	31.6054
1825.37	36.4478
1825.62	35.4816
1825.87	36.4507
1826.12	32.5757
1826.38	32.5737
1826.63	31.6039
1826.88	30.6344
1827.14	33.5388
1827.39	32.5704
1827.64	28.6968
1827.89	33.5421
1828.15	35.4813
1828.4	35.4797
1828.65	33.5385
1828.9	34.5021
1829.16	33.5266
1829.41	31.5844
1829.66	33.5183
1829.91	28.6726
1830.17	34.4796
1830.42	36.4103
1830.67	35.436
1830.92	32.5259
1831.18	35.4285
1831.43	32.5258
1831.68	34.4651
1831.93	35.4365
1832.19	37.3763
1832.44	39.3168
1832.69	34.4759
1832.94	32.5428
1833.2	30.607
1833.45	35.4521
1833.7	36.4203
1833.95	36.4218
1834.2	35.4522
1834.46	32.5441
1834.71	37.3801
1834.96	33.4833
1835.21	34.433
1835.47	36.3508
1835.72	32.4678
1835.97	38.2606
1836.22	35.3564
1836.48	33.4121
1836.73	35.4886
1836.98	35.4821
1837.23	33.493
1837.48	36.3824
1837.74	36.3545
1837.99	36.3297
1838.24	31.4566
1838.49	34.3339
1838.74	39.1582
1839	30.5127
1839.25	31.5015
1839.5	31.5114
1839.75	36.3588
1840	34.4237
1840.26	37.3385
1840.51	36.3335
1840.76	37.2739
1841.01	37.2496
1841.27	29.495
1841.52	36.2428
1841.77	27.5321
1842.02	35.2425
1842.27	38.1229
1842.53	33.2841
1842.78	33.271
1843.03	34.2396
1843.28	35.1987
1843.53	34.2362
1843.78	33.2691
1844.04	31.3379
1844.29	36.1552
1844.54	29.4014
1844.79	32.2971
1845.04	30.3664
1845.3	33.2529
1845.55	30.3586
1845.8	33.2506
1846.05	35.1925
1846.3	31.3445
1846.55	34.2524
1846.81	29.4424
1847.06	34.2536
1847.31	31.3085
1847.56	33.1791
1847.81	31.241
1848.07	31.2396
1848.32	28.3643
1848.57	36.0841
1848.82	35.1004
1849.07	34.1262
1849.32	31.2368
1849.57	33.154
1849.83	33.1424
1850.08	34.0921
1850.33	33.1182
1850.58	30.2194
1850.83	35.0142
1851.09	32.1203
1851.34	35.9542
1851.59	29.2217
1851.84	30.1758
1852.09	32.0913
1852.34	34.0083
1852.59	29.2048
1852.84	34.0041
1853.1	35.9225
1853.35	32.0787
1853.6	38.7957
1853.85	30.1491
1854.1	27.2616
1854.35	29.1711
1854.6	30.1188
1854.86	29.1492
1855.11	34.8958
1855.36	33.9297
1855.61	33.9178
1855.86	34.8627
1856.11	31.0224
1856.36	31.0176
1856.61	35.8031
1856.87	33.8855
1857.12	32.9255
1857.37	26.2177
1857.62	31.9595
1857.87	31.9537
1858.12	32.9052
1858.37	28.1115
1858.63	30.018
1858.88	32.8798
1859.13	30.0001
1859.38	28.0778
1859.63	29.0248
1859.88	31.8858
1860.13	33.7951
1860.38	31.8812
1860.63	30.9252
1860.89	33.7979
1861.14	31.8891
1861.39	30.9353
1861.64	28.0689
1861.89	31.8992
1862.14	30.942
1862.39	30.9384
1862.64	30.9317
1862.9	28.0533
1863.15	30.9137
1863.4	35.6849
1863.65	30.8951
1863.9	31.8421
1864.15	30.8783
1864.4	30.8706
1864.65	34.6839
1864.9	32.7656
1865.15	31.802
1865.4	30.8372
1865.66	27.0087
1865.91	23.1817
1866.16	30.7996
1866.41	34.5974
1866.66	32.6748
1866.91	30.7542
1867.16	29.7872
1867.41	35.4825
1867.66	32.6132
1867.91	32.6015
1868.16	35.4462
1868.41	31.6374
1868.67	32.5839
1868.92	30.6811
1869.17	34.4837
1869.42	28.7772
1869.67	30.675
1869.92	33.5229
1870.17	30.6673
1870.42	32.5647
1870.67	31.6107
1870.92	27.8057
1871.17	29.7038
1871.42	27.8006
1871.67	33.4985
1871.92	28.7417
1872.17	32.5349
1872.42	28.7292
1872.68	33.4735
1872.93	32.5157
1873.18	31.5575
1873.43	35.3485
1873.68	33.4463
1873.93	31.5432
1874.18	32.4858
1874.43	33.4266
1874.68	27.7248
1874.93	27.7158
1875.18	32.4477
1875.43	28.6448
1875.68	33.3732
1875.93	32.4118
1876.18	32.3916
1876.43	32.3775
1876.68	29.5269
1876.93	29.5177
1877.18	33.2948
1877.43	24.7676
1877.68	31.3639
1877.93	32.2694
1878.18	32.2941
1878.44	29.5674
1878.69	30.4702
1878.93	31.4005
1879.19	31.3945
1879.44	35.2107
1879.69	32.383
1879.94	30.4767
1880.19	27.6247
1880.44	30.4618
1880.69	36.1382
1880.94	33.3036
1881.19	32.3473
1881.44	37.0773
1881.69	31.3818
1881.94	34.2016
1882.19	32.2914
1882.44	30.3822
1882.69	28.4737
1882.94	26.5642
1883.19	35.9884
1883.44	30.3036
1883.69	28.608
1883.94	33.2043
1884.19	32.1719
1884.44	29.3451
1884.69	31.247
1884.94	34.0556
1885.19	32.1809
1885.44	24.6489
1885.69	33.1421
1885.94	33.1445
1886.19	30.3268
1886.44	33.1651
1886.69	32.2239
1886.94	35.9962
1887.19	31.2589
1887.44	35.0249
1887.69	31.2404
1887.94	30.2873
1888.19	33.1067
1888.44	33.0952
1888.69	29.3102
1888.94	30.24
1889.19	33.9955
1889.44	32.0997
1889.69	35.8578
1889.94	24.5584
1890.19	33.9682
1890.44	31.1453
1890.69	32.0922
1890.94	33.0397
1891.19	31.1563
1891.43	32.095
1891.68	35.8572
1891.94	30.2039
1892.18	32.0833
1892.43	28.313
1892.68	29.2516
1892.93	33.0113
1893.18	32.0611
1893.43	32.0474
1893.68	32.9677
1893.93	34.8293
1894.18	35.7629
1894.43	31.0667
1894.68	31.9929
1894.93	33.8641
1895.18	33.8595
1895.43	31.0401
1895.68	34.7987
1895.93	33.8608
1896.18	31.0437
1896.43	31.9857
1896.68	33.8692
1896.93	35.7545
1897.18	26.3548
1897.42	35.7616
1897.68	32.0007
1897.92	32.0002
1898.17	30.1168
1898.42	31.9942
1898.67	32.9289
1898.92	34.8018
1899.17	31.0313
1899.42	32.901
1899.67	36.6515
1899.92	27.2494
1900.17	36.6388
1900.42	29.1171
1900.67	31.9322
1900.92	32.8707
1901.16	31.9327
1901.41	28.1776
1901.66	34.7606
1901.91	31.0055
1902.16	31.9502
1902.41	32.8964
1902.66	32.9018
1902.91	28.1969
1903.16	30.0736
1903.41	33.8305
1903.66	31.0033
1903.91	29.1179
1904.16	35.6958
1904.41	29.1106
1904.65	31.9283
1904.9	34.7457
1905.15	30.9814
1905.4	31.9183
1905.65	34.736
1905.9	30.032
1906.15	34.7202
1906.4	30.9483
1906.65	33.7599
1906.9	34.6931
1907.14	31.8703
1907.39	36.5611
1907.64	34.6815
1907.89	32.8035
1908.14	31.8667
1908.39	32.8103
1908.64	37.5087
1908.89	35.6298
1909.14	33.7524
1909.39	32.8162
1909.63	35.6411
1909.88	30.9471
1910.13	32.8358
1910.38	33.7858
1910.63	33.7959
1910.88	29.0973
1911.13	32.8689
1911.38	31.9304
1911.62	34.7576
1911.87	31.9311
1912.12	30.987
1912.37	33.8086
1912.62	32.8625
1912.87	32.8598
1913.12	32.8578
1913.37	30.9723
1913.61	30.9715
1913.86	37.5687
1914.11	31.9239
1914.36	34.7602
1914.61	33.8237
1914.86	32.8859
1915.11	35.7211
1915.36	28.1789
1915.6	32.899
1915.85	33.8427
1916.1	34.7836
1916.35	34.7787
1916.6	35.7184
1916.85	34.7679
1917.1	32.8721
1917.34	32.8643
1917.59	34.7432
1917.84	36.6231
1918.09	34.7335
1918.34	31.9042
1918.59	34.7356
1918.83	32.8553
1919.08	30.9757
1919.33	31.927
1919.58	31.9356
1919.83	32.8917
1920.08	31.957
1920.33	34.796
1920.57	30.0711
1920.82	32.9
1921.07	33.8453
1921.32	31.962
1921.57	36.6957
1921.81	31.9718
1922.06	35.7572
1922.31	31.9755
1922.56	28.1905
1922.81	31.0234
1923.06	31.9622
1923.31	33.8464
1923.55	33.8411
1923.8	33.8364
1924.05	30.0505
1924.3	32.8794
1924.55	32.8714
1924.79	34.7549
1925.04	30.9727
1925.29	31.9168
1925.54	33.809
1925.79	31.9242
1926.04	38.5501
1926.28	34.7765
1926.53	31.0001
1926.78	28.1684
1927.03	32.908
1927.28	31.9664
1927.52	30.0758
1927.77	33.8662
1928.02	31.0273
1928.27	32.9235
1928.52	32.9253
1928.76	36.7153
1929.01	31.9808
1929.26	32.9308
1929.51	26.2996
1929.76	34.8359
1930	34.8451
1930.25	31.058
1930.5	32.9636
1930.75	32.9699
1931	33.9264
1931.24	28.2306
1931.49	34.8757
1931.74	32.0229
1931.99	32.9659
1932.24	32.0103
1932.48	32.9528
1932.73	31.9973
1932.98	28.1953
1933.23	35.7817
1933.47	31.9806
1933.72	33.878
1933.97	31.0393
1934.22	34.8505
1934.46	34.872
1934.71	29.1965
1934.96	32.0754
1935.21	32.0979
1935.46	34.0222
1935.7	34.0375
1935.95	31.1859
1936.2	33.0691
1936.45	30.2046
1936.69	34.9657
1936.94	33.0535
1937.19	31.1392
1937.44	26.3671
1937.68	33.9777
1937.93	35.8726
1938.18	32.0564
1938.43	36.8063
1938.68	32.0455
1938.92	31.103
1939.17	32.057
1939.42	30.1555
1939.67	35.8737
1939.91	32.0661
1940.16	31.1169
1940.41	30.1635
1940.66	36.8405
1940.9	34.9412
1941.15	33.0552
1941.4	27.3406
1941.64	29.2472
1941.89	34.0123
1942.14	33.0441
1942.39	27.3022
1942.63	28.2641
1942.88	31.1559
1943.13	31.1616
1943.38	31.1609
1943.62	32.1005
1943.87	34.946
1944.12	31.1167
1944.37	37.8156
1944.61	29.231
1944.86	25.4163
1945.11	31.1504
1945.35	34.0221
1945.6	31.1625
1945.85	32.1241
1946.1	30.2177
1946.34	33.09
1946.59	28.3119
1946.84	29.2696
1947.09	33.0953
1947.33	32.1362
1947.58	27.3498
1947.83	33.0824
1948.07	30.211
1948.32	34.0337
1948.57	28.2942
1948.82	31.1583
1949.06	31.158
1949.31	28.2927
1949.56	34.0362
1949.8	32.1281
1950.05	28.3065
1950.3	34.056
1950.54	35.0265
1950.79	32.1668
1951.04	30.2597
1951.29	28.3522
1951.53	33.1587
1951.78	28.3717
1952.03	33.1783
1952.27	30.3028
1952.52	33.1865
1952.77	32.2297
1953.01	28.3849
1953.26	29.3489
1953.51	32.2372
1953.76	30.3049
1954	36.0523
1954.25	32.1883
1954.49	30.2497
1954.74	32.1483
1954.99	30.215
1955.24	30.2086
1955.48	30.2056
1955.73	32.1235
1955.98	32.1306
1956.22	30.2255
1956.47	31.2051
1956.72	30.2526
1956.96	28.3408
1957.21	33.145
1957.46	33.1511
1957.7	34.1171
1957.95	30.2786
1958.2	31.2421
1958.44	33.1657
1958.69	33.1663
1958.94	32.2049
1959.18	34.1226
1959.43	31.231
1959.68	36.0302
1959.92	35.066
1960.17	28.3339
1960.42	31.2088
1960.66	33.1228
1960.91	31.1947
1961.16	30.2266
1961.4	31.179
1961.65	31.1721
1961.9	35.0055
1962.14	36.9242
1962.39	35.9647
1962.63	33.0849
1962.88	29.2452
1963.13	34.0439
1963.37	33.0835
1963.62	35.0028
1963.87	27.3223
1964.11	33.082
1964.36	32.1241
1964.61	34.0464
1964.85	30.2029
1965.1	32.1189
1965.35	31.1574
1965.59	33.0747
1965.84	31.1531
1966.08	31.1544
1966.33	30.1982
1966.58	35.9676
1966.82	26.3647
1967.07	36.939
1967.32	35.9808
1967.56	30.2106
1967.81	32.1313
1968.05	39.8227
1968.3	28.2864
1968.55	35.9769
1968.79	38.8584
1969.04	35.0076
1969.29	35.9605
1969.53	34.0277
1969.78	34.0146
1970.02	34.9618
1970.27	30.1504
1970.52	32.0616
1970.76	40.6924
1971.01	37.8045
1971.25	35.878
1971.5	33.9532
1971.75	35.8663
1971.99	32.9841
1972.24	32.9847
1972.48	33.9454
1972.73	31.0672
1972.98	35.8617
1973.22	33.938
1973.47	35.8485
1973.71	36.7973
1973.96	32.9534
1974.21	38.6986
1974.45	37.7348
1974.7	35.8144
1974.94	34.8541
1975.19	35.8121
1975.44	38.6891
1975.68	33.8986
1975.93	32.9432
1976.17	36.782
1976.42	31.9883
1976.66	35.8254
1976.91	40.6211
1977.16	35.8231
1977.4	37.7386
1977.65	36.7749
1977.89	31.9734
1978.14	37.7198
1978.39	40.5878
1978.63	36.7457
1978.88	40.5738
1979.12	41.5277
1979.37	36.7334
1979.61	38.6497
1979.86	41.5236
1980.1	38.6477
1980.35	40.5636
1980.6	38.6407
1980.84	37.6734
1981.09	40.5394
1981.33	36.7016
1981.58	43.4
1981.82	35.7304
1982.07	41.4726
1982.31	39.5537
1982.56	42.4234
1982.81	43.3722
1983.05	39.5331
1983.3	43.3504
1983.54	39.5078
1983.79	45.2372
1984.03	35.6646
1984.28	44.269
1984.52	42.3497
1984.77	37.5614
1985.02	39.4688
1985.26	41.3723
1985.51	40.4034
1985.75	40.3963
1986	39.4388
1986.24	39.4394
1986.49	43.267
1986.73	42.3165
1986.98	46.1431
1987.22	42.3147
1987.47	44.2286
1987.71	41.3506
1987.96	45.1595
1988.21	45.1422
1988.45	40.347
1988.7	39.3721
1988.94	43.1629
1989.19	45.9308
1989.43	42.128
1989.68	46.6749
1989.92	43.0848
1990.17	40.3731
1990.41	40.9901
1990.66	43.2079
1990.9	43.1433
1991.15	46.0698
1991.39	46.0651
1991.64	43.2752
1991.88	44.219
1992.13	47.1718
1992.37	47.684
1992.62	46.3521
1992.86	47.6355
1993.11	45.2646
1993.35	45.716
1993.6	43.3627
1993.84	44.8711
1994.09	39.8772
1994.33	46.0028
1994.58	48.8983
1994.82	47.2158
1995.07	44.2812
1995.31	44.242
1995.56	44.8361
1995.8	44.8563
1996.05	45.1875
1996.29	43.426
1996.54	47.7506
1996.78	51.843
1997.03	48.6589
1997.27	45.1217
1997.52	45.1721
1997.76	45.4438
1998.01	45.9302
1998.25	44.9178
1998.5	48.2999
1998.74	40.2099
1998.99	48.9032
1999.23	51.0012
1999.48	49.6219
1999.72	47.3725
1999.97	44.4325
2000.21	47.1887
2000.46	47.8978
2000.7	50.7003
2000.95	51.1045
2001.19	48.5773
2001.43	48.6443
2001.68	48.6489
2001.92	50.7853
2002.17	48.7529
2002.41	47.6231
2002.66	51.747
2002.9	50.0504
2003.15	45.6952
2003.39	48.3249
2003.64	49.6973
2003.88	48.7641
2004.13	48.0941
2004.37	50.1687
2004.61	48.8705
2004.86	48.4419
2005.1	47.3778
2005.35	52.7744
2005.59	50.7078
2005.84	48.3375
2006.08	49.4056
2006.33	47.5637
2006.57	48.7122
2006.81	46.6235
2007.06	50.0253
2007.3	51.3181
2007.55	52.1456
2007.79	49.4685
2008.04	49.2317
2008.28	48.1093
2008.53	47.2372
2008.77	51.0372
2009.01	50.0545
2009.26	46.5867
2009.5	50.5756
2009.75	49.583
2009.99	49.0781
2010.24	52.0185
2010.48	48.3339
2010.73	46.8527
2010.97	45.6139
2011.21	50.945
2011.46	44.3702
2011.7	46.2863
2011.95	51.558
2012.19	51.3212
2012.43	45.8677
2012.68	51.513
2012.92	45.8592
2013.17	47.7318
2013.42	51.4788
2013.67	43.9283
2013.91	50.497
2014.16	48.5981
2014.41	49.5157
2014.66	48.5501
2014.9	45.7113
2015.15	48.5201
2015.4	49.4601
2015.64	55.0978
2015.89	51.3514
2016.14	51.3569
2016.39	45.7179
2016.63	42.9116
2016.88	47.641
2017.13	50.4668
2017.37	51.403
2017.62	47.6358
2017.87	46.6846
2018.11	47.6089
2018.36	41.0184
2018.61	44.7546
2018.86	47.552
2019.1	45.6586
2019.35	43.7652
2019.6	44.6858
2019.84	42.8029
2020.09	41.8596
2020.34	47.4755
2020.58	39.9809
2020.83	45.5977
2021.08	43.7222
2021.33	49.3435
2021.57	45.5993
2021.82	43.7256
2022.07	42.7862
2022.31	44.6547
2022.56	47.4569
2022.81	45.5749
2023.05	42.7553
2023.3	45.5498
2023.55	47.4105
2023.8	46.4642
2024.04	44.5832
2024.29	41.7682
2024.54	46.4331
2024.78	42.6798
2025.03	37.9941
2025.27	44.5173
2025.52	46.3697
2025.77	37.9566
2026.02	37.9457
2026.26	42.595
2026.51	42.5984
2026.76	42.6135
2027	38.9049
2027.25	43.6054
2027.5	43.6418
2027.74	42.7285
2027.99	40.851
2028.23	41.7597
2028.48	41.7209
2028.73	41.6079
2028.98	40.7827
2029.22	42.8047
2029.47	42.7194
2029.72	46.5042
2029.96	46.4231
2030.21	45.4384
2030.45	40.7227
2030.7	43.518
2030.95	39.7544
2031.19	42.5801
2031.44	41.6712
2031.69	40.7313
2031.93	40.7309
2032.18	39.7983
2032.43	43.5425
2032.67	38.8877
2032.92	42.6372
2033.17	43.5849
2033.41	37.9878
2033.66	37.9949
2033.91	38.9403
2034.15	38.01
2034.4	37.0551
2034.64	41.7001
2034.89	40.7243
2035.14	40.7131
2035.38	38.863
2035.63	36.0747
2035.87	37.9625
2036.12	37.0542
2036.37	37.0723
2036.61	39.8759
2036.86	41.7243
2037.11	42.6597
2037.35	38.929
2037.6	38.928
2037.84	34.2504
2038.09	40.7908
2038.34	37.9807
2038.58	37.9747
2038.83	35.1646
2039.08	35.1583
2039.32	37.9548
2039.57	38.8817
2039.81	41.6761
2040.06	38.8652
2040.31	37.9202
2040.55	38.8424
2040.8	39.7647
2041.04	39.7545
2041.29	42.5432
2041.54	36.0088
2041.78	38.802
2042.03	35.0701
2042.27	36.9288
2042.52	39.7197
2042.77	35.9837
2043.01	38.7753
2043.26	37.8427
2043.5	38.7771
2043.75	37.8548
2044	41.5988
2044.24	34.1527
2044.49	36.9561
2044.73	32.289
2044.98	36.0115
2045.23	39.7239
2045.47	40.6196
2045.72	34.1401
2045.96	37.8813
2046.21	34.197
2046.45	41.7376
2046.7	37.9617
2046.95	35.1226
2047.19	38.8299
2047.44	38.8309
2047.68	36.9525
2047.93	39.7198
2048.17	37.8464
2048.42	35.9829
2048.67	36.9163
2048.91	36.918
2049.16	40.6509
2049.4	35.0645
2049.65	34.1383
2049.89	33.2142
2050.14	33.2255
2050.39	36.035
2050.63	36.0445
2050.88	36.0494
2051.12	30.445
2051.37	32.3109
2051.61	35.1058
2051.86	40.6974
2052.11	36.0277
2052.35	30.4252
2052.6	39.7681
2052.84	35.0995
2053.09	36.0371
2053.33	36.0421
2053.58	34.1798
2053.82	36.0571
2054.07	37.0085
2054.31	35.1441
2054.56	40.7607
2054.8	34.2132
2055.05	32.3409
2055.3	34.2093
2055.54	37.9476
2055.79	33.2625
2056.03	33.2581
2056.28	29.516
2056.52	33.252
2056.77	36.0521
2057.01	30.4409
2057.26	32.3094
2057.5	34.1798
2057.75	35.1166
2058	35.1203
2058.24	35.1249
2058.49	33.2591
2058.73	30.4601
2058.98	37.0162
2059.22	30.4718
2059.47	34.2201
2059.71	36.0938
2059.96	29.5418
2060.2	35.159
2060.45	33.2818
2060.69	30.4683
2060.94	34.2079
2061.18	34.2113
2061.43	33.2794
2061.67	36.0907
2061.92	26.7291
2062.16	33.283
2062.41	31.4108
2062.65	35.158
2062.9	32.3515
2063.14	31.4188
2063.39	32.3605
2063.63	35.1762
2063.88	32.3689
2064.12	32.3718
2064.37	33.3112
2064.61	31.4384
2064.86	36.1289
2065.1	30.5077
2065.35	35.2034
2065.59	31.4607
2065.84	31.4686
2066.08	34.2915
2066.33	31.481
2066.57	35.2406
2066.82	26.7902
2067.06	31.488
2067.31	33.3694
2067.55	32.4323
2067.8	31.4965
2068.04	31.5009
2068.29	27.7455
2068.53	28.6876
2068.78	29.6286
2069.02	30.5724
2069.27	35.2727
2069.51	28.6872
2069.76	27.7388
2070	30.5441
2070.25	31.4775
2070.49	29.6013
2070.73	34.311
2070.98	32.4473
2071.22	31.5226
2071.47	32.4602
2071.71	32.45
2071.96	30.6034
2072.2	29.6732
2072.45	27.7871
2072.69	28.726
2072.94	36.2573
2073.18	32.4875
2073.43	31.5452
2073.67	32.4844
2073.92	30.6021
2074.16	29.6609
2074.4	31.5452
2074.65	32.4897
2074.89	32.4951
2075.14	34.3873
2075.38	29.686
2075.63	31.5842
2075.87	27.8262
2076.12	31.6106
2076.36	29.7278
2076.6	30.6719
2076.85	29.7285
2077.09	30.6686
2077.34	31.6055
2077.58	26.88
2077.83	31.5827
2078.07	28.7495
2078.31	27.8091
2078.56	28.7577
2078.8	27.8161
2079.05	32.5354
2079.29	29.7085
2079.54	30.6586
2079.78	31.6165
2080.03	28.7886
2080.27	26.9034
2080.51	29.7416
2080.76	31.6347
2081	29.7445
2081.25	29.7408
2081.49	31.6278
2081.74	25.9573
2081.98	27.846
2082.22	28.789
2082.47	27.8457
2082.71	24.0674
2082.96	25.9581
2083.2	27.8479
2083.45	33.5168
2083.69	31.6249
2083.93	28.7882
2084.18	34.4572
2084.42	27.8423
2084.67	31.6211
2084.91	30.676
2085.15	33.5113
2085.4	30.6759
2085.64	26.8951
2085.89	28.7846
2086.13	28.7859
2086.37	34.4646
2086.62	29.7466
2086.86	28.8068
2087.11	25.971
2087.35	28.8118
2087.59	29.7621
2087.84	29.7643
2088.08	29.7639
2088.32	29.7637
2088.57	29.7638
2088.81	28.818
2089.06	30.7119
2089.3	29.7661
2089.54	32.6103
2089.79	32.6151
2090.03	29.7815
2090.28	30.7309
2090.52	33.5737
2090.76	29.786
2091.01	25.9982
2091.25	30.7382
2091.5	33.584
2091.74	29.7957
2091.98	28.8546
2092.23	28.8622
2092.47	29.8193
2092.72	27.9302
2092.96	27.9391
2093.2	31.7441
2093.45	28.9019
2093.69	28.9085
2093.93	34.6166
2094.18	29.8706
2094.42	28.9248
2094.66	27.0243
2094.91	29.8758
2095.15	32.7259
2095.39	29.871
2095.64	27.9644
2095.88	32.7102
2096.13	27.9541
2096.37	31.7505
2096.61	26.9975
2096.86	30.7957
2097.1	32.6937
2097.34	31.7388
2097.59	29.8327
2097.83	29.8262
2098.07	30.7724
2098.32	29.8208
2098.56	30.7679
2098.8	28.8646
2099.05	29.8131
2099.29	27.9135
2099.53	26.9621
2099.78	31.7053
2100.02	31.7041
2100.27	27.9077
2100.51	28.8569
2100.75	26.0105
2101	29.8092
2101.24	32.664
2101.48	23.1734
2101.73	29.8238
2101.97	28.8752
2102.21	31.724
2102.45	27.9233
2102.7	31.7221
2102.94	31.7195
2103.18	30.7642
2103.43	34.5549
2103.67	29.8039
2103.92	27.9039
2104.16	28.8508
2104.4	29.8
2104.64	27.9031
2104.89	29.8057
2105.13	28.8598
2105.37	28.8631
2105.62	32.6672
2105.86	30.7735
2106.1	32.6793
2106.35	25.0785
2106.59	29.8332
2106.83	26.9822
2107.08	26.032
2107.32	27.9352
2107.56	25.083
2107.8	31.7345
2108.05	24.1237
2108.29	26.9677
2108.53	29.8097
2108.78	32.6503
2109.02	28.8447
2109.26	28.8417
2109.51	26.9432
2109.75	26.9493
2109.99	29.8039
2110.23	27.9036
2110.48	28.8529
2110.72	26.9522
2110.96	27.9015
2111.21	27.9009
2111.45	27.8999
2111.69	30.7471
2111.93	29.7925
2112.18	29.7888
2112.42	28.8367
2112.66	28.8359
2112.91	28.838
2113.15	28.8402
2113.39	26.943
2113.63	28.8493
2113.88	27.904
2114.12	28.8565
2114.36	32.6559
2114.61	28.8509
2114.85	27.8993
2115.09	26.9495
2115.33	29.8007
2115.58	28.848
2115.82	26.9443
2116.06	28.842
2116.31	25.0384
2116.55	29.7824
2116.79	31.6756
2117.03	28.823
2117.28	29.7705
2117.52	25.9702
2117.76	29.7691
2118	29.7654
2118.25	27.8614
2118.49	32.6023
2118.73	27.8482
2118.97	27.8394
2119.22	26.884
2119.46	27.826
2119.7	30.6637
2119.94	28.7611
2120.19	29.7029
2120.43	27.8028
2120.67	26.8531
2120.91	28.7483
2121.16	31.5955
2121.4	27.8065
2121.64	30.656
2121.88	27.8179
2122.13	30.6688
2122.37	29.7257
2122.61	28.7816
2122.85	28.7853
2123.1	28.7884
2123.34	27.8418
2123.58	29.7421
2123.82	25.945
2124.07	27.8409
2124.31	25.9387
2124.55	28.7808
2124.79	26.8752
2125.03	29.7093
2125.28	31.5905
2125.52	27.7858
2125.76	23.9868
2126	26.8197
2126.25	23.9713
2126.49	29.6429
2126.73	25.8512
2126.97	25.8452
2127.21	27.7306
2127.46	26.7786
2127.7	26.7755
2127.94	27.7189
2128.18	29.6074
2128.43	24.877
2128.67	33.3821
2128.91	29.6005
2129.15	28.6546
2129.39	27.7076
2129.64	28.6498
2129.88	30.5374
2130.12	28.6452
2130.36	28.6431
2130.6	29.5857
2130.85	24.8583
2131.09	27.6896
2131.33	25.7962
2131.57	31.459
2131.81	29.5646
2132.06	26.727
2132.3	28.6121
2132.54	29.5522
2132.78	27.6581
2133.02	24.8212
2133.27	27.649
2133.51	26.7043
2133.75	28.592
2133.99	28.5924
2134.23	31.423
2134.48	25.7613
2134.72	26.7051
2134.96	24.8162
2135.2	31.4209
2135.44	27.6445
2135.68	23.8678
2135.93	27.639
2136.17	23.86
2136.41	28.5677
2136.65	28.5585
2136.89	31.3817
2137.14	25.726
2137.38	29.4974
2137.62	32.3257
2137.86	27.6139
2138.1	26.676
2138.34	28.5594
2138.59	31.3789
2138.83	27.6014
2139.07	22.8919
2139.31	28.5568
2139.55	26.6761
2139.79	26.6623
2140.03	31.3639
2140.28	23.8195
2140.52	30.4102
2140.76	29.4636
2141	27.576
2141.24	29.4568
2141.49	26.6284
2141.73	29.4535
2141.97	30.3885
2142.21	27.5569
2142.45	29.4364
2142.69	26.6118
2142.93	25.6747
2143.18	26.6196
2143.42	26.6403
2143.66	30.3974
2143.9	28.4421
2144.14	23.743
2144.38	23.7466
2144.62	28.455
2144.87	27.5234
2145.11	30.3502
2145.35	27.5118
2145.59	31.2743
2145.83	25.6333
2146.07	26.5714
2146.31	29.389
2146.55	29.3858
2146.8	35.0227
2147.04	28.4397
2147.28	29.376
2147.52	30.3109
2147.76	31.2458
2148	27.4834
2148.24	28.4192
2148.48	27.476
2148.73	30.2895
2148.97	27.4678
2149.21	28.4018
2149.45	30.2727
2149.69	28.3879
2149.93	29.3136
2150.17	31.1819
2150.42	28.3599
2150.66	29.291
2150.9	28.35
2151.14	26.4742
2151.38	27.413
2151.62	25.5418
2151.86	32.107
2152.1	30.2357
2152.34	27.4236
2152.58	30.2406
2152.83	29.2976
2153.07	21.7912
2153.31	28.3492
2153.55	28.3438
2153.79	25.5289
2154.03	24.5886
2154.27	29.2691
2154.51	28.3244
2154.75	30.1872
2154.99	26.4293
2155.24	29.2254
2155.48	27.3411
2155.72	28.2667
2155.96	29.1924
2156.2	24.5119
2156.44	28.2437
2156.68	29.1743
2156.92	28.2381
2157.16	29.1709
2157.4	25.4337
2157.64	26.369
2157.89	28.2406
2158.13	28.2451
2158.37	27.3142
2158.61	28.2493
2158.85	24.5096
2159.09	28.2465
2159.33	27.3087
2159.57	28.2391
2159.81	27.2995
2160.05	24.4909
2160.29	29.1537
2160.53	27.2784
2160.77	26.3383
2161.01	28.199
2161.25	26.3289
2161.5	25.3936
2161.74	23.5245
2161.98	31.9181
2162.22	32.8491
2162.46	30.0496
2162.7	26.3173
2162.94	27.249
2163.18	30.9772
2163.42	29.107
2163.66	29.1031
2163.9	26.302
2164.14	26.2984
2164.38	27.2269
2164.62	29.0845
2164.86	30.9399
2165.11	27.2075
2165.35	29.0713
2165.59	30.0053
2165.83	27.2094
2166.07	32.8003
2166.31	30.9361
2166.55	32.7954
2166.79	30.9278
2167.03	27.1964
2167.27	28.1216
2167.51	26.2544
2167.75	26.2476
2167.99	28.1006
2168.23	25.2956
2168.47	27.1434
2168.71	28.0682
2168.95	26.2075
2169.19	28.0677
2169.43	27.1408
2169.67	23.4254
2169.91	26.2221
2170.15	26.2304
2170.39	29.9637
2170.63	27.176
2170.87	30.9029
2171.11	29.0376
2171.35	29.9622
2171.59	31.8208
2171.83	26.2238
2172.07	25.275
2172.31	28.0538
2172.56	30.836
2172.79	26.1838
2173.04	27.1086
2173.28	28.9654
2173.51	28.0351
2173.76	27.1049
2174	27.1061
2174.24	28.0381
2174.48	28.9694
2174.72	26.1818
2174.96	26.1814
2175.2	28.0393
2175.44	25.2499
2175.68	27.1062
2175.92	25.2452
2176.16	26.1729
2176.4	26.1708
2176.64	28.0262
2176.88	25.2342
2177.12	27.0897
2177.36	25.2312
2177.6	28.947
2177.84	29.8757
2178.08	27.0875
2178.32	28.9458
2178.55	27.0846
2178.8	28.9339
2179.03	27.0705
2179.28	25.2122
2179.52	27.0696
2179.75	26.1408
2180	28.9259
2180.23	28.9251
2180.47	27.0671
2180.71	27.9941
2180.95	29.8485
2181.19	27.9892
2181.43	27.0593
2181.67	28.9135
2181.91	28.9094
2182.15	22.4089
2182.39	26.1191
2182.63	23.3314
2182.87	27.0397
2183.11	27.0365
2183.35	28.8856
2183.59	27.9511
2183.83	28.8694
2184.07	28.8626
2184.31	24.2238
2184.55	29.7791
2184.79	26.0709
2185.03	26.071
2185.27	27.9262
2185.51	29.781
2185.75	27.0022
2185.99	29.7856
2186.23	27.9357
2186.47	31.649
2186.7	25.1618
2186.95	26.0959
2187.18	27.031
2187.42	27.0382
2187.66	26.1167
2187.9	25.1929
2188.14	27.98
2188.38	28.905
2188.62	27.0423
2188.86	27.0364
2189.1	29.8144
2189.34	27.0228
2189.58	28.8701
2189.82	29.7874
2190.06	28.8514
2190.3	27.9199
2190.54	27.9181
2190.78	27.918
2191.01	30.7009
2191.25	26.9941
2191.49	25.1391
2191.73	25.1399
2191.97	28.8505
2192.21	27.925
2192.45	27.9267
2192.69	27.9283
2192.93	26.0749
2193.17	28.8619
2193.41	26.0823
2193.65	28.8702
2193.89	26.0909
2194.13	24.2438
2194.36	28.9007
2194.6	28.9094
2194.84	30.7732
2195.08	24.2634
2195.32	27.0485
2195.56	22.3979
2195.8	26.1109
2196.04	26.1046
2196.28	27.9543
2196.52	26.087
2196.76	24.2216
2197	29.7828
2197.23	29.7765
2197.47	26.9879
2197.71	27.9108
2197.95	28.8378
2198.19	26.9828
2198.43	24.2021
2198.67	29.7744
2198.91	25.1406
2199.15	29.7893
2199.38	25.1552
2199.62	30.7359
2199.86	26.0987
2200.1	26.1065
2200.34	34.4892
2200.58	26.1315
2200.82	28.005
2201.06	25.2213
2201.3	26.1598
2201.54	26.1655
2201.77	25.2225
2202.01	30.78
2202.25	27.9287
2202.49	28.8157
2202.73	28.8332
2202.97	24.2346
2203.21	28.9039
2203.45	26.1052
2203.68	27.0289
2203.92	29.8434
2204.16	30.8718
2204.4	27.1035
2204.64	26.1683
2204.88	27.1046
2205.12	25.2217
2205.36	29.8543
2205.59	27.0391
2205.83	26.0937
2206.07	33.5267
2206.31	27.0187
2206.55	24.2344
2206.79	26.0945
2207.03	27.0139
2207.26	27.0148
2207.5	27.0182
2207.74	27.9525
2207.98	27.0274
2208.22	28.8933
2208.46	27.9682
2208.7	26.1115
2208.93	28.9086
2209.17	28.912
2209.41	27.9832
2209.65	30.7782
2209.89	29.8464
2210.13	28.9136
2210.36	30.7767
2210.6	27.0541
2210.84	27.9889
2211.08	23.334
2211.32	27.9966
2211.56	28.9322
2211.8	26.1398
2212.03	25.2123
2212.27	26.1497
2212.51	28.9513
2212.75	28.0199
2212.99	28.9502
2213.23	24.2831
2213.46	25.2128
2213.7	27.0731
2213.94	27.0677
2214.18	24.2715
2214.42	24.2755
2214.66	28.9495
2214.89	28.0267
2215.13	32.6962
2215.37	26.1638
2215.61	22.4306
2215.85	24.2982
2216.08	26.1654
2216.32	25.2313
2216.56	27.0976
2216.8	27.0962
2217.04	28.028
2217.28	25.2255
2217.51	23.3577
2217.75	28.9596
2217.99	33.6286
2218.23	22.4239
2218.47	26.1576
2218.7	28.9592
2218.94	25.2262
2219.18	29.8988
2219.42	30.8375
2219.66	24.3026
2219.9	25.2391
2220.13	26.1761
2220.37	23.3742
2220.61	24.3076
2220.85	23.3713
2221.09	28.0425
2221.32	26.1701
2221.56	22.4264
2221.8	28.9577
2222.04	26.1494
2222.27	23.343
2222.51	30.8073
2222.75	26.1385
2222.99	27.0733
2223.23	26.1429
2223.46	28.0137
2223.7	28.0178
2223.94	27.0896
2224.18	24.2934
2224.42	25.2349
2224.65	28.0467
2224.89	29.9236
2225.13	24.3164
2225.37	28.9996
2225.6	25.2623
2225.84	27.1413
2226.08	27.1467
2226.32	25.2784
2226.56	27.157
2226.79	29.0346
2227.03	27.1657
2227.27	27.1703
2227.51	26.2364
2227.74	26.2389
2227.98	26.24
2228.22	24.3633
2228.46	25.2985
2228.69	24.3584
2228.93	24.3561
2229.17	28.1043
2229.41	24.3522
2229.64	26.2265
2229.88	29.9808
2230.12	21.547
2230.36	23.4278
2230.6	21.5547
2230.83	24.3736
2231.07	24.3779
2231.31	27.1991
2231.55	26.2657
2231.78	27.2108
2232.02	24.3967
2232.26	26.2804
2232.5	23.4652
2232.73	28.1698
2232.97	23.4727
2233.21	25.3575
2233.45	27.2428
2233.68	28.188
2233.92	27.2516
2234.16	26.3137
2234.39	30.0812
2234.63	25.3727
2234.87	30.0759
2235.11	27.2485
2235.34	30.0658
2235.58	29.114
2235.82	26.285
2236.06	28.1657
2236.29	26.2854
2236.53	28.1672
2236.77	26.2871
2237	25.347
2237.24	22.5259
2237.48	23.4714
2237.72	27.2399
2237.95	31.0154
2238.19	25.3767
2238.43	29.1545
2238.67	29.1619
2238.9	25.3981
2239.14	27.2911
2239.38	26.357
2239.61	27.3016
2239.85	24.4686
2240.09	26.3512
2240.33	25.4003
2240.56	27.2791
2240.8	22.562
2241.04	22.5709
2241.27	25.409
2241.51	26.3536
2241.75	25.4111
2241.99	21.6379
2242.22	26.3572
2242.46	28.2465
2242.7	25.4172
2242.93	26.3638
2243.17	30.14
2243.41	25.418
2243.64	25.4141
2243.88	24.4659
2244.12	30.1257
2244.36	25.4058
2244.59	28.2372
2244.83	27.297
2245.07	25.416
2245.3	25.4257
2245.54	28.269
2245.78	28.275
2246.01	22.608
2246.25	23.5576
2246.49	30.182
2246.72	27.3488
2246.96	26.4049
2247.2	28.3006
2247.43	26.4116
2247.67	28.3065
2247.91	26.4143
2248.14	24.5204
2248.38	25.465
2248.62	27.3555
2248.85	27.3532
2249.09	28.2974
2249.33	28.2952
2249.56	28.2935
2249.8	26.4051
2250.04	25.4612
2250.27	24.5138
2250.51	27.3492
2250.75	27.3434
2250.98	26.3912
2251.22	28.2759
2251.46	24.4877
2251.69	28.2655
2251.93	24.4817
2252.17	25.4274
2252.4	26.3752
2252.64	25.4329
2252.88	25.4374
2253.11	24.4986
2253.35	24.5112
2253.59	22.6256
2253.82	30.211
2254.06	25.4793
2254.3	26.4312
2254.53	23.5916
2254.77	26.4387
2255.01	23.594
2255.24	27.3835
2255.48	23.5916
2255.72	22.643
2255.95	27.3842
2256.19	27.3848
2256.42	22.6467
2256.66	28.3421
2256.9	26.4488
2257.13	31.1972
2257.37	28.3545
2257.61	27.4093
2257.84	26.4635
2258.08	23.6172
2258.32	29.3155
2258.55	24.5679
2258.79	22.6695
2259.02	26.4703
2259.26	23.6236
2259.5	27.427
2259.73	24.5784
2259.97	22.6792
2260.2	29.3341
2260.44	24.584
2260.68	26.4871
2260.91	26.489
2261.15	20.7872
2261.39	27.4514
2261.62	22.6997
2261.86	24.603
2262.1	28.41
2262.33	28.4117
2262.57	24.6068
2262.8	25.5615
2263.04	24.6142
2263.28	26.5236
2263.51	25.5775
2263.75	27.4904
2263.98	27.4994
2264.22	29.4168
2264.46	26.5655
2264.69	25.6199
2264.93	26.5812
2265.16	25.6322
2265.4	25.6369
2265.64	25.6409
2265.87	25.6411
2266.11	22.7758
2266.34	26.5942
2266.58	23.7228
2266.81	25.6262
2267.05	26.5738
2267.29	26.5674
2267.52	28.4708
2267.76	22.7417
2267.99	26.5531
2268.23	25.593
2268.47	26.5416
2268.7	28.4463
2268.94	23.6791
2269.17	23.6817
2269.41	24.64
2269.65	25.6
2269.88	27.5155
2270.12	26.5684
2270.35	28.4871
2270.59	27.5402
2270.82	24.6782
2271.06	26.5921
2271.3	27.5532
2271.53	26.6014
2271.77	27.5605
2272	26.6074
2272.24	21.8291
2272.47	25.6574
2272.71	28.5273
2272.95	26.6146
2273.18	23.7451
2273.42	23.7459
2273.65	25.6604
2273.89	23.7472
2274.12	25.662
2274.36	25.6627
2274.6	23.749
2274.83	26.6212
2275.07	25.6649
2275.3	25.6661
2275.54	26.6243
2275.77	26.6255
2276.01	28.5389
2276.24	27.585
2276.48	24.7175
2276.72	27.5972
2276.95	25.6862
2277.18	26.6492
2277.42	24.7372
2277.66	28.5809
2277.89	23.794
2278.13	27.6418
2278.36	24.7724
2278.6	23.8152
2278.83	24.7768
2279.07	24.7765
2279.3	23.8145
2279.54	26.6935
2279.78	22.8473
2280.01	27.6353
2280.24	22.8292
2280.48	23.7817
2280.72	26.6526
2280.95	25.688
2281.19	25.6837
2281.42	22.8047
2281.66	25.6767
2281.89	25.6737
2282.13	26.6344
2282.36	25.6771
2282.6	24.7215
2282.83	22.8078
2283.07	26.6493
2283.3	22.8172
2283.54	27.6216
2283.77	25.7117
2284.01	24.7626
2284.24	23.8114
2284.48	26.7063
2284.71	26.7129
2284.95	25.7536
2285.19	29.6072
2285.42	22.8773
2285.65	23.8408
2285.89	26.7281
2286.12	22.873
2286.36	25.7493
2286.59	26.7096
2286.83	28.6348
2287.06	26.7148
2287.3	24.8017
2287.54	28.6624
2287.77	23.8509
2288	24.816
2288.24	25.7857
2288.47	24.8198
2288.71	26.742
2288.94	26.7374
2289.18	26.7319
2289.41	28.6485
2289.65	27.6749
2289.88	27.6648
2290.12	26.6912
2290.35	25.7254
2290.59	23.7995
2290.82	30.5284
2291.06	25.7216
2291.29	26.6863
2291.53	28.6164
2291.76	29.5875
2292	26.7066
2292.23	24.7856
2292.47	22.8639
2292.7	26.7192
2292.94	25.7619
2293.17	28.657
2293.41	24.8074
2293.64	23.8469
2293.88	25.7765
2294.11	26.7413
2294.34	26.7387
2294.58	26.7349
2294.81	26.7302
2295.05	29.6145
2295.28	28.6465
2295.52	24.7896
2295.75	26.7114
2295.99	27.6699
2296.22	25.7405
2296.46	23.8089
2296.69	29.5712
2296.93	26.6828
2297.16	25.7223
2297.39	27.6499
2297.63	22.842
2297.86	26.6974
2298.1	26.7043
2298.33	23.8229
2298.57	26.7182
2298.8	25.7577
2299.04	27.69
2299.27	24.8041
2299.51	27.702
2299.74	25.7772
2299.97	21.9206
2300.21	28.6721
2300.44	28.6717
2300.68	28.6704
2300.91	24.8141
2301.15	24.8178
2301.38	23.8553
2301.61	28.6833
2301.85	29.6499
2302.08	22.8931
2302.32	27.718
2302.55	22.889
2302.79	27.7124
2303.02	20.9565
2303.25	27.7113
2303.49	26.744
2303.72	21.9177
2303.96	26.7429
2304.19	28.6753
2304.43	27.7143
2304.66	23.856
2304.89	19.9955
2305.13	26.7583
2305.36	26.7628
2305.6	24.833
2305.83	28.6983
2306.07	25.8013
2306.3	20.9722
2306.53	24.8401
2306.77	25.8071
2307	25.8071
2307.24	26.7727
2307.47	24.8381
2307.7	25.8017
2307.94	25.7978
2308.17	29.6604
2308.41	25.7923
2308.64	23.8572
2308.87	21.9243
2309.11	25.7894
2309.34	27.7253
2309.58	24.83
2309.81	25.8023
2310.04	26.7769
2310.28	25.8148
2310.51	23.882
2310.75	22.9146
2310.98	23.8807
2311.21	25.8122
2311.45	24.8384
2311.68	25.7901
2311.92	24.807
2312.15	25.7631
2312.38	23.8253
2312.62	21.8908
2312.85	27.6764
2313.08	25.7424
2313.32	23.8116
2313.55	26.7088
2313.79	25.751
2314.02	24.7947
2314.25	27.6994
2314.49	26.7407
2314.72	24.8152
2314.95	27.7248
2315.19	22.8971
2315.42	23.8679
2315.66	23.8609
2315.89	30.6231
2316.12	25.7824
2316.36	24.8083
2316.59	29.6241
2316.82	25.7521
2317.06	27.679
2317.29	27.6777
2317.52	26.713
2317.76	30.5766
2317.99	25.7545
2318.23	25.7585
2318.46	27.6807
2318.69	28.6411
2318.93	26.7056
2319.16	24.77
2319.39	25.7304
2319.63	25.7259
2319.86	26.6874
2320.09	26.6848
2320.33	25.7194
2320.56	28.6144
2320.79	26.6836
2321.03	26.6856
2321.26	25.7238
2321.5	24.7621
2321.73	25.7316
2321.96	29.5997
2322.2	28.6415
2322.43	23.818
2322.66	29.6234
2322.9	30.5926
2323.13	30.5906
2323.36	33.4916
2323.6	27.6926
2323.83	33.4949
2324.06	30.5958
2324.3	29.6291
2324.53	31.5612
2324.76	32.526
2325	34.4508
2325.23	40.2378
2325.46	43.1208
2325.7	42.1443
2325.93	46.9636
2326.16	49.85
2326.4	64.3178
2326.63	80.7092
2326.86	92.2691
2327.09	150.126
2327.33	183.848
2327.56	216.589
2327.79	214.629
2328.03	158.686
2328.26	127.826
2328.49	99.8805
2328.73	72.8927
2328.96	58.4357
2329.19	56.496
2329.43	43.9587
2329.66	44.9096
2329.89	45.8679
2330.13	40.0865
2330.36	38.1647
2330.59	36.2349
2330.82	33.3419
2331.06	26.5969
2331.29	27.5583
2331.52	27.5596
2331.76	29.4895
2331.99	27.567
2332.22	27.573
2332.46	27.5648
2332.69	29.485
2332.92	27.5539
2333.16	24.6607
2333.39	25.6195
2333.62	23.6903
2333.85	24.6495
2334.09	22.7216
2334.32	25.6048
2334.55	25.5998
2334.79	27.5163
2335.02	22.7025
2335.25	28.4696
2335.48	29.4297
2335.72	22.696
2335.95	26.5428
2336.18	26.5441
2336.41	25.5808
2336.65	25.5775
2336.88	27.4982
2337.11	23.6503
2337.34	24.6102
2337.58	29.4154
2337.81	27.4908
2338.04	23.6425
2338.28	26.5239
2338.51	26.522
2338.74	24.5977
2338.97	25.5575
2339.21	25.5578
2339.44	26.5189
2339.67	25.557
2339.91	27.4779
2340.14	24.5916
2340.37	21.7049
2340.6	26.5047
2340.84	26.4995
2341.07	27.4533
2341.3	30.3255
2341.53	27.4354
2341.77	23.5862
2342	19.7417
2342.23	25.4918
2342.46	24.5279
2342.7	26.4411
2342.93	24.5201
2343.16	26.4351
2343.39	25.4753
2343.63	24.5163
2343.86	22.5974
2344.09	27.3884
2344.32	25.471
2344.56	29.3066
2344.79	25.4724
2345.02	25.471
2345.25	31.2201
2345.49	26.4237
2345.72	29.2937
2345.95	26.4111
2346.18	25.4477
2346.41	27.3576
2346.65	25.4397
2346.88	27.3528
2347.11	22.5629
2347.34	26.3902
2347.58	29.2596
2347.81	23.514
2348.04	28.301
2348.27	29.2596
2348.5	23.5168
2348.74	26.3911
2348.97	28.3057
2349.2	29.26
2349.43	28.297
2349.67	24.4561
2349.9	28.2714
2350.13	24.4319
2350.36	23.4609
2350.59	28.2174
2350.83	26.2726
2351.06	27.1675
2351.29	26.257
2351.52	21.5649
2351.75	25.4164
2351.99	29.1852
2352.22	28.1973
2352.45	26.2903
2352.68	27.2475
2352.91	23.4141
2353.15	29.1107
2353.38	28.1369
2353.61	27.1908
2353.84	30.0456
2354.07	25.2769
2354.31	21.4667
2354.54	27.1798
2354.77	24.3279
2355	26.2389
2355.23	28.1432
2355.47	25.2822
2355.7	24.3265
2355.93	24.3235
2356.16	27.1776
2356.39	21.4579
2356.63	24.3065
2356.86	25.2459
2357.09	26.1868
2357.32	25.2297
2357.55	25.2246
2357.79	24.269
2358.02	24.2647
2358.25	28.0625
2358.48	23.3069
2358.71	24.2547
2358.94	26.149
2359.18	25.1956
2359.41	26.1431
2359.64	25.191
2359.87	28.9864
2360.1	25.1822
2360.33	23.2772
2360.57	28.9663
2360.8	28.9589
2361.03	28.0027
2361.26	22.3041
2361.49	24.1945
2361.72	23.2397
2361.96	28.9202
2362.19	24.1739
2362.42	23.2191
2362.65	25.1063
2362.88	23.2062
2363.11	26.9875
2363.34	25.0889
2363.58	26.0307
2363.81	25.0806
2364.04	20.3463
2364.27	27.9116
2364.5	20.3395
2364.73	26.9562
2364.97	26.9514
