#Acq. time (s)=	30
#Accumulations=	2
#Range (cm-¹)=	1200...2365
#Windows=	3
#Auto scanning=	Off
#Autofocus=	Off
#Macrospot=	Off
#AutoExposure=	Off
#Spike filter=	Multiple accum.
#Delay time (s)=	2
#Binning=	1
#Readout mode=	Signal
#DeNoise=	Off
#ICS correction=	On
#Dark correction=	Off
#Inst. Process=	Off
#Detector Gain=	Best Dynamic
#Detector ADC=	50 kHz HS
#Detector temperature (°C)=	-60.09
#Instrument=	LabRAM HR Evol
#Detector=	SIN-EM FIVIS
#Objective=	x100_VIS_LWD
#Grating=	1800 (450-850nm)
#ND Filter=	100%
#Laser=	532nm_Edge
#Hole=	100.021
#Temperature=	0
#Range=	Visible
#StageXY=	75x50mm Scan+
#StageZ=	Z motor
#X (µm)=	0
#Y (µm)=	0
#Z (µm)=	-63.9
#Full time(mm:ss)=	3:23
#Project=	21_11_26
#Sample=	BU19(2)w
#Site=	
#Title=	BU19(2)w-A-FF1-FI08-V_1800 (450-850nm)_532nm_Edge_100%_x100_VIS_LWD_H100um_30sX2
#Remark=	
#Date=	26.11.2021 16:41
#Acquired=	26.11.2021 16:41:21
1202.72	95.1745
1203	89.9266
1203.28	84.569
1203.56	86.6712
1203.84	102.742
1204.11	83.3356
1204.39	94.0516
1204.67	92.9803
1204.95	88.69
1205.23	86.5222
1205.5	88.6374
1205.78	85.378
1206.06	84.2638
1206.34	89.5878
1206.61	92.7626
1206.89	90.5741
1207.17	81.9583
1207.45	87.2813
1207.73	85.1165
1208	89.3775
1208.28	89.3622
1208.56	80.7816
1208.84	88.2457
1209.11	85.012
1209.39	90.3356
1209.67	83.9088
1209.95	90.3195
1210.23	80.6892
1210.5	77.4655
1210.78	89.1845
1211.06	78.4686
1211.34	82.7129
1211.61	73.0759
1211.89	79.4546
1212.17	84.7542
1212.45	85.7869
1212.72	76.1709
1213	80.4098
1213.28	76.1243
1213.56	78.2381
1213.83	82.4865
1214.11	86.7264
1214.39	78.2127
1214.67	79.2794
1214.94	79.2796
1215.22	81.4074
1215.5	79.2742
1215.78	80.3339
1216.05	76.0686
1216.33	83.4976
1216.61	71.765
1216.89	73.8599
1217.16	80.2073
1217.44	76.994
1217.72	79.0956
1218	85.444
1218.27	82.238
1218.55	77.9727
1218.83	71.5877
1219.1	72.6396
1219.38	76.8781
1219.66	75.809
1219.94	76.8595
1220.21	74.7237
1220.49	74.7205
1220.77	81.0838
1221.04	71.5331
1221.32	80.0089
1221.6	76.8129
1221.88	85.2791
1222.15	85.2535
1222.43	71.4474
1222.71	74.5905
1222.98	83.0193
1223.26	79.8054
1223.54	76.5961
1223.81	70.2217
1224.09	74.4226
1224.37	78.6203
1224.65	76.4882
1224.92	79.6399
1225.2	78.5727
1225.48	81.7363
1225.76	76.467
1226.03	70.1394
1226.31	78.5952
1226.59	64.8633
1226.86	74.3601
1227.14	77.512
1227.42	78.5533
1227.69	80.6216
1227.97	81.5972
1228.25	78.3872
1228.52	76.2364
1228.8	76.1631
1229.08	80.3074
1229.35	86.6046
1229.63	73.1245
1229.91	70.1125
1230.18	76.373
1230.46	79.4607
1230.74	75.2187
1231.01	74.1728
1231.29	76.2336
1231.57	82.3868
1231.84	73.9943
1232.12	72.9411
1232.4	84.4964
1232.67	80.2828
1232.95	81.3306
1233.23	75.0217
1233.5	71.8621
1233.78	79.2125
1234.06	77.115
1234.33	76.0705
1234.61	90.7871
1234.89	76.0875
1235.16	81.3544
1235.44	77.1556
1235.71	74.0082
1235.99	79.2732
1236.27	79.2788
1236.54	82.4309
1236.82	79.2659
1237.1	76.0992
1237.37	75.0308
1237.65	77.1056
1237.93	84.4282
1238.2	75.999
1238.48	81.2176
1238.76	83.2856
1239.03	76.9692
1239.31	80.1006
1239.58	69.6047
1239.86	82.1762
1240.14	76.9287
1240.41	81.1181
1240.69	84.2614
1240.97	79.0218
1241.24	83.2182
1241.52	82.1721
1241.79	83.212
1242.07	82.148
1242.35	86.3294
1242.62	80.0425
1242.9	74.8067
1243.18	74.8164
1243.45	84.26
1243.73	77.9684
1244	79.0165
1244.28	81.1176
1244.56	82.164
1244.83	79.013
1245.11	79.0044
1245.39	84.2261
1245.66	89.4423
1245.94	79.9847
1246.21	85.192
1246.49	77.8514
1246.76	80.9845
1247.04	87.2645
1247.32	83.075
1247.59	80.9739
1247.87	90.3908
1248.14	84.1012
1248.42	92.4379
1248.7	88.2355
1248.97	81.9553
1249.25	86.1431
1249.52	79.8727
1249.8	80.9124
1250.08	87.1841
1250.35	86.1384
1250.63	78.7997
1250.9	84.0055
1251.18	76.6696
1251.45	83.9684
1251.73	84.9976
1252.01	90.205
1252.28	82.8768
1252.56	93.3029
1252.83	81.8003
1253.11	88.0449
1253.39	76.5476
1253.66	88.0178
1253.94	91.1478
1254.21	97.4236
1254.49	79.6954
1254.76	92.241
1255.04	92.248
1255.31	84.9378
1255.59	87.0322
1255.87	100.607
1256.14	95.3799
1256.42	96.4277
1256.69	92.2571
1256.97	101.67
1257.24	92.2734
1257.52	100.624
1257.79	117.318
1258.07	116.262
1258.35	114.164
1258.62	120.418
1258.9	108.92
1259.17	110.981
1259.45	113.065
1259.72	104.727
1260	107.873
1260.27	116.272
1260.55	126.683
1260.82	127.695
1261.1	131.822
1261.37	145.351
1261.65	145.327
1261.92	151.606
1262.2	164.27
1262.48	179.121
1262.75	189.695
1263.02	202.962
1263.3	224.625
1263.58	222.435
1263.85	215.346
1264.13	201.931
1264.4	183.3
1264.68	170.839
1264.95	156.095
1265.23	144.559
1265.5	133.061
1265.78	140.364
1266.05	114.216
1266.33	107.946
1266.6	110.043
1266.88	126.778
1267.15	115.303
1267.43	111.147
1267.7	112.221
1267.98	101.792
1268.25	111.243
1268.53	106.057
1268.8	106.095
1269.08	106.115
1269.35	100.893
1269.63	116.622
1269.9	110.327
1270.18	110.302
1270.45	106.079
1270.73	113.384
1271	106.029
1271.28	111.243
1271.55	108.095
1271.83	105.987
1272.1	101.809
1272.38	104.971
1272.65	106.047
1272.93	110.277
1273.2	104.019
1273.47	108.237
1273.75	114.554
1274.03	110.39
1274.3	114.613
1274.57	116.729
1274.85	106.244
1275.12	112.533
1275.4	113.581
1275.67	113.593
1275.95	113.611
1276.22	117.828
1276.5	113.657
1276.77	113.677
1277.05	126.298
1277.32	117.914
1277.6	126.346
1277.87	131.629
1278.14	137.966
1278.42	130.634
1278.69	144.326
1278.97	153.831
1279.24	166.477
1279.52	157.036
1279.79	181.221
1280.07	196.984
1280.34	222.201
1280.61	266.364
1280.89	311.611
1281.16	416.828
1281.44	512.678
1281.71	665.447
1281.99	873.957
1282.26	1176.03
1282.53	1462.48
1282.81	1819.56
1283.08	2108.73
1283.36	2351.79
1283.63	2469.58
1283.91	2329.96
1284.18	1946.37
1284.45	1521.6
1284.73	1070.67
1285	753.687
1285.28	530.286
1285.55	385.74
1285.83	325.595
1286.1	260.324
1286.37	233
1286.65	194.033
1286.92	192.943
1287.2	165.565
1287.47	156.079
1287.75	153.95
1288.02	153.922
1288.29	139.172
1288.57	122.332
1288.84	128.649
1289.12	121.291
1289.39	127.624
1289.66	119.224
1289.94	121.351
1290.21	122.429
1290.49	117.182
1290.76	117.181
1291.03	106.635
1291.31	110.841
1291.58	109.785
1291.86	99.2514
1292.13	109.779
1292.4	99.2471
1292.68	112.945
1292.95	107.672
1293.22	95.0255
1293.5	104.508
1293.77	99.2741
1294.05	96.1525
1294.32	98.3016
1294.59	102.531
1294.87	88.8213
1295.14	101.468
1295.42	96.2123
1295.69	99.4176
1295.96	99.4713
1296.24	91.0903
1296.51	93.2412
1296.79	94.3074
1297.06	95.3662
1297.33	90.0707
1297.61	95.3381
1297.88	93.205
1298.15	95.2957
1298.43	94.2139
1298.7	91.056
1298.97	93.1602
1299.25	95.2558
1299.52	84.6849
1299.79	83.615
1300.07	95.2246
1300.34	91.0177
1300.62	84.6913
1300.89	93.1401
1301.16	92.0792
1301.44	82.5729
1301.71	88.9115
1301.98	87.8699
1302.25	85.7706
1302.53	88.9462
1302.8	90.0045
1303.08	86.8336
1303.35	88.9399
1303.62	88.9295
1303.9	94.1926
1304.17	79.4057
1304.44	86.7984
1304.72	89.9658
1304.99	78.3487
1305.26	79.3942
1305.54	83.6021
1305.81	86.7486
1306.08	81.4527
1306.35	83.542
1306.63	88.7983
1306.9	86.6806
1307.18	80.352
1307.45	86.6867
1307.72	87.7433
1308	72.9753
1308.27	79.3023
1308.54	80.3607
1308.81	81.41
1309.09	80.359
1309.36	87.7556
1309.63	83.547
1309.91	80.3927
1310.18	87.7871
1310.45	77.2308
1310.73	86.7226
1311	80.3904
1311.27	79.3379
1311.55	75.1199
1311.82	77.2336
1312.09	83.5723
1312.37	78.3076
1312.64	78.3184
1312.91	76.2113
1313.18	81.4867
1313.46	80.4174
1313.73	80.4139
1314	84.6284
1314.28	74.0663
1314.55	78.2876
1314.82	76.1804
1315.09	77.243
1315.37	73.0287
1315.64	77.2605
1315.91	78.3262
1316.18	79.392
1316.46	78.3317
1316.73	71.9893
1317	76.2099
1317.28	77.2632
1317.55	77.2624
1317.82	75.1603
1318.09	69.8854
1318.37	74.1147
1318.64	80.4557
1318.91	76.231
1319.18	75.1742
1319.46	73.0584
1319.73	74.1112
1320	79.3896
1320.28	74.1121
1320.55	76.2252
1320.82	73.0512
1321.09	79.3774
1321.37	71.9668
1321.64	77.2243
1321.91	72.9777
1322.18	77.1846
1322.46	78.217
1322.73	68.7128
1323	68.7025
1323.27	81.3452
1323.55	77.1117
1323.82	70.7936
1324.09	71.8504
1324.36	66.5786
1324.64	80.2835
1324.91	78.1751
1325.18	73.9545
1325.45	76.0675
1325.73	73.9388
1326	69.6898
1326.27	68.5958
1326.54	76.9655
1326.81	71.6817
1327.09	71.6755
1327.36	76.9606
1327.63	77.0107
1327.9	75.9838
1328.18	72.8484
1328.45	72.876
1328.72	66.5759
1328.99	75.0361
1329.27	72.9324
1329.54	65.538
1329.81	79.26
1330.08	73.9808
1330.35	66.5895
1330.63	79.2377
1330.9	75.004
1331.17	73.9311
1331.44	77.0704
1331.71	69.6643
1331.99	78.0585
1332.26	79.0837
1332.53	79.0609
1332.8	80.0884
1333.07	76.9045
1333.35	76.8764
1333.62	72.6459
1333.89	78.9281
1334.16	74.7026
1334.43	73.6309
1334.71	72.5607
1334.98	72.5423
1335.25	73.5758
1335.52	76.7087
1335.79	74.5953
1336.07	77.7282
1336.34	77.7144
1336.61	73.5077
1336.88	70.3516
1337.15	76.6328
1337.43	76.6247
1337.7	74.5212
1337.97	76.6083
1338.24	78.6842
1338.51	71.3324
1338.78	71.3213
1339.06	73.4031
1339.33	69.2059
1339.6	74.4385
1339.87	71.2992
1340.14	73.3968
1340.42	74.4448
1340.69	68.1634
1340.96	72.354
1341.23	76.5408
1341.5	75.4895
1341.77	73.389
1342.04	70.239
1342.32	78.6019
1342.59	79.6308
1342.86	80.6553
1343.13	72.2647
1343.4	76.4377
1343.67	82.7064
1343.95	72.2444
1344.22	72.243
1344.49	77.4729
1344.76	71.197
1345.03	71.1898
1345.3	71.1773
1345.58	70.1151
1345.85	81.5876
1346.12	79.4767
1346.39	76.3157
1346.66	71.0574
1346.93	73.121
1347.2	72.055
1347.47	78.2894
1347.75	76.1815
1348.02	70.9544
1348.29	68.8599
1348.56	74.0643
1348.83	64.6786
1349.1	74.0458
1349.37	79.2403
1349.65	78.1824
1349.92	77.1258
1350.19	78.1523
1350.46	75.0146
1350.73	71.8774
1351	76.0215
1351.27	73.9207
1351.54	73.9079
1351.81	80.1276
1352.09	77.0012
1352.36	71.8
1352.63	73.8875
1352.9	73.9027
1353.17	74.965
1353.44	71.8542
1353.71	81.2883
1353.98	69.8957
1354.25	83.3691
1354.53	86.3633
1354.8	73.8069
1355.07	77.9705
1355.34	81.0936
1355.61	76.9094
1355.88	74.8174
1356.15	78.9978
1356.42	75.8862
1356.69	78.9855
1356.96	80.0156
1357.24	81.0466
1357.51	75.8453
1357.78	76.873
1358.05	85.1659
1358.32	86.1885
1358.59	79.945
1358.86	78.893
1359.13	88.2134
1359.4	77.8229
1359.67	78.8481
1359.94	86.0961
1360.22	88.1465
1360.49	76.7191
1360.76	91.2027
1361.03	80.8254
1361.3	87.0333
1361.57	84.9595
1361.84	87.0271
1362.11	80.8068
1362.38	89.0814
1362.65	87.0001
1362.92	88.0263
1363.19	85.9517
1363.46	95.2754
1363.73	99.4335
1364	92.1949
1364.28	96.3492
1364.55	97.3833
1364.82	96.3402
1365.09	97.3649
1365.36	98.3823
1365.63	90.0773
1365.9	99.3706
1366.17	82.7903
1366.44	85.8747
1366.71	85.8538
1366.98	87.8962
1367.25	88.8988
1367.52	97.1524
1367.79	104.376
1368.06	100.255
1368.33	108.531
1368.6	133.346
1368.87	150.928
1369.15	207.797
1369.41	190.237
1369.68	159.23
1369.95	132.329
1370.23	107.503
1370.5	99.2208
1370.77	104.361
1371.04	100.214
1371.31	96.0625
1371.58	92.9367
1371.85	94.9699
1372.12	99.0597
1372.39	103.148
1372.66	101.048
1372.93	92.7728
1373.2	101.003
1373.47	108.204
1373.74	103.037
1374.01	104.056
1374.28	101.985
1374.55	112.28
1374.82	106.091
1375.09	105.052
1375.36	107.098
1375.63	100.921
1375.9	105.054
1376.17	111.231
1376.44	118.449
1376.71	115.328
1376.98	117.358
1377.25	119.378
1377.52	106.98
1377.79	111.109
1378.06	116.283
1378.33	119.418
1378.6	120.507
1378.87	127.788
1379.14	123.685
1379.41	117.494
1379.68	127.786
1379.95	128.798
1380.22	129.801
1380.49	123.564
1380.76	136.844
1381.03	136.781
1381.3	150.098
1381.57	147.036
1381.84	161.394
1382.11	160.29
1382.38	172.538
1382.65	163.223
1382.92	191.905
1383.19	204.145
1383.46	204.087
1383.73	242.997
1384	248.08
1384.27	290.078
1384.54	338.274
1384.81	408.026
1385.08	500.398
1385.34	654.406
1385.61	856.824
1385.88	1208.11
1386.15	1850.07
1386.42	2682.06
1386.69	3883.24
1386.96	4974.45
1387.23	5458.17
1387.5	4856.52
1387.77	3545.23
1388.04	2295.73
1388.31	1359.24
1388.58	886.048
1388.85	589.197
1389.12	458.577
1389.39	352.086
1389.66	302.828
1389.93	253.572
1390.2	235.008
1390.46	205.078
1390.73	192.698
1391	180.386
1391.27	161.863
1391.54	157.749
1391.81	157.734
1392.08	152.575
1392.35	148.438
1392.62	121.778
1392.89	129.948
1393.16	126.858
1393.43	129.914
1393.7	127.853
1393.97	121.7
1394.23	111.456
1394.5	120.658
1394.77	115.533
1395.04	115.528
1395.31	114.517
1395.58	113.512
1395.85	113.525
1396.12	108.411
1396.39	111.478
1396.66	116.586
1396.93	106.337
1397.2	102.23
1397.46	100.164
1397.73	103.213
1398	89.9061
1398.27	95.0186
1398.54	107.299
1398.81	102.196
1399.08	96.0641
1399.35	103.231
1399.62	97.1076
1399.89	100.188
1400.16	102.244
1400.42	90.9837
1400.69	101.232
1400.96	101.257
1401.23	100.245
1401.5	99.2165
1401.77	108.445
1402.04	96.1541
1402.31	98.2351
1402.58	102.39
1402.84	97.3241
1403.11	104.55
1403.38	108.688
1403.65	108.704
1403.92	102.545
1404.19	103.55
1404.46	107.595
1404.73	117.87
1404.99	108.626
1405.26	117.845
1405.53	113.721
1405.8	119.852
1406.07	135.21
1406.34	156.715
1406.61	148.498
1406.87	159.76
1407.14	187.442
1407.41	203.856
1407.68	222.326
1407.95	261.297
1408.22	286.945
1408.49	317.722
1408.76	331.071
1409.02	304.433
1409.29	286
1409.56	240.895
1409.83	197.832
1410.1	172.198
1410.37	159.888
1410.63	132.165
1410.9	114.697
1411.17	107.486
1411.44	103.361
1411.71	97.195
1411.98	95.1328
1412.25	91.031
1412.51	91.0434
1412.78	85.9445
1413.05	81.8957
1413.32	76.8594
1413.59	77.9333
1413.86	78.8995
1414.12	80.8454
1414.39	78.8119
1414.66	74.7594
1414.93	76.8472
1415.2	86.0813
1415.47	79.9239
1415.73	75.8171
1416	78.899
1416.27	71.7175
1416.54	71.7235
1416.81	69.6761
1417.07	71.7372
1417.34	70.718
1417.61	68.6712
1417.88	72.788
1418.15	67.654
1418.42	67.6548
1418.68	70.74
1418.95	72.7983
1419.22	65.6049
1419.49	69.7166
1419.76	66.6258
1420.02	74.8322
1420.29	67.6262
1420.56	68.6401
1420.83	71.7061
1421.1	74.7699
1421.36	71.6763
1421.63	65.5112
1421.9	68.5938
1422.17	69.6384
1422.44	68.6343
1422.7	64.5475
1422.97	72.8055
1423.24	70.81
1423.51	69.8425
1423.77	70.7039
1424.04	68.5047
1424.31	64.4209
1424.58	69.4806
1424.85	66.4071
1425.11	71.5499
1425.38	71.5992
1425.65	72.6336
1425.92	70.5718
1426.19	69.57
1426.45	67.5127
1426.72	65.4489
1426.99	70.5585
1427.26	58.2371
1427.52	60.2692
1427.79	60.2439
1428.06	63.2958
1428.33	57.1415
1428.59	65.3282
1428.86	61.2331
1429.13	64.3081
1429.4	64.313
1429.67	64.32
1429.93	59.2079
1430.2	55.1219
1430.47	57.1858
1430.74	58.2226
1431	59.2653
1431.27	62.3685
1431.54	68.5466
1431.81	59.3207
1432.07	60.3468
1432.34	59.309
1432.61	59.2944
1432.87	60.3107
1433.14	54.1387
1433.41	55.143
1433.68	59.2178
1433.95	54.0722
1434.21	59.1787
1434.48	56.1002
1434.75	61.2482
1435.01	56.1373
1435.28	51.0155
1435.55	54.0894
1435.82	60.236
1436.08	55.1093
1436.35	56.1299
1436.62	58.1746
1436.89	56.1197
1437.15	55.0893
1437.42	58.1569
1437.69	55.0819
1437.95	54.0511
1438.22	56.096
1438.49	55.0742
1438.76	49.9605
1439.02	52.0134
1439.29	59.1858
1439.56	54.0658
1439.82	55.0985
1440.09	53.0607
1440.36	55.1256
1440.63	55.132
1440.89	58.2112
1441.16	52.0589
1441.43	52.0613
1441.69	51.0314
1441.96	54.0981
1442.23	60.244
1442.49	52.0526
1442.76	56.1552
1443.03	57.1916
1443.3	56.1583
1443.56	57.1735
1443.83	51.0134
1444.1	52.0328
1444.36	55.1056
1444.63	56.1336
1444.9	55.1239
1445.16	50.0083
1445.43	51.0499
1445.7	54.123
1445.97	44.8844
1446.23	52.0605
1446.5	46.9269
1446.77	48.9741
1447.03	53.0719
1447.3	54.0927
1447.57	51.0104
1447.83	40.7506
1448.1	46.8969
1448.37	53.0471
1448.63	52.0305
1448.9	51.0161
1449.17	55.1213
1449.43	52.043
1449.7	48.9613
1449.97	53.0561
1450.23	52.0215
1450.5	54.0626
1450.77	49.9572
1451.03	53.0275
1451.3	45.8484
1451.57	50.9679
1451.83	53.0116
1452.1	54.0304
1452.37	40.7065
1452.63	50.9493
1452.9	50.9494
1453.17	49.9267
1453.43	44.8083
1453.7	49.9361
1453.97	48.911
1454.23	49.9318
1454.5	43.7801
1454.77	41.73
1455.03	43.7789
1455.3	47.8758
1455.56	46.8473
1455.83	47.8724
1456.1	50.9547
1456.36	48.909
1456.63	42.7586
1456.9	48.9036
1457.16	46.8452
1457.43	49.9106
1457.7	42.7349
1457.96	48.8779
1458.23	44.7778
1458.49	46.8262
1458.76	44.7779
1459.03	47.8532
1459.29	42.7322
1459.56	40.6839
1459.82	48.8809
1460.09	41.7065
1460.36	45.8011
1460.62	46.8216
1460.89	50.9144
1461.16	44.7627
1461.42	43.7321
1461.69	44.7497
1461.95	50.8856
1462.22	41.6632
1462.49	50.8664
1462.75	46.7622
1463.02	46.7513
1463.28	46.7398
1463.55	45.7052
1463.82	42.6276
1464.08	44.6701
1464.35	39.5701
1464.61	43.6805
1464.88	46.7663
1465.15	44.7397
1465.41	46.7509
1465.68	46.6645
1465.94	40.5019
1466.21	44.5791
1466.48	42.5507
1466.74	35.401
1467.01	40.4858
1467.27	41.4997
1467.54	47.6245
1467.8	41.4997
1468.07	39.4557
1468.34	38.4332
1468.6	40.4719
1468.87	47.6105
1469.13	44.5471
1469.4	40.4624
1469.67	44.5357
1469.93	41.4677
1470.2	43.4957
1470.46	49.6016
1470.73	44.499
1470.99	44.493
1471.26	43.4701
1471.53	42.4447
1471.79	41.417
1472.06	44.4656
1472.32	43.4434
1472.59	42.4227
1472.85	41.4026
1473.12	41.4006
1473.39	42.4148
1473.65	39.3539
1473.92	43.4185
1474.18	43.4125
1474.45	41.3733
1474.71	43.4078
1474.98	40.3577
1475.24	41.3775
1475.51	45.4486
1475.78	40.3575
1476.04	41.3707
1476.31	40.3468
1476.57	42.377
1476.84	40.3377
1477.1	43.3822
1477.37	43.3742
1477.63	45.4038
1477.9	43.3675
1478.16	45.3995
1478.43	40.3094
1478.69	41.3173
1478.96	40.2939
1479.22	40.2872
1479.49	42.3118
1479.76	46.3669
1480.02	37.2141
1480.29	40.2521
1480.55	40.2367
1480.82	38.1944
1481.08	45.289
1481.35	40.2109
1481.61	45.2755
1481.88	41.2208
1482.14	40.2119
1482.41	37.1739
1482.67	42.2565
1482.94	43.2777
1483.2	45.3073
1483.47	43.2814
1483.73	43.2835
1484	43.2829
1484.26	38.2034
1484.53	35.1419
1484.79	41.2081
1485.06	41.1629
1485.32	41.1059
1485.59	44.1196
1485.85	45.0953
1486.12	41.1475
1486.38	38.1183
1486.65	38.1321
1486.91	43.1541
1487.18	40.1359
1487.44	39.1279
1487.71	45.194
1487.97	38.0926
1488.24	43.1501
1488.5	44.1548
1488.77	36.0454
1489.03	37.0479
1489.3	38.052
1489.56	43.106
1489.83	39.0546
1490.09	44.1094
1490.36	40.0617
1490.62	41.0719
1490.89	46.1238
1491.15	42.0684
1491.42	40.0369
1491.68	42.0544
1491.95	39.0187
1492.21	42.0507
1492.48	44.0739
1492.74	43.0606
1493	35.9808
1493.27	41.0335
1493.53	44.0654
1493.8	42.0397
1494.06	43.0482
1494.33	39.0046
1494.59	40.0173
1494.86	40.0199
1495.12	43.0504
1495.39	42.0318
1495.65	42.0186
1495.92	37.9619
1496.18	41.9894
1496.45	41.9808
1496.71	40.9647
1496.97	38.9399
1497.24	40.9523
1497.5	39.9419
1497.77	40.95
1498.03	37.9191
1498.3	42.9634
1498.56	37.917
1498.82	35.8986
1499.09	39.9361
1499.35	39.937
1499.62	41.9576
1499.88	38.9322
1500.15	38.9348
1500.41	39.945
1500.68	39.9439
1500.94	40.9512
1501.2	39.9396
1501.47	40.9439
1501.73	38.9166
1502	37.9042
1502.26	44.9662
1502.52	38.9091
1502.79	45.9675
1503.05	39.9041
1503.32	43.9297
1503.58	38.8813
1503.85	45.9315
1504.11	42.9056
1504.37	40.8922
1504.64	41.9017
1504.9	41.9012
1505.17	44.9237
1505.43	37.8601
1505.7	40.8778
1505.96	43.889
1506.22	42.8649
1506.49	44.876
1506.75	36.8144
1507.02	38.8302
1507.28	39.8427
1507.54	39.8435
1507.81	40.8522
1508.07	41.8587
1508.34	41.855
1508.6	40.8444
1508.86	35.8064
1509.13	45.8833
1509.39	38.8296
1509.66	37.8206
1509.92	40.8425
1510.18	40.8463
1510.45	40.8482
1510.71	41.8471
1510.98	45.8678
1511.24	37.7987
1511.5	38.7941
1511.77	38.7774
1512.03	36.744
1512.29	41.7511
1512.56	40.7244
1512.82	35.6833
1513.08	40.6947
1513.35	39.6803
1513.61	43.6874
1513.88	41.6753
1514.14	40.6803
1514.4	38.6866
1514.67	41.7033
1514.93	39.6888
1515.2	43.6956
1515.46	40.6712
1515.72	38.6525
1515.99	41.65
1516.25	43.6427
1516.51	40.624
1516.78	37.6107
1517.04	37.6069
1517.3	42.6168
1517.57	39.6069
1517.83	41.6121
1518.09	43.6198
1518.36	38.6126
1518.62	39.6168
1518.88	39.6189
1519.15	41.6267
1519.41	42.6328
1519.67	39.6256
1519.94	42.6367
1520.2	39.6251
1520.47	38.6175
1520.73	38.6139
1520.99	37.6122
1521.26	37.6152
1521.52	36.6145
1521.78	36.615
1522.05	40.6262
1522.31	35.6052
1522.57	41.6195
1522.84	35.5952
1523.1	40.6055
1523.36	37.5895
1523.62	39.5822
1523.89	37.5612
1524.15	38.5521
1524.41	37.5414
1524.68	37.5339
1524.94	40.531
1525.2	43.5392
1525.47	37.5317
1525.73	32.5247
1525.99	39.5404
1526.26	36.5416
1526.52	43.5654
1526.78	38.5622
1527.05	38.5645
1527.31	38.5628
1527.57	35.5497
1527.84	40.5574
1528.1	36.5448
1528.36	38.5449
1528.63	37.5376
1528.89	40.5381
1529.15	38.5301
1529.41	40.5307
1529.68	38.5258
1529.94	38.5225
1530.2	35.5111
1530.47	40.5156
1530.73	42.5215
1530.99	42.5295
1531.25	35.5244
1531.52	42.5434
1531.78	39.5374
1532.04	38.5319
1532.31	31.5181
1532.57	40.5299
1532.83	37.528
1533.09	39.5419
1533.36	42.5634
1533.62	42.5761
1533.88	38.5691
1534.15	33.5557
1534.41	38.5704
1534.67	36.5612
1534.94	38.5635
1535.2	36.5527
1535.46	36.5486
1535.72	39.5486
1535.99	35.5192
1536.25	34.5055
1536.51	32.4935
1536.77	36.4864
1537.04	34.4699
1537.3	39.4605
1537.56	36.4528
1537.82	36.4434
1538.09	42.4444
1538.35	39.4347
1538.61	35.4224
1538.87	40.4161
1539.14	35.4136
1539.4	37.4223
1539.66	37.4433
1539.92	38.4715
1540.19	44.5001
1540.45	41.5123
1540.71	38.5225
1540.97	38.5325
1541.24	40.5418
1541.5	42.5288
1541.76	46.5354
1542.02	37.5026
1542.29	40.498
1542.55	41.4885
1542.81	42.4785
1543.07	44.47
1543.34	39.4544
1543.6	40.4444
1543.86	39.4298
1544.12	32.4152
1544.39	39.4164
1544.65	37.4177
1544.91	40.4259
1545.17	36.435
1545.43	38.4441
1545.7	35.4551
1545.96	34.4606
1546.22	36.4676
1546.48	40.4779
1546.74	35.4663
1547.01	40.4758
1547.27	40.4797
1547.53	40.4838
1547.79	42.4915
1548.06	38.4739
1548.32	42.458
1548.58	37.4505
1548.84	37.4517
1549.1	46.4773
1549.37	30.4208
1549.63	38.3856
1549.89	35.3776
1550.15	33.3968
1550.42	37.4361
1550.68	40.5009
1550.94	44.5602
1551.2	35.5614
1551.46	41.5602
1551.73	39.5553
1551.99	41.5542
1552.25	41.5402
1552.51	37.5421
1552.77	43.5837
1553.03	42.5728
1553.3	37.5394
1553.56	38.514
1553.82	40.5132
1554.08	33.4874
1554.34	43.5084
1554.61	38.482
1554.87	38.468
1555.13	41.459
1555.39	36.4439
1555.65	43.4527
1555.91	35.4379
1556.18	40.4483
1556.44	40.4479
1556.7	44.4473
1556.96	39.4388
1557.22	37.4372
1557.48	36.4368
1557.75	38.4402
1558.01	36.4338
1558.27	40.4324
1558.53	39.4173
1558.79	33.4004
1559.06	32.3873
1559.32	40.3792
1559.58	38.3672
1559.84	35.3582
1560.1	39.3498
1560.36	40.3429
1560.63	40.3377
1560.89	42.3324
1561.15	40.3303
1561.41	39.3298
1561.67	35.3342
1561.93	42.337
1562.19	38.3486
1562.46	39.3596
1562.72	39.3591
1562.98	35.3559
1563.24	34.3521
1563.5	42.3536
1563.76	37.3487
1564.02	35.3457
1564.29	41.3592
1564.55	34.3702
1564.81	39.3776
1565.07	40.3747
1565.33	38.3504
1565.59	40.2777
1565.85	36.1933
1566.11	36.1457
1566.38	36.2972
1566.64	37.3411
1566.9	40.3193
1567.16	36.2959
1567.42	35.3256
1567.68	38.3586
1567.94	37.3483
1568.2	35.3215
1568.47	33.3255
1568.73	40.3287
1568.99	42.3307
1569.25	35.3267
1569.51	34.313
1569.77	34.3046
1570.03	34.3041
1570.29	36.3048
1570.55	37.3042
1570.82	36.3045
1571.08	42.2993
1571.34	33.3023
1571.6	41.2925
1571.86	38.2877
1572.12	40.2778
1572.38	36.28
1572.64	40.2696
1572.9	34.2692
1573.17	36.2601
1573.43	35.2557
1573.69	38.2433
1573.95	36.241
1574.21	39.235
1574.47	39.2414
1574.73	41.2466
1574.99	38.2598
1575.25	38.2689
1575.51	36.2792
1575.78	38.2838
1576.04	42.2823
1576.3	44.277
1576.56	35.2817
1576.82	35.2767
1577.08	42.2566
1577.34	36.2482
1577.6	33.2396
1577.86	41.2092
1578.12	37.2051
1578.38	37.1929
1578.64	39.179
1578.9	39.1757
1579.17	38.1775
1579.43	43.1609
1579.69	40.1697
1579.95	46.1531
1580.21	41.1734
1580.47	38.184
1580.73	37.1867
1580.99	43.1673
1581.25	36.182
1581.51	37.1721
1581.77	39.1598
1582.03	34.168
1582.29	38.1451
1582.55	37.1451
1582.81	40.1302
1583.07	40.1261
1583.33	41.119
1583.59	42.1129
1583.85	38.1268
1584.11	34.1383
1584.38	37.1251
1584.64	36.1315
1584.9	36.1331
1585.16	37.1299
1585.42	38.1248
1585.68	38.1217
1585.94	39.1159
1586.2	42.099
1586.46	41.0924
1586.72	36.1039
1586.98	42.0681
1587.24	38.0809
1587.5	35.0907
1587.76	40.0616
1588.02	37.0739
1588.28	38.0683
1588.54	43.0456
1588.8	42.0546
1589.06	37.0837
1589.32	42.0644
1589.58	40.078
1589.84	39.0854
1590.1	34.1077
1590.36	43.0674
1590.62	36.1001
1590.88	34.1119
1591.14	36.1062
1591.4	37.1001
1591.66	35.1072
1591.92	42.0746
1592.18	36.095
1592.44	42.0588
1592.7	40.054
1592.96	34.0739
1593.22	36.0572
1593.48	33.0595
1593.74	38.0153
1594	40.9792
1594.26	35.0073
1594.52	38.9745
1594.78	34.0074
1595.04	38.9775
1595.3	34.0169
1595.56	30.0459
1595.82	40.9757
1596.08	36.9828
1596.34	42.9404
1596.6	40.9531
1596.86	34.9932
1597.12	33.0071
1597.38	35.9886
1597.64	38.9712
1597.9	34.9998
1598.16	39.9654
1598.42	37.9738
1598.68	33
1598.94	37.9546
1599.2	39.9296
1599.46	36.9436
1599.72	36.9363
1599.98	39.9055
1600.24	34.9376
1600.5	40.882
1600.76	43.8479
1601.02	41.8532
1601.28	37.8746
1601.54	41.824
1601.8	38.8379
1602.06	43.7773
1602.32	40.7971
1602.58	36.8289
1602.84	37.8094
1603.1	34.8311
1603.36	36.8005
1603.62	45.6932
1603.88	38.7646
1604.14	36.7829
1604.4	38.7586
1604.66	37.7696
1604.92	37.7699
1605.17	39.747
1605.43	39.747
1605.69	42.7141
1605.95	38.7611
1606.21	40.7429
1606.47	39.7583
1606.73	38.7735
1606.99	36.798
1607.25	40.7243
1607.51	34.8197
1607.77	39.693
1608.03	42.6661
1608.29	39.7864
1608.55	33.9491
1608.81	42.4317
1609.07	38.9266
1609.32	35.2516
1609.58	40.6124
1609.84	39.2696
1610.1	39.6987
1610.36	38.5696
1610.62	39.6202
1610.88	40.4685
1611.14	40.5532
1611.4	37.9258
1611.66	34.5897
1611.92	40.2273
1612.18	38.508
1612.44	36.8142
1612.69	36.0566
1612.95	36.8586
1613.21	40.2479
1613.47	37.5768
1613.73	42.9108
1613.99	37.5105
1614.25	37.2728
1614.51	37.2257
1614.77	39.9179
1615.03	40.1434
1615.29	37.5162
1615.54	34.6373
1615.8	39.8455
1616.06	36.4094
1616.32	37.8793
1616.58	37.954
1616.84	41.2532
1617.1	40.6197
1617.36	37.5653
1617.62	39.4901
1617.88	38.314
1618.13	34.4623
1618.39	37.8684
1618.65	40.9081
1618.91	41.1405
1619.17	40.6556
1619.43	41.0225
1619.69	40.1345
1619.95	37.1918
1620.2	37.3888
1620.46	41.6793
1620.72	37.681
1620.98	38.3543
1621.24	39.3148
1621.5	37.3212
1621.76	37.3226
1622.02	39.8573
1622.27	39.687
1622.53	38.0475
1622.79	37.9919
1623.05	39.6807
1623.31	37.959
1623.57	36.2819
1623.83	38.22
1624.09	39.9787
1624.34	35.981
1624.6	36.6709
1624.86	39.7541
1625.12	41.3423
1625.38	38.2311
1625.64	38.7183
1625.9	37.8605
1626.15	36.6739
1626.41	38.9891
1626.67	38.8079
1626.93	37.5768
1627.19	38.3977
1627.45	39.4905
1627.7	40.3057
1627.96	38.2827
1628.22	37.9242
1628.48	38.843
1628.74	38.8559
1629	39.5398
1629.26	40.4257
1629.51	40.6564
1629.77	38.9311
1630.03	41.9915
1630.29	39.596
1630.55	37.9443
1630.81	37.2643
1631.06	38.3338
1631.32	38.193
1631.53	35.126
1631.79	41.0414
1632.05	40.0627
1632.31	35.141
1632.57	36.1238
1632.84	38.1043
1633.1	41.0813
1633.36	45.0095
1633.62	40.0586
1633.88	42.0239
1634.14	42.0288
1634.4	42.0346
1634.66	37.1075
1634.93	39.079
1635.19	44.006
1635.45	42.0321
1635.71	37.1007
1635.97	42.0244
1636.23	43.0047
1636.49	37.0868
1636.75	33.1406
1637.02	42.0007
1637.28	41.0082
1637.54	41.9846
1637.8	40.9953
1638.06	42.9622
1638.32	42.9574
1638.58	38.0301
1638.84	41.9637
1639.1	39.0102
1639.37	36.0564
1639.63	35.0708
1639.89	40.9757
1640.15	38.0211
1640.41	39.9875
1640.67	39.9878
1640.93	38.0253
1641.19	39.0142
1641.46	41.9689
1641.72	39.0112
1641.98	40.9752
1642.24	40.9714
1642.5	38.0151
1642.76	36.0438
1643.02	39.9787
1643.28	38.0078
1643.54	43.9118
1643.8	38.9884
1644.06	38.0001
1644.33	41.9315
1644.59	39.9562
1644.85	41.9177
1645.11	40.9316
1645.37	40.9339
1645.63	40.9384
1645.89	40.9406
1646.15	40.9402
1646.41	38.9673
1646.67	39.9456
1646.93	39.9406
1647.19	36.0022
1647.46	42.883
1647.72	38.9433
1647.98	35.9886
1648.24	39.9206
1648.5	39.9212
1648.76	38.9436
1649.02	35.0148
1649.28	38.9686
1649.54	37.9907
1649.8	42.9079
1650.06	43.8865
1650.32	44.8696
1650.58	40.9435
1650.85	37.9978
1651.11	37.0188
1651.37	38.0102
1651.63	37.0287
1651.89	39.9862
1652.15	37.0292
1652.41	38.9992
1652.67	36.0434
1652.93	39.9806
1653.19	37.019
1653.45	42.9275
1653.71	37.0153
1653.97	38.0014
1654.23	35.048
1654.49	41.9477
1654.75	37.0209
1655.01	38.9937
1655.27	37.0262
1655.53	44.9201
1655.8	39.0148
1656.06	38.0412
1656.32	42.9835
1656.57	41.0153
1656.84	36.0826
1657.1	42.9933
1657.36	38.0557
1657.62	43.9736
1657.88	41.9941
1658.14	41.0036
1658.4	40.9997
1658.66	43.9545
1658.92	36.0551
1659.18	41.9673
1659.44	38.0152
1659.7	38.0088
1659.96	37.0163
1660.22	39.9647
1660.48	38.9812
1660.74	36.0273
1661	35.0458
1661.26	39.9826
1661.52	44.9217
1661.78	38.023
1662.04	39.9989
1662.3	39.0141
1662.56	43.9079
1662.82	39.05
1663.08	40.0783
1663.34	41.0439
1663.6	41.0384
1663.86	38.0631
1664.12	35.0269
1664.38	36.0495
1664.64	39.0191
1664.9	38.0342
1665.16	38.0521
1665.42	41.023
1665.68	39.9913
1665.94	40.9395
1666.2	37.0884
1666.46	42.0396
1666.72	40.0569
1666.98	38.0258
1667.24	36.924
1667.5	40.9794
1667.76	39.9827
1668.02	37.0148
1668.28	39.9702
1668.54	37.003
1668.8	38.9761
1669.06	39.9797
1669.32	40.0012
1669.58	37.0414
1669.84	35.0658
1670.1	40.9929
1670.36	41.9755
1670.62	37.0361
1670.88	39.0306
1671.14	41.0197
1671.4	40.0262
1671.66	39.0338
1671.92	30.1361
1672.18	38.0436
1672.44	45.9538
1672.69	39.0348
1672.95	36.0681
1673.21	38.0441
1673.47	40.0213
1673.73	40.0221
1673.99	42.0012
1674.25	37.0608
1674.51	37.0649
1674.77	33.1123
1675.03	41.029
1675.29	39.0571
1675.55	43.0202
1675.81	40.0542
1676.07	36.0953
1676.33	42.0316
1676.59	36.0941
1676.85	38.0745
1677.11	38.0746
1677.37	37.0834
1677.63	38.07
1677.89	39.0553
1678.14	39.0489
1678.4	38.0512
1678.66	38.0421
1678.92	35.0677
1679.18	38.0282
1679.44	37.034
1679.7	38.0186
1679.96	29.1178
1680.22	37.0206
1680.48	38.9935
1680.74	38.9885
1681	37.9956
1681.26	36.0154
1681.52	40.9523
1681.78	40.9507
1682.03	34.034
1682.29	42.9242
1682.55	42.9236
1682.81	37.9839
1683.07	37.9813
1683.33	40.943
1683.59	36.99
1683.85	42.9162
1684.11	37.9749
1684.37	34.0204
1684.63	35.9895
1684.89	34.998
1685.14	37.9578
1685.4	33.0182
1685.66	37.9539
1685.92	40.9151
1686.18	39.927
1686.44	37.952
1686.7	37.9541
1686.96	38.9486
1687.22	36.9758
1687.48	38.9515
1687.73	41.9111
1687.99	38.9421
1688.25	40.912
1688.51	35.9696
1688.77	33.0025
1689.03	35.9586
1689.29	38.9112
1689.55	36.93
1689.81	40.8694
1690.06	40.8605
1690.32	33.9464
1690.58	37.8882
1690.84	34.9365
1691.1	37.8998
1691.36	34.9421
1691.62	38.8899
1691.88	41.8536
1692.13	37.9086
1692.39	39.8816
1692.65	38.8915
1692.91	39.8717
1693.17	42.8229
1693.43	35.9079
1693.69	40.8277
1693.95	31.9426
1694.2	36.8632
1694.46	39.8112
1694.72	34.8761
1694.98	38.8103
1695.24	35.8537
1695.5	35.8548
1695.76	41.7666
1696.01	40.7828
1696.27	36.8436
1696.53	39.8039
1696.79	38.8211
1697.05	37.8343
1697.31	37.8298
1697.57	41.7628
1697.82	38.7963
1698.08	36.8157
1698.34	32.8691
1698.6	39.7528
1698.86	37.777
1699.12	36.7869
1699.38	38.7512
1699.63	41.7011
1699.89	36.7824
1700.15	37.7657
1700.41	37.7653
1700.67	37.7575
1700.92	37.7549
1701.18	40.7035
1701.44	42.6676
1701.7	39.712
1701.96	37.7377
1702.22	33.7963
1702.47	38.7047
1702.73	37.7133
1702.99	41.6363
1703.25	35.737
1703.51	34.7524
1703.77	36.7143
1704.02	36.7098
1704.28	40.6363
1704.54	41.6215
1704.8	41.626
1705.06	41.6263
1705.32	39.6581
1705.57	36.7069
1705.83	34.7408
1706.09	40.6352
1706.35	39.6455
1706.61	37.6717
1706.86	35.698
1707.12	33.7248
1707.38	36.66
1707.64	37.6324
1707.9	35.6594
1708.16	38.5894
1708.41	38.5763
1708.67	40.5233
1708.93	43.4468
1709.19	34.6174
1709.44	42.4419
1709.7	38.5185
1709.96	38.5149
1710.22	42.429
1710.48	39.4919
1710.73	36.5552
1710.99	36.5572
1711.25	32.6447
1711.51	39.5019
1711.77	37.5456
1712.02	35.5884
1712.28	37.5469
1712.54	40.48
1712.8	36.5513
1713.06	42.4077
1713.31	38.4755
1713.57	42.3709
1713.83	34.5344
1714.09	34.5206
1714.34	41.3522
1714.6	40.3692
1714.86	38.4109
1715.12	34.5008
1715.38	42.3128
1715.63	39.3884
1715.89	38.4189
1716.15	42.3259
1716.41	40.3675
1716.66	42.3144
1716.92	38.3979
1717.18	38.3861
1717.44	40.3238
1717.69	43.2328
1717.95	36.3847
1718.21	39.292
1718.47	41.2248
1718.72	33.4183
1718.98	36.3314
1719.24	42.1678
1719.5	41.1924
1719.75	42.1645
1720.01	38.2668
1720.27	31.453
1720.53	42.1639
1720.78	39.238
1721.04	41.1768
1721.3	43.111
1721.56	38.2362
1721.81	41.1459
1722.07	36.2729
1722.33	37.2353
1722.59	37.2248
1722.84	35.2709
1723.1	40.1193
1723.36	40.1098
1723.62	40.102
1723.87	40.0964
1724.13	37.1818
1724.39	40.0905
1724.64	44.9421
1724.9	42.0216
1725.16	37.1571
1725.42	43.9325
1725.67	41.9764
1725.93	38.082
1726.19	46.7943
1726.45	40.0043
1726.7	41.9445
1726.96	41.9403
1727.22	37.0886
1727.47	34.1689
1727.73	41.9153
1727.99	39.9867
1728.24	41.9206
1728.5	43.8497
1728.76	36.0868
1729.02	39.9039
1729.27	39.842
1729.53	39.8186
1729.79	45.6323
1730.05	42.7574
1730.3	36.9756
1730.56	39.8492
1730.82	33.0798
1731.07	44.659
1731.33	44.7081
1731.59	39.8779
1731.84	40.8441
1732.1	37.9428
1732.36	42.7716
1732.61	42.7665
1732.87	39.8623
1733.13	39.8553
1733.39	39.8459
1733.64	40.7984
1733.9	42.7117
1734.16	41.7282
1734.41	38.8213
1734.67	41.7007
1734.93	35.9033
1735.18	44.5625
1735.44	42.621
1735.7	37.7933
1735.95	38.7473
1736.21	43.5534
1736.47	42.5858
1736.72	41.6181
1736.98	43.5362
1737.24	39.6807
1737.49	38.712
1737.75	38.7058
1738.01	44.4705
1738.26	41.577
1738.52	36.7604
1738.78	39.6352
1739.03	39.626
1739.29	37.6941
1739.55	41.5242
1739.8	39.5875
1740.06	40.5285
1740.32	41.4696
1740.57	42.412
1740.83	44.3149
1741.09	43.3448
1741.34	42.376
1741.6	41.4077
1741.86	39.4829
1742.11	40.433
1742.37	39.4703
1742.63	40.4245
1742.88	41.3776
1743.14	40.4151
1743.4	36.5828
1743.65	37.538
1743.91	39.4475
1744.16	43.266
1744.42	42.3008
1744.68	41.337
1744.93	44.2026
1745.19	37.5061
1745.45	41.3318
1745.7	37.5047
1745.96	38.4583
1746.22	43.2342
1746.47	48.0054
1746.73	42.2566
1746.98	47.0211
1747.24	45.0985
1747.5	37.4437
1747.75	41.2538
1748.01	39.3339
1748.27	36.4647
1748.52	39.3265
1748.78	40.2806
1749.03	41.2359
1749.29	43.1471
1749.55	34.558
1749.8	39.3373
1750.06	43.1646
1750.32	43.1734
1750.57	43.1825
1750.83	40.3234
1751.08	42.2374
1751.34	42.2413
1751.6	41.2855
1751.85	40.3234
1752.11	42.2222
1752.36	45.0745
1752.62	41.2427
1752.88	42.1879
1753.13	45.0415
1753.39	41.2126
1753.64	42.1582
1753.9	38.3335
1754.15	41.1884
1754.41	44.9934
1754.67	42.1219
1754.92	41.161
1755.18	43.0609
1755.43	39.2423
1755.69	45.9078
1755.95	39.2289
1756.2	40.1723
1756.46	49.6861
1756.71	43.9587
1756.97	43.9435
1757.23	43.9286
1757.48	37.2558
1757.74	43.9087
1757.99	40.098
1758.25	46.7576
1758.5	42.0133
1758.76	42.9678
1759.02	44.871
1759.27	42.0159
1759.53	42.0156
1759.78	41.0652
1760.04	45.8217
1760.3	45.8173
1760.55	45.8125
1760.81	43.9044
1761.06	41.0446
1761.32	45.7927
1761.57	45.7826
1761.83	41.9705
1762.08	43.8657
1762.34	41.0097
1762.6	42.9082
1762.85	43.8652
1763.11	40.0659
1763.36	44.82
1763.62	43.8664
1763.87	40.0636
1764.13	42.9182
1764.38	41.0198
1764.64	47.6858
1764.89	43.8964
1765.15	42.9507
1765.4	44.8592
1765.66	44.8625
1765.92	40.1046
1766.17	43.9134
1766.43	41.0564
1766.68	42.9582
1766.94	49.6176
1767.19	49.6133
1767.45	43.9003
1767.7	44.8476
1767.96	45.7922
1768.21	48.6389
1768.47	48.6324
1768.73	44.8219
1768.98	41.9639
1769.24	45.7493
1769.49	50.4749
1769.75	47.5984
1770	43.7829
1770.26	44.7329
1770.51	46.6421
1770.77	41.9027
1771.02	46.6529
1771.28	40.9545
1771.53	40.0142
1771.79	47.6337
1772.04	47.6389
1772.3	40.9841
1772.55	41.9411
1772.81	46.7052
1773.06	41.0029
1773.32	47.668
1773.57	49.5761
1773.83	42.9179
1774.08	47.6805
1774.34	45.7795
1774.59	42.9252
1774.85	49.5909
1775.1	36.2659
1775.36	43.8863
1775.61	44.8457
1775.87	49.6298
1776.12	43.9229
1776.38	50.6008
1776.63	48.6952
1776.89	43.9255
1777.14	46.7786
1777.4	46.7697
1777.65	47.7167
1777.91	48.66
1778.16	49.603
1778.42	42.9261
1778.67	40.0608
1778.93	45.7636
1779.18	44.7988
1779.44	43.8339
1779.69	40.9717
1779.95	41.9215
1780.2	49.5457
1780.46	41.9348
1780.71	41.9369
1780.97	41.9398
1781.22	41.9431
1781.47	46.7031
1781.73	40.04
1781.98	45.7555
1782.24	44.8087
1782.49	39.1005
1782.75	40.0615
1783	38.1611
1783.26	48.6469
1783.51	41.9802
1783.77	41.0316
1784.02	43.896
1784.28	49.6222
1784.53	37.2332
1784.79	49.6423
1785.04	37.2468
1785.29	40.1113
1785.55	41.0646
1785.8	41.0615
1786.06	37.2405
1786.31	35.3278
1786.57	41.0509
1786.82	42.9615
1787.08	38.1969
1787.33	42.976
1787.58	44.8962
1787.84	39.1824
1788.09	41.1162
1788.35	44.9667
1788.6	38.2966
1788.86	42.141
1789.11	38.3178
1789.37	44.0719
1789.62	43.1296
1789.87	43.1397
1790.13	45.0612
1790.38	45.0663
1790.64	41.2367
1790.89	35.4842
1791.15	36.4403
1791.4	41.2233
1791.65	42.1551
1791.91	40.235
1792.16	35.4419
1792.42	40.2298
1792.67	41.1884
1792.93	36.4008
1793.18	41.1942
1793.43	41.1968
1793.69	39.281
1793.94	35.4483
1794.2	37.3685
1794.45	41.202
1794.7	39.2839
1794.96	40.2351
1795.21	39.2873
1795.47	38.3579
1795.72	39.3365
1795.97	38.386
1796.23	40.3114
1796.48	39.3577
1796.74	40.3247
1796.99	36.4895
1797.25	41.3
1797.5	38.424
1797.75	44.1962
1798.01	33.6271
1798.26	38.437
1798.51	35.5552
1798.77	36.5181
1799.02	42.2869
1799.28	36.5146
1799.53	38.4325
1799.78	41.3094
1800.04	39.3783
1800.29	39.3702
1800.55	43.2068
1800.8	38.3975
1801.05	37.4326
1801.31	38.3899
1801.56	40.3088
1801.81	36.4659
1802.07	41.269
1802.32	38.3891
1802.58	41.2741
1802.83	43.2003
1803.08	39.3627
1803.34	39.3697
1803.59	41.3001
1803.84	36.4985
1804.1	39.3861
1804.35	35.5404
1804.61	38.4297
1804.86	41.3222
1805.11	36.5178
1805.37	37.4875
1805.62	34.6079
1805.87	39.4303
1806.13	36.5484
1806.38	36.554
1806.64	38.486
1806.89	38.4903
1807.14	37.5291
1807.4	34.6382
1807.65	38.4928
1807.9	33.673
1808.16	40.4193
1808.41	34.6361
1808.66	36.5637
1808.92	39.4557
1809.17	42.3481
1809.42	39.4569
1809.68	36.5653
1809.93	40.4223
1810.18	39.459
1810.44	36.567
1810.69	37.5307
1810.94	41.3844
1811.2	32.7048
1811.45	38.4878
1811.7	35.5939
1811.96	39.4487
1812.21	39.4482
1812.46	37.521
1812.72	34.6315
1812.97	34.6355
1813.22	36.5699
1813.48	35.6096
1813.73	35.6108
1813.98	36.5799
1814.24	40.4476
1814.49	40.4576
1814.74	40.4681
1815	35.6507
1815.25	43.3861
1815.5	42.4257
1815.76	36.6299
1816.01	42.4298
1816.26	34.6987
1816.52	36.6328
1816.77	37.6011
1817.02	38.5696
1817.27	37.5998
1817.53	37.5934
1817.78	42.4054
1818.03	32.7326
1818.29	36.5965
1818.54	36.6022
1818.79	39.51
1819.05	40.4818
1819.3	37.5797
1819.55	47.246
1819.8	38.5517
1820.06	38.5554
1820.31	40.4916
1820.56	35.661
1820.82	41.4671
1821.07	34.7008
1821.32	39.5394
1821.58	39.5439
1821.83	39.5493
1822.08	33.748
1822.33	43.4291
1822.59	34.7211
1822.84	39.5625
1823.09	41.4999
1823.34	38.5968
1823.6	39.5632
1823.85	42.4629
1824.1	38.5861
1824.36	41.4878
1824.61	39.5543
1824.86	42.4611
1825.11	39.5595
1825.37	39.5626
1825.62	42.471
1825.87	41.5048
1826.12	42.4732
1826.38	34.7245
1826.63	39.5666
1826.88	36.6613
1827.14	38.5984
1827.39	35.6941
1827.64	37.634
1827.89	40.5437
1828.15	38.609
1828.4	38.6083
1828.65	38.6059
1828.9	39.5699
1829.16	32.7829
1829.41	38.5902
1829.66	42.4619
1829.91	38.5854
1830.17	35.6769
1830.42	37.6085
1830.67	40.5079
1830.92	39.5346
1831.18	37.5976
1831.43	36.6326
1831.68	41.4786
1831.93	37.6094
1832.19	38.5818
1832.44	36.6483
1832.69	35.6837
1832.94	37.6282
1833.2	43.4482
1833.45	38.6018
1833.7	39.571
1833.95	38.6044
1834.2	38.6053
1834.46	42.4851
1834.71	40.5347
1834.96	42.4499
1835.21	41.4598
1835.47	42.4075
1835.72	39.4914
1835.97	40.447
1836.22	40.4455
1836.48	40.4353
1836.73	40.5984
1836.98	38.6505
1837.23	38.5976
1837.48	37.6093
1837.74	37.5817
1837.99	37.5573
1838.24	39.4519
1838.49	38.4606
1838.74	40.3871
1839	41.4217
1839.25	36.6086
1839.5	44.3719
1839.75	40.5014
1840	38.5678
1840.26	37.6071
1840.51	38.5401
1840.76	38.5123
1841.01	36.5541
1841.27	33.6345
1841.52	42.3141
1841.77	38.4309
1842.02	38.4145
1842.27	40.3297
1842.53	38.3855
1842.78	39.3363
1843.03	35.4838
1843.28	36.4439
1843.53	40.3056
1843.78	38.3748
1844.04	38.3739
1844.29	40.2979
1844.54	36.4386
1844.79	41.2655
1845.04	40.3007
1845.3	38.3641
1845.55	35.471
1845.8	37.3994
1846.05	38.379
1846.3	33.5679
1846.55	41.3064
1846.81	38.4352
1847.06	36.481
1847.31	35.4632
1847.56	39.2541
1847.81	38.2776
1848.07	38.2774
1848.32	34.4434
1848.57	38.3127
1848.82	32.5137
1849.07	39.2438
1849.32	35.3927
1849.57	39.2354
1849.83	39.2232
1850.08	36.3237
1850.33	38.2356
1850.58	41.1046
1850.83	31.48
1851.09	38.1972
1851.34	37.2273
1851.59	38.1798
1851.84	39.1336
1852.09	38.1684
1852.34	25.6826
1852.59	36.2438
1852.84	35.2828
1853.1	37.2022
1853.35	34.3195
1853.6	37.1968
1853.85	33.3516
1854.1	37.1835
1854.35	42.9297
1854.6	37.1591
1854.86	35.2296
1855.11	35.2231
1855.36	35.2168
1855.61	38.0809
1855.86	39.9837
1856.11	38.0593
1856.36	37.0971
1856.61	39.0098
1856.87	39.0088
1857.12	40.9233
1857.37	31.3428
1857.62	37.0852
1857.87	38.0374
1858.12	40.9042
1858.37	39.9395
1858.63	38.0162
1858.88	37.0497
1859.13	36.0835
1859.38	37.0301
1859.63	42.7569
1859.88	37.9682
1860.13	36.0543
1860.38	35.0975
1860.63	36.0548
1860.89	40.842
1861.14	39.8918
1861.39	35.1138
1861.64	36.0763
1861.89	37.038
1862.14	39.91
1862.39	35.1223
1862.64	35.1161
1862.9	38.9339
1863.15	36.0546
1863.4	34.1328
1863.65	36.9917
1863.9	36.9828
1864.15	39.8412
1864.4	34.1008
1864.65	36.9594
1864.9	34.0868
1865.15	38.8528
1865.4	37.8873
1865.66	37.875
1865.91	29.2756
1866.16	38.7995
1866.41	41.6419
1866.66	33.0479
1866.91	36.8427
1867.16	36.8263
1867.41	34.907
1867.66	38.6978
1867.91	34.8815
1868.16	37.7269
1868.41	36.771
1868.67	35.8168
1868.92	32.9645
1869.17	34.8667
1869.42	34.8654
1869.67	35.8133
1869.92	34.8595
1870.17	34.8565
1870.42	37.7052
1870.67	35.8014
1870.92	34.8486
1871.17	39.5988
1871.42	32.9445
1871.67	35.7921
1871.92	38.6377
1872.17	33.8799
1872.42	37.6746
1872.68	35.7702
1872.93	36.7123
1873.18	32.9059
1873.43	33.8498
1873.68	38.5938
1873.93	35.742
1874.18	33.8378
1874.43	41.4219
1874.68	32.8732
1874.93	36.6579
1875.18	35.6993
1875.43	32.8446
1875.68	35.6775
1875.93	41.348
1876.18	40.3773
1876.43	39.4149
1876.68	35.617
1876.93	39.3913
1877.18	38.4389
1877.43	36.5279
1877.68	33.6704
1877.93	37.4058
1878.18	35.5463
1878.44	30.9352
1878.69	38.464
1878.93	35.6071
1879.19	34.6555
1879.44	41.3164
1879.69	38.4923
1879.94	29.9553
1880.19	37.52
1880.44	39.4108
1880.69	41.3007
1880.94	37.5212
1881.19	32.7781
1881.44	41.2958
1881.69	36.5461
1881.94	35.5811
1882.19	35.5623
1882.44	38.3768
1882.69	37.4092
1882.94	35.4948
1883.19	32.6535
1883.44	39.2275
1883.69	38.5386
1883.94	31.7563
1884.19	31.6722
1884.44	36.386
1884.69	37.3497
1884.94	35.4438
1885.19	33.5704
1885.44	39.2471
1885.69	39.2518
1885.94	36.425
1886.19	37.3861
1886.44	40.227
1886.69	37.3989
1886.94	36.4498
1887.19	37.3774
1887.44	35.4805
1887.69	35.4713
1887.94	42.0649
1888.19	32.6222
1888.44	36.3832
1888.69	28.8283
1888.94	37.2964
1889.19	37.2835
1889.44	29.7387
1889.69	33.4982
1889.94	41.0268
1890.19	41.9652
1890.44	36.3198
1890.69	34.444
1890.94	35.3928
1891.19	37.2782
1891.43	32.5665
1891.68	37.2714
1891.94	38.2116
1892.18	37.2664
1892.43	39.1467
1892.68	34.4362
1892.93	37.2547
1893.18	35.3634
1893.43	38.1727
1893.68	38.1503
1893.93	40.9506
1894.18	38.125
1894.43	39.0703
1894.68	35.2964
1894.93	35.2891
1895.18	36.2248
1895.43	35.2854
1895.68	36.2267
1895.93	37.1691
1896.18	38.1124
1896.43	35.2968
1896.68	40.9419
1896.93	34.3673
1897.18	36.2531
1897.42	36.257
1897.68	37.2001
1897.92	37.2009
1898.17	35.3185
1898.42	35.3153
1898.67	31.5482
1898.92	39.0645
1899.17	36.2342
1899.42	35.2841
1899.67	41.8543
1899.92	37.1509
1900.17	39.9636
1900.42	39.0182
1900.67	38.0766
1900.92	36.1981
1901.16	34.3219
1901.41	37.1456
1901.66	34.333
1901.91	37.1589
1902.16	41.8667
1902.41	39.0544
1902.66	36.24
1902.91	39.0615
1903.16	40.9384
1903.41	37.1712
1903.66	36.2254
1903.91	39.9825
1904.16	35.2777
1904.41	37.1555
1904.65	37.1534
1904.9	38.0913
1905.15	39.0284
1905.4	31.5054
1905.65	36.2043
1905.9	43.7213
1906.15	35.2503
1906.4	38.9949
1906.65	35.2314
1906.9	41.8005
1907.14	34.2826
1907.39	38.9743
1907.64	38.0348
1907.89	36.1579
1908.14	40.8579
1908.39	38.0465
1908.64	34.2908
1908.89	33.3523
1909.14	38.0531
1909.39	37.1185
1909.63	38.0651
1909.88	36.1934
1910.13	37.1439
1910.38	39.9779
1910.63	39.9911
1910.88	38.1197
1911.13	37.1857
1911.38	37.1907
1911.62	39.0774
1911.87	38.1361
1912.12	39.0769
1912.37	39.0733
1912.62	38.1278
1912.87	38.126
1913.12	33.4158
1913.37	35.2987
1913.61	39.0666
1913.86	38.1296
1914.11	41.909
1914.36	35.3231
1914.61	37.2162
1914.86	38.1661
1915.11	40.0601
1915.36	40.0671
1915.6	40.072
1915.85	35.3553
1916.1	39.128
1916.35	35.3496
1916.6	35.3468
1916.85	36.2842
1917.1	33.446
1917.34	37.2112
1917.59	35.3191
1917.84	33.4289
1918.09	37.1968
1918.34	40.9679
1918.59	39.087
1918.83	40.981
1919.08	34.3877
1919.33	42.89
1919.58	35.3513
1919.83	35.3652
1920.08	34.4322
1920.33	36.3277
1920.57	35.3835
1920.82	32.544
1921.07	41.0493
1921.32	37.2785
1921.57	42.0144
1921.81	41.0745
1922.06	36.351
1922.31	37.2991
1922.56	34.4609
1922.81	38.2401
1923.06	37.2877
1923.31	45.7903
1923.55	34.4409
1923.8	38.2182
1924.05	39.1589
1924.3	40.0975
1924.55	38.1996
1924.79	36.3044
1925.04	38.1915
1925.29	40.0817
1925.54	38.1963
1925.79	34.4231
1926.04	39.1598
1926.28	42.9525
1926.53	37.2873
1926.78	39.1891
1927.03	42.9866
1927.28	37.3145
1927.52	41.1067
1927.77	38.2707
1928.02	40.1689
1928.27	38.2782
1928.52	36.3869
1928.76	42.0729
1929.01	34.4974
1929.26	34.501
1929.51	38.2969
1929.76	36.4085
1930	33.574
1930.25	41.1703
1930.5	36.4377
1930.75	34.5475
1931	44.9989
1931.24	33.6083
1931.49	37.4062
1931.74	36.453
1931.99	37.3966
1932.24	35.4923
1932.48	34.5374
1932.73	40.225
1932.98	37.3715
1933.23	40.2151
1933.47	42.1059
1933.72	38.3131
1933.97	44.0169
1934.22	37.3918
1934.46	36.4655
1934.71	35.5462
1934.96	37.4793
1935.21	37.5064
1935.46	35.6227
1935.7	33.7325
1935.95	34.6968
1936.2	35.6259
1936.45	38.4806
1936.69	37.5242
1936.94	35.6127
1937.19	39.4152
1937.44	36.5472
1937.68	40.3478
1937.93	35.5779
1938.18	37.4743
1938.43	38.4174
1938.68	33.6576
1938.92	36.5246
1939.17	33.6716
1939.42	41.2944
1939.67	38.443
1939.91	36.5419
1940.16	35.5943
1940.41	36.5477
1940.66	39.4149
1940.9	35.6106
1941.15	36.5873
1941.4	36.6005
1941.64	36.5996
1941.89	39.4565
1942.14	35.6261
1942.39	36.5569
1942.63	35.6158
1942.88	39.4701
1943.13	39.4785
1943.38	37.5695
1943.62	34.6898
1943.87	33.7191
1944.12	36.5677
1944.37	41.3619
1944.61	32.779
1944.86	36.604
1945.11	33.7466
1945.35	35.6646
1945.6	39.4945
1945.85	37.5919
1946.1	34.7316
1946.34	36.6495
1946.59	45.2606
1946.84	33.7883
1947.09	40.4845
1947.33	35.7007
1947.58	31.8713
1947.83	41.4295
1948.07	39.5152
1948.32	33.7766
1948.57	38.5565
1948.82	38.5525
1949.06	37.5973
1949.31	35.6905
1949.56	37.61
1949.8	39.5307
1950.05	34.7548
1950.3	40.5068
1950.54	37.65
1950.79	37.6665
1951.04	41.5131
1951.29	36.7342
1951.53	38.6671
1951.78	33.8829
1952.03	38.692
1952.27	38.6989
1952.52	31.982
1952.77	33.9072
1953.01	37.7465
1953.26	37.7526
1953.51	38.7222
1953.76	36.7893
1954	42.5356
1954.25	36.7496
1954.49	39.6052
1954.74	35.749
1954.99	40.5222
1955.24	35.7255
1955.48	39.5551
1955.73	35.7267
1955.98	37.6523
1956.22	36.709
1956.47	37.6937
1956.72	42.5022
1956.96	36.755
1957.21	35.8004
1957.46	37.7288
1957.7	36.7753
1957.95	35.8207
1958.2	37.7469
1958.44	36.7888
1958.69	37.7518
1958.94	39.6753
1959.18	39.6711
1959.43	38.7015
1959.68	36.7751
1959.92	39.6552
1960.17	38.6875
1960.42	39.6409
1960.66	40.5944
1960.91	32.9048
1961.16	36.7377
1961.4	38.65
1961.65	40.5626
1961.9	35.7594
1962.14	38.6387
1962.39	35.7608
1962.63	34.8015
1962.88	34.8022
1963.13	32.883
1963.37	35.7632
1963.62	38.6434
1963.87	34.804
1964.11	37.6849
1964.36	40.5692
1964.61	33.8509
1964.85	37.6905
1965.1	34.806
1965.35	40.5671
1965.59	38.6443
1965.84	40.5647
1966.08	43.4488
1966.33	42.4959
1966.58	41.5439
1966.82	40.5915
1967.07	41.5581
1967.32	41.5626
1967.56	41.5604
1967.81	36.7539
1968.05	41.5627
1968.3	37.7182
1968.55	35.7962
1968.79	37.7173
1969.04	34.829
1969.29	38.6664
1969.53	39.6167
1969.78	39.6032
1970.02	40.5499
1970.27	39.5784
1970.52	43.4085
1970.76	39.5626
1971.01	40.5142
1971.25	39.5478
1971.5	39.5423
1971.75	37.6191
1971.99	39.5335
1972.24	37.6171
1972.48	38.5792
1972.73	38.5803
1972.98	38.579
1973.22	42.4117
1973.47	38.5673
1973.71	39.5166
1973.96	41.4258
1974.21	40.4608
1974.45	39.4978
1974.7	37.5784
1974.94	40.4532
1975.19	41.4123
1975.44	40.4563
1975.68	41.4194
1975.93	44.3016
1976.17	48.1428
1976.42	43.3513
1976.66	41.4349
1976.91	44.3133
1977.16	44.3126
1977.4	39.5143
1977.65	45.2657
1977.89	44.3006
1978.14	38.5393
1978.39	44.2846
1978.63	48.1121
1978.88	44.2718
1979.12	43.3096
1979.37	42.3502
1979.61	39.4751
1979.86	41.3915
1980.1	42.3508
1980.35	44.2678
1980.6	39.4701
1980.84	45.2121
1981.09	44.2453
1981.33	44.2406
1981.58	44.2333
1981.82	43.2697
1982.07	49.0125
1982.31	45.1788
1982.56	53.7957
1982.81	47.0832
1983.05	41.3299
1983.3	39.4048
1983.54	48.9613
1983.79	42.2527
1984.03	47.0307
1984.28	43.2002
1984.52	48.9338
1984.77	41.2768
1985.02	45.0975
1985.26	47.9574
1985.51	46.988
1985.75	46.9812
1986	41.2458
1986.24	47.9384
1986.49	46.9882
1986.73	43.1707
1986.98	48.9108
1987.22	47.9519
1987.47	49.8671
1987.71	42.2088
1987.96	57.4887
1988.21	51.7355
1988.45	45.984
1988.7	52.6458
1988.94	48.8
1989.19	49.6648
1989.43	51.5342
1989.68	50.5449
1989.92	48.6924
1990.17	48.4586
1990.41	47.5887
1990.66	46.1648
1990.9	50.3617
1991.15	46.1403
1991.39	48.7687
1991.64	48.344
1991.88	48.1698
1992.13	48.9327
1992.37	54.3272
1992.62	49.7106
1992.86	51.4571
1993.11	49.7253
1993.35	46.4184
1993.6	50.6559
1993.84	50.0224
1994.09	54.0348
1994.33	54.5287
1994.58	50.5964
1994.82	52.8727
1995.07	52.7202
1995.31	55.5838
1995.56	55.4098
1995.8	52.4164
1996.05	50.9555
1996.29	55.973
1996.54	50.0339
1996.78	49.9368
1997.03	49.9214
1997.27	52.7856
1997.52	54.5278
1997.76	51.7025
1998.01	52.3079
1998.25	50.6915
1998.5	53.7682
1998.74	53.9255
1998.99	54.8597
1999.23	50.6585
1999.48	50.1502
1999.72	56.1854
1999.97	54.4213
2000.21	53.9322
2000.46	53.4046
2000.7	54.4918
2000.95	55.3529
2001.19	53.7155
2001.43	51.5142
2001.68	54.8682
2001.92	54.217
2002.17	53.2285
2002.41	55.0671
2002.66	50.2931
2002.9	53.0028
2003.15	54.5683
2003.39	53.6266
2003.64	56.0337
2003.88	54.7284
2004.13	55.2375
2004.37	56.2085
2004.61	54.7448
2004.86	56.3442
2005.1	53.5146
2005.35	53.0622
2005.59	57.2563
2005.84	56.7714
2006.08	54.0521
2006.33	56.8899
2006.57	56.8078
2006.81	54.8742
2007.06	54.8804
2007.3	53.667
2007.55	54.1209
2007.79	57.0629
2008.04	54.4046
2008.28	53.02
2008.53	52.557
2008.77	56.6523
2009.01	53.5912
2009.26	54.4546
2009.5	52.7286
2009.75	52.3716
2009.99	57.3236
2010.24	53.6598
2010.48	52.7892
2010.73	51.7715
2010.97	55.3041
2011.21	58.4821
2011.46	55.2145
2011.7	49.3722
2011.95	49.5986
2012.19	56.5057
2012.43	49.1991
2012.68	50.1362
2012.92	56.723
2013.17	50.1214
2013.42	53.8676
2013.67	50.0782
2013.91	60.4064
2014.16	47.2248
2014.41	54.7197
2014.66	55.6294
2014.9	51.8488
2015.15	54.657
2015.4	52.7821
2015.64	48.0958
2015.89	53.7365
2016.14	51.8648
2016.39	54.6753
2016.63	51.8717
2016.88	47.2109
2017.13	53.7966
2017.37	53.793
2017.62	54.7241
2017.87	48.1346
2018.11	52.8154
2018.36	49.9782
2018.61	59.3414
2018.86	55.567
2019.1	51.7953
2019.35	49.8996
2019.6	52.692
2019.84	47.9974
2020.09	55.4838
2020.34	51.7326
2020.58	47.0481
2020.83	48.9186
2021.08	47.0432
2021.33	47.9821
2021.57	49.858
2021.82	51.7313
2022.07	47.982
2022.31	47.0407
2022.56	47.0336
2022.81	50.7692
2023.05	46.0765
2023.3	49.806
2023.55	48.8595
2023.8	51.6542
2024.04	48.8372
2024.29	50.696
2024.54	50.6858
2024.78	44.1279
2025.03	49.7168
2025.27	48.7661
2025.52	45.0164
2025.77	49.6687
2026.02	43.1242
2026.26	46.8391
2026.51	47.7761
2026.76	54.3249
2027	49.6908
2027.25	45.9909
2027.5	45.0948
2027.74	48.8613
2027.99	50.7256
2028.23	49.7581
2028.48	50.6459
2028.73	47.7127
2028.98	44.1033
2029.22	49.8897
2029.47	48.8537
2029.72	48.899
2029.96	48.8132
2030.21	49.6933
2030.45	52.4346
2030.7	47.7679
2030.95	44.9327
2031.19	47.7629
2031.44	46.8577
2031.69	44.0511
2031.93	48.7163
2032.18	42.1858
2032.43	46.8645
2032.67	46.8796
2032.92	45.9624
2033.17	45.9773
2033.41	42.2504
2033.66	43.1936
2033.91	47.8813
2034.15	44.147
2034.4	50.6667
2034.64	45.9617
2034.89	42.1819
2035.14	41.2378
2035.38	44.0547
2035.63	40.3351
2035.87	46.8966
2036.12	45.0607
2036.37	45.0835
2036.61	41.34
2036.86	44.1225
2037.11	49.7324
2037.35	45.0688
2037.6	42.2629
2037.84	42.2604
2038.09	41.321
2038.34	44.1199
2038.58	43.1786
2038.83	45.0405
2039.08	45.9673
2039.32	44.0911
2039.57	41.2809
2039.81	43.1413
2040.06	39.3966
2040.31	41.2519
2040.55	46.8391
2040.8	43.0949
2041.04	42.1514
2041.29	44.0073
2041.54	40.2699
2041.78	44.9276
2042.03	42.1278
2042.27	43.9858
2042.52	41.1843
2042.77	45.8341
2043.01	42.1033
2043.26	43.0344
2043.5	41.1743
2043.75	40.253
2044	43.066
2044.24	41.2179
2044.49	44.0228
2044.73	42.1544
2044.98	44.9421
2045.23	43.0568
2045.47	41.1552
2045.72	44.9357
2045.96	44.0163
2046.21	45.0129
2046.45	45.0861
2046.7	38.5023
2046.95	44.0693
2047.19	42.1697
2047.44	43.1045
2047.68	43.0913
2047.93	43.0565
2048.17	40.2504
2048.42	41.184
2048.67	40.2533
2048.91	43.0527
2049.16	43.0568
2049.4	38.4042
2049.65	44.9423
2049.89	37.4895
2050.14	44.0375
2050.39	45.9166
2050.63	43.1272
2050.88	40.3311
2051.12	43.1356
2051.37	31.9221
2051.61	38.4534
2051.86	36.5743
2052.11	42.1759
2052.35	39.3752
2052.6	42.1826
2052.84	40.3162
2053.09	43.1228
2053.33	40.3269
2053.58	41.2689
2053.82	37.5406
2054.07	39.4283
2054.31	42.2413
2054.56	34.7632
2054.8	40.3768
2055.05	42.2464
2055.3	41.3084
2055.54	41.3052
2055.79	42.2301
2056.03	39.4199
2056.28	37.5478
2056.52	44.0879
2056.77	40.3437
2057.01	39.406
2057.26	36.6013
2057.5	45.0155
2057.75	38.4749
2058	38.4793
2058.24	38.4849
2058.49	39.4257
2058.73	39.4351
2058.98	38.508
2059.22	40.3876
2059.47	42.2656
2059.71	42.268
2059.96	36.6529
2060.2	34.7809
2060.45	40.3927
2060.69	34.7706
2060.94	42.2533
2061.18	41.3221
2061.43	38.5194
2061.67	43.2041
2061.92	41.3332
2062.16	42.27
2062.41	36.6533
2062.65	37.592
2062.9	38.5322
2063.14	38.5373
2063.39	37.6071
2063.63	37.6131
2063.88	39.4921
2064.12	36.6845
2064.37	36.6873
2064.61	37.6273
2064.86	38.5689
2065.1	38.5742
2065.35	38.5829
2065.59	35.7799
2065.84	37.6663
2066.08	38.6138
2066.33	40.4989
2066.57	40.5042
2066.82	40.5056
2067.06	33.9356
2067.31	35.8177
2067.55	39.5778
2067.8	39.5828
2068.04	39.589
2068.29	41.4738
2068.53	38.6583
2068.78	35.8404
2069.02	37.7257
2069.27	40.5461
2069.51	41.4799
2069.76	35.8295
2070	33.935
2070.25	35.8072
2070.49	36.7494
2070.73	35.8248
2070.98	36.7827
2071.22	40.5639
2071.47	42.4417
2071.71	36.7871
2071.96	38.7117
2072.2	38.7272
2072.45	34.0156
2072.69	34.9544
2072.94	36.8361
2073.18	35.8911
2073.43	36.8322
2073.67	38.7128
2073.92	34.9481
2074.16	37.7736
2074.4	39.6587
2074.65	35.8959
2074.89	35.9024
2075.14	32.1429
2075.38	36.8662
2075.63	37.8252
2075.87	37.8449
2076.12	38.802
2076.36	34.0891
2076.6	37.8656
2076.85	37.8669
2077.09	35.9746
2077.34	38.7981
2077.58	36.9018
2077.83	35.9413
2078.07	38.7659
2078.31	37.8271
2078.56	35.005
2078.8	34.0644
2079.05	37.8411
2079.29	36.9026
2079.54	37.8549
2079.78	34.095
2080.03	35.0461
2080.27	34.1071
2080.51	36.002
2080.76	34.1164
2081	34.1165
2081.25	41.6719
2081.49	38.8341
2081.74	35.9982
2081.98	34.1078
2082.22	36.9405
2082.47	36.9431
2082.71	39.7804
2082.96	35.0574
2083.2	36.0027
2083.45	36.0018
2083.69	34.11
2083.93	34.1083
2084.18	35.9979
2084.42	34.1081
2084.67	32.2175
2084.91	38.8324
2085.15	38.8333
2085.4	35.0533
2085.64	33.1628
2085.89	35.9976
2086.13	37.89
2086.37	32.2274
2086.62	35.0743
2086.86	35.0821
2087.11	36.0312
2087.35	35.0892
2087.59	36.9872
2087.84	36.9905
2088.08	33.2049
2088.32	35.0979
2088.57	31.3128
2088.81	36.9927
2089.06	36.9943
2089.3	36.9958
2089.54	37.0012
2089.79	32.2727
2090.03	37.9639
2090.28	35.1254
2090.52	31.3376
2090.76	35.129
2091.01	36.0794
2091.25	36.0831
2091.5	33.2437
2091.74	37.9859
2091.98	32.3071
2092.23	33.2645
2092.47	35.1721
2092.72	32.3362
2092.96	33.2964
2093.2	39.0024
2093.45	36.1624
2093.69	33.3212
2093.93	39.9811
2094.18	33.3355
2094.42	31.4401
2094.66	30.4908
2094.91	36.1949
2095.15	32.39
2095.39	32.3873
2095.64	34.2825
2095.88	35.2261
2096.13	35.2208
2096.37	38.0666
2096.61	33.3134
2096.86	34.2618
2097.1	38.0598
2097.34	38.0543
2097.59	33.2983
2097.83	35.1901
2098.07	36.1362
2098.32	36.1339
2098.56	32.3347
2098.8	36.1262
2099.05	34.2276
2099.29	38.9719
2099.53	32.3259
2099.78	34.2221
2100.02	35.1701
2100.27	35.1701
2100.51	34.2218
2100.75	36.1215
2101	33.2772
2101.24	32.3355
2101.48	35.1904
2101.73	36.1442
2101.97	37.0959
2102.21	34.2461
2102.45	30.4457
2102.7	34.2448
2102.94	39.9409
2103.18	35.1861
2103.43	39.9256
2103.67	35.1742
2103.92	34.2236
2104.16	32.3228
2104.4	35.1708
2104.64	38.0215
2104.89	37.0775
2105.13	38.0324
2105.37	37.0876
2105.62	33.294
2105.86	35.2014
2106.1	37.1085
2106.35	35.2114
2106.59	33.3135
2106.83	35.2161
2107.08	36.1679
2107.32	33.3186
2107.56	36.1718
2107.8	33.3154
2108.05	36.1601
2108.29	37.1007
2108.53	34.2401
2108.78	32.331
2109.02	38.0211
2109.26	35.1692
2109.51	36.1198
2109.75	36.1287
2109.99	38.0357
2110.23	39.9357
2110.48	34.2356
2110.72	34.2351
2110.96	33.2847
2111.21	38.9843
2111.45	34.2337
2111.69	35.1809
2111.93	34.2259
2112.18	36.1214
2112.42	34.2196
2112.66	38.9673
2112.91	38.021
2113.15	33.2754
2113.39	35.1789
2113.63	33.2868
2113.88	36.1445
2114.12	35.1971
2114.36	37.0956
2114.61	34.2408
2114.85	36.1404
2115.09	33.2906
2115.33	39.9439
2115.58	38.0406
2115.82	34.2358
2116.06	37.0834
2116.31	37.0799
2116.55	34.2223
2116.79	34.2153
2117.03	29.4634
2117.28	36.1089
2117.52	31.3591
2117.76	38.957
2118	38.0032
2118.25	31.3511
2118.49	37.0409
2118.73	34.1838
2118.97	31.3273
2119.22	35.1137
2119.46	33.2093
2119.7	30.3577
2119.94	34.1426
2120.19	33.1883
2120.43	32.2355
2120.67	33.181
2120.91	32.234
2121.16	35.0821
2121.4	34.1372
2121.64	35.0925
2121.88	35.1007
2122.13	32.2627
2122.37	34.1664
2122.61	36.0701
2122.85	37.0243
2123.1	32.2832
2123.34	31.3372
2123.58	32.2888
2123.82	36.0873
2124.07	35.1347
2124.31	34.1812
2124.55	36.0731
2124.79	36.0634
2125.03	31.3066
2125.28	34.1352
2125.52	36.0148
2125.76	36.0021
2126	39.7784
2126.25	35.9798
2126.49	34.0772
2126.73	35.0158
2126.97	33.116
2127.21	35.0001
2127.46	32.1556
2127.7	32.1523
2127.94	34.9867
2128.18	29.3117
2128.43	34.9801
2128.67	32.1417
2128.91	36.8678
2129.15	34.977
2129.39	36.8657
2129.64	32.1366
2129.88	34.9693
2130.12	33.0772
2130.36	29.2951
2130.6	38.7425
2130.85	38.7392
2131.09	31.1767
2131.33	26.449
2131.57	34.9456
2131.81	38.7173
2132.06	31.1574
2132.3	31.1539
2132.54	33.0381
2132.78	42.47
2133.02	32.081
2133.27	33.0212
2133.51	37.7383
2133.75	30.1903
2133.99	38.6843
2134.23	35.8532
2134.48	32.0794
2134.72	34.9114
2134.96	35.8538
2135.2	33.0212
2135.44	33.0199
2135.68	36.7924
2135.93	34.9012
2136.17	33.008
2136.41	32.9976
2136.65	35.8157
2136.89	36.7527
2137.14	37.6967
2137.38	34.8696
2137.62	32.9843
2137.86	36.759
2138.1	32.9942
2138.34	32.9913
2138.59	33.9242
2138.83	38.6295
2139.07	36.7507
2139.31	37.7052
2139.55	32.9972
2139.79	37.6944
2140.03	35.7949
2140.28	35.7882
2140.52	28.2453
2140.76	34.8354
2141	32.9474
2141.24	32.9444
2141.49	36.7085
2141.73	33.8832
2141.97	33.876
2142.21	36.6921
2142.45	31.0407
2142.69	37.6295
2142.93	32.9289
2143.18	31.992
2143.42	32.9602
2143.66	36.7149
2143.9	32.8639
2144.14	27.2254
2144.38	39.448
2144.62	34.7606
2144.87	34.7721
2145.11	34.7787
2145.35	30.9977
2145.59	28.1792
2145.83	36.6426
2146.07	32.8792
2146.31	34.7563
2146.55	35.693
2146.8	34.7497
2147.04	34.7465
2147.28	29.1037
2147.52	36.6167
2147.76	31.9136
2148	30.0303
2148.24	31.9054
2148.48	30.9621
2148.73	31.8972
2148.97	32.8316
2149.21	32.8262
2149.45	33.7577
2149.69	35.6262
2149.93	30.9206
2150.17	34.6644
2150.42	34.6545
2150.66	32.7723
2150.9	35.5804
2151.14	33.7048
2151.38	30.8951
2151.62	30.8999
2151.86	33.7155
2152.1	34.6582
2152.34	36.5358
2152.58	32.7887
2152.83	34.6591
2153.07	29.9653
2153.31	29.9593
2153.55	31.8287
2153.79	33.7002
2154.03	33.6966
2154.27	37.4388
2154.51	38.366
2154.75	31.797
2154.99	37.3996
2155.24	31.7699
2155.48	33.6258
2155.72	35.4847
2155.96	32.6695
2156.2	34.5297
2156.44	35.457
2156.68	32.6503
2156.92	34.5167
2157.16	34.5154
2157.4	29.8445
2157.64	36.3857
2157.89	34.5217
2158.13	33.5932
2158.37	30.7941
2158.61	33.5992
2158.85	31.7291
2159.09	34.5313
2159.33	36.3971
2159.57	35.4576
2159.81	29.8454
2160.05	35.4438
2160.29	35.4347
2160.53	31.6907
2160.77	33.5502
2161.01	31.6766
2161.25	30.7395
2161.5	34.47
2161.74	31.6672
2161.98	35.3956
2162.22	34.4609
2162.46	33.5275
2162.7	36.326
2162.94	33.5262
2163.18	33.5229
2163.42	33.518
2163.66	29.7835
2163.9	35.375
2164.14	28.8439
2164.38	34.4338
2164.62	33.4939
2164.86	34.4165
2165.11	34.4105
2165.35	32.548
2165.59	34.4145
2165.83	34.4146
2166.07	30.6872
2166.31	28.8234
2166.55	34.4102
2166.79	30.6794
2167.03	34.4005
2167.27	33.4618
2167.51	35.3188
2167.75	33.4482
2167.99	30.6457
2168.23	37.1421
2168.47	31.5462
2168.71	36.1892
2168.95	32.4693
2169.19	34.3302
2169.43	35.2642
2169.67	32.4809
2169.91	34.3503
2170.15	32.5005
2170.39	33.4437
2170.63	36.2444
2170.87	33.4533
2171.11	36.2443
2171.35	30.6505
2171.59	30.6473
2171.83	35.2875
2172.07	30.6126
2172.31	34.3193
2172.56	32.4535
2172.79	34.3059
2173.04	30.5844
2173.28	34.2995
2173.51	29.6531
2173.76	34.2976
2174	32.4414
2174.24	32.4452
2174.48	31.5185
2174.72	34.3077
2174.96	32.4489
2175.2	31.5188
2175.44	33.3766
2175.68	38.0207
2175.92	34.3008
2176.16	34.2992
2176.4	31.5094
2176.64	33.3646
2176.88	33.3589
2177.12	27.7829
2177.36	35.2139
2177.6	38.0013
2177.84	34.2857
2178.08	31.4977
2178.32	30.5695
2178.55	34.2818
2178.8	33.3435
2179.03	32.4079
2179.28	33.3351
2179.52	33.3362
2179.75	26.8368
2180	33.3363
2180.23	29.6217
2180.47	31.4781
2180.71	32.4052
2180.95	36.1164
2181.19	33.3286
2181.43	31.4706
2181.67	33.3248
2181.91	31.4641
2182.15	37.0285
2182.39	28.6739
2182.63	32.3814
2182.87	34.2335
2183.11	34.2299
2183.35	34.2228
2183.59	33.2874
2183.83	36.9855
2184.07	33.2698
2184.31	35.1175
2184.55	37.8918
2184.79	36.9631
2185.03	36.9639
2185.27	33.2605
2185.51	30.4824
2185.75	35.1185
2185.99	32.3416
2186.23	33.2737
2186.47	34.2066
2186.7	37.9221
2186.95	35.1494
2187.18	32.3756
2187.42	33.3131
2187.66	33.3224
2187.9	34.258
2188.14	31.4731
2188.38	36.1129
2188.62	35.1777
2188.86	30.5286
2189.1	32.378
2189.34	39.7934
2189.58	34.2159
2189.82	33.2769
2190.06	34.1944
2190.3	34.1895
2190.54	31.4068
2190.78	33.2611
2191.01	35.1177
2191.25	35.1203
2191.49	36.9742
2191.73	31.4127
2191.97	33.2696
2192.21	33.2722
2192.45	40.6946
2192.69	31.422
2192.93	33.2798
2193.17	31.4294
2193.41	34.2184
2193.65	34.2236
2193.89	31.4459
2194.13	30.5303
2194.36	34.2615
2194.6	33.3428
2194.84	30.5593
2195.08	27.7684
2195.32	32.4123
2195.56	32.4087
2195.8	32.4032
2196.04	32.3959
2196.28	31.4575
2196.52	31.4462
2196.76	33.2921
2197	31.4276
2197.23	34.2046
2197.47	31.4155
2197.71	33.2655
2197.95	32.3378
2198.19	33.2659
2198.43	36.0521
2198.67	34.2046
2198.91	31.4286
2199.15	33.2944
2199.38	36.0917
2199.62	27.7409
2199.86	33.3256
2200.1	31.477
2200.34	38.9325
2200.58	29.6471
2200.82	34.3158
2201.06	31.5351
2201.3	34.3393
2201.54	36.2113
2201.77	28.7435
2202.01	31.5055
2202.25	35.1529
2202.49	31.3931
2202.73	32.3406
2202.97	34.2553
2203.21	33.3516
2203.45	37.0618
2203.68	29.6154
2203.92	35.2244
2204.16	34.404
2204.4	35.2938
2204.64	32.4935
2204.88	35.2964
2205.12	37.1358
2205.36	36.1712
2205.59	34.2814
2205.83	37.0515
2206.07	34.2565
2206.31	30.538
2206.55	36.1243
2206.79	35.1952
2207.03	35.1818
2207.26	30.5351
2207.5	29.6095
2207.74	31.4747
2207.98	30.5506
2208.22	36.1394
2208.46	33.3549
2208.7	31.4998
2208.93	34.2981
2209.17	33.3716
2209.41	33.3748
2209.65	35.2391
2209.89	32.4451
2210.13	36.169
2210.36	31.5133
2210.6	34.3114
2210.84	36.1792
2211.08	36.1847
2211.32	35.2584
2211.56	30.6032
2211.8	34.3369
2212.03	31.5467
2212.27	29.6879
2212.51	32.4904
2212.75	31.5596
2212.99	33.4228
2213.23	34.3518
2213.46	33.4155
2213.7	30.6125
2213.94	35.2683
2214.18	34.3376
2214.42	36.2092
2214.66	34.3579
2214.89	31.571
2215.13	38.108
2215.37	31.5765
2215.61	32.5118
2215.85	27.8448
2216.08	29.7125
2216.32	31.5796
2216.56	33.4462
2216.8	29.7104
2217.04	30.6424
2217.28	32.5079
2217.51	26.9061
2217.75	32.5085
2217.99	32.5097
2218.23	32.5093
2218.47	31.5749
2218.7	34.3771
2218.94	27.8436
2219.18	33.4508
2219.42	30.6541
2219.66	32.5281
2219.9	34.4002
2220.13	32.5352
2220.37	33.4727
2220.61	28.7986
2220.85	31.6007
2221.09	30.6647
2221.32	31.5957
2221.56	33.4564
2221.8	31.5791
2222.04	35.307
2222.27	33.4327
2222.51	33.4282
2222.75	32.4935
2222.99	34.3626
2223.23	33.4336
2223.46	32.5044
2223.7	32.5096
2223.94	30.6487
2224.18	30.6573
2224.42	31.6013
2224.65	33.4802
2224.89	31.6176
2225.13	28.8177
2225.37	33.5022
2225.6	32.5743
2225.84	33.5196
2226.08	32.5903
2226.32	29.7868
2226.56	29.793
2226.79	30.7343
2227.03	32.6151
2227.27	34.496
2227.51	31.6885
2227.74	34.5051
2227.98	30.7561
2228.22	33.5683
2228.46	32.6278
2228.69	29.8122
2228.93	32.6225
2229.17	28.8704
2229.41	32.6185
2229.64	29.8057
2229.88	31.6857
2230.12	32.6316
2230.36	30.763
2230.6	32.6448
2230.83	30.7738
2231.07	32.6572
2231.31	32.6639
2231.55	32.6712
2231.78	30.8001
2232.02	33.6245
2232.26	34.5707
2232.5	35.5172
2232.73	31.7634
2232.97	33.6496
2233.21	30.8342
2233.45	32.7208
2233.68	31.7857
2233.92	28.9683
2234.16	32.7368
2234.39	33.6815
2234.63	32.7381
2234.87	28.0293
2235.11	34.6131
2235.34	31.7839
2235.58	34.5941
2235.82	33.6446
2236.06	28.9433
2236.29	31.7654
2236.53	32.7073
2236.77	32.7089
2237	30.8288
2237.24	36.4739
2237.48	33.6598
2237.72	32.7256
2237.95	35.5621
2238.19	25.2166
2238.43	26.1681
2238.67	36.5422
2238.9	29.9525
2239.14	31.8473
2239.38	33.7454
2239.61	38.4646
2239.85	31.8575
2240.09	37.5124
2240.33	32.7867
2240.56	30.8929
2240.8	36.545
2241.04	26.1866
2241.27	32.8002
2241.51	32.8021
2241.75	31.8604
2241.99	31.8626
2242.22	27.1458
2242.46	26.2041
2242.7	30.9262
2242.93	32.8179
2243.17	30.9301
2243.41	35.6488
2243.64	32.8121
2243.88	30.9193
2244.12	34.6915
2244.36	30.9155
2244.59	31.8599
2244.83	29.9768
2245.07	31.8736
2245.3	30.9418
2245.54	35.6774
2245.78	30.9598
2246.01	36.6376
2246.25	32.863
2246.49	36.6524
2246.72	33.8207
2246.96	32.8778
2247.2	27.2055
2247.43	33.8335
2247.67	32.8903
2247.91	34.7845
2248.14	33.8373
2248.38	31.9425
2248.62	31.9402
2248.85	33.8306
2249.09	35.721
2249.33	38.5574
2249.56	33.8246
2249.8	32.8839
2250.04	32.8877
2250.27	30.9941
2250.51	32.8827
2250.75	29.0913
2250.98	31.923
2251.22	28.132
2251.46	32.8546
2251.69	32.8496
2251.93	30.9566
2252.17	32.8485
2252.4	29.0695
2252.64	32.8567
2252.88	31.9171
2253.11	32.8733
2253.35	29.1038
2253.59	31.956
2253.82	31.9653
2254.06	31.0249
2254.3	32.926
2254.53	31.9841
2254.77	32.9364
2255.01	34.8331
2255.24	32.9333
2255.48	34.8309
2255.72	31.0382
2255.95	31.0391
2256.19	29.1437
2256.42	31.9936
2256.66	33.8967
2256.9	32.9535
2257.13	31.0607
2257.37	31.0657
2257.61	31.0705
2257.84	29.1762
2258.08	33.9269
2258.32	31.0797
2258.55	32.9801
2258.79	32.9821
2259.02	32.0351
2259.26	32.9894
2259.5	30.1438
2259.73	30.1464
2259.97	34.9002
2260.2	33.9536
2260.44	31.1054
2260.68	32.0588
2260.91	34.9137
2261.15	31.1154
2261.39	31.125
2261.62	31.1314
2261.86	33.987
2262.1	30.1827
2262.33	32.0882
2262.57	29.2356
2262.8	31.1431
2263.04	28.2933
2263.28	34.9652
2263.51	32.1167
2263.75	32.1263
2263.98	31.1842
2264.22	31.1963
2264.46	33.1157
2264.69	28.3556
2264.93	31.2273
2265.16	27.4154
2265.4	34.1058
2265.64	29.3357
2265.87	33.1573
2266.11	31.2479
2266.34	30.29
2266.58	29.3281
2266.81	34.0947
2267.05	30.2679
2267.29	32.1696
2267.52	34.0723
2267.76	27.3887
2267.99	35.0153
2268.23	31.1925
2268.47	32.1405
2268.7	31.1848
2268.94	33.0926
2269.17	36.9115
2269.41	35.0114
2269.65	33.1122
2269.88	30.2582
2270.12	30.267
2270.35	27.4122
2270.59	36.9741
2270.82	35.0699
2271.06	31.2514
2271.3	31.258
2271.53	30.3073
2271.77	33.1795
2272	26.4895
2272.24	30.3204
2272.47	33.1932
2272.71	31.2804
2272.95	32.2383
2273.18	31.283
2273.42	32.2414
2273.65	35.1136
2273.89	30.3305
2274.12	33.203
2274.36	30.3332
2274.6	35.12
2274.83	34.1644
2275.07	32.2516
2275.3	29.3817
2275.54	30.3404
2275.77	29.3847
2276.01	34.1706
2276.24	26.5148
2276.48	29.3943
2276.72	33.2337
2276.95	27.4911
2277.18	31.3303
2277.42	32.2958
2277.66	29.4291
2277.89	35.1964
2278.13	31.3708
2278.36	33.3044
2278.6	32.3489
2278.83	30.4302
2279.07	34.2721
2279.3	31.3893
2279.54	29.4662
2279.78	34.2617
2280.01	32.3264
2280.24	32.3167
2280.48	30.3892
2280.72	32.2999
2280.95	28.4579
2281.19	31.3296
2281.42	33.2435
2281.66	32.2805
2281.89	27.485
2282.13	32.2805
2282.36	31.324
2282.6	28.4519
2282.83	25.5804
2283.07	33.2597
2283.3	30.3889
2283.54	34.2361
2283.77	34.2495
2284.01	27.5414
2284.24	31.3967
2284.48	34.2955
2284.71	33.3428
2284.95	28.5374
2285.19	31.43
2285.42	33.3613
2285.65	33.3637
2285.89	31.4396
2286.12	31.4326
2286.36	33.3441
2286.59	28.5337
2286.83	33.345
2287.06	31.4261
2287.3	30.4781
2287.54	30.4898
2287.77	30.4942
2288	32.4236
2288.24	28.5785
2288.47	33.393
2288.71	33.3877
2288.94	32.4193
2289.18	34.3391
2289.41	35.2909
2289.65	32.3906
2289.88	33.3411
2290.12	33.327
2290.35	32.3605
2290.59	28.5117
2290.82	33.3182
2291.06	31.3959
2291.29	33.3233
2291.53	32.3701
2291.76	28.5323
2292	33.3502
2292.23	28.5432
2292.47	29.5106
2292.7	31.4418
2292.94	34.3384
2293.17	38.1992
2293.41	29.5341
2293.64	33.3929
2293.88	31.4688
2294.11	33.3981
2294.34	33.3954
2294.58	30.5001
2294.81	32.4221
2295.05	32.4157
2295.28	33.374
2295.52	30.4798
2295.75	30.4752
2295.99	33.3591
2296.22	32.3922
2296.46	28.5343
2296.69	30.4465
2296.93	26.5962
2297.16	29.4846
2297.39	31.4131
2297.63	29.4937
2297.86	32.3883
2298.1	32.3972
2298.33	28.5548
2298.57	28.5608
2298.8	37.2378
2299.04	29.5339
2299.27	30.5054
2299.51	31.4761
2299.74	31.4815
2299.97	31.4843
2300.21	30.519
2300.44	34.3774
2300.68	32.4471
2300.91	30.5211
2301.15	29.5612
2301.38	32.4599
2301.61	29.5678
2301.85	30.5348
2302.08	28.6047
2302.32	30.534
2302.55	27.6354
2302.79	36.3192
2303.02	32.4593
2303.25	35.3537
2303.49	27.6308
2303.72	30.5253
2303.96	36.3161
2304.19	30.5283
2304.43	31.4986
2304.66	33.4345
2304.89	35.3693
2305.13	35.3742
2305.36	36.3467
2305.6	31.5201
2305.83	35.386
2306.07	32.49
2306.3	34.4266
2306.53	33.4642
2306.77	29.5992
2307	32.4992
2307.24	30.5654
2307.47	28.631
2307.7	31.5274
2307.94	30.5568
2308.17	35.3856
2308.41	32.4835
2308.64	33.4466
2308.87	29.5818
2309.11	30.549
2309.34	31.5197
2309.58	32.4913
2309.81	29.599
2310.04	33.4763
2310.28	30.5815
2310.51	34.4537
2310.75	28.65
2310.98	32.5184
2311.21	28.6455
2311.45	34.4409
2311.68	33.4543
2311.92	32.4665
2312.15	32.4546
2312.38	33.4114
2312.62	30.5107
2312.85	32.435
2313.08	37.2549
2313.32	31.4648
2313.55	29.5382
2313.79	29.5469
2314.02	29.5582
2314.25	27.6347
2314.49	30.5414
2314.72	35.3834
2314.95	32.4957
2315.19	32.5065
2315.42	32.5118
2315.66	33.4701
2315.89	33.4614
2316.12	34.4211
2316.36	32.4784
2316.59	33.4263
2316.82	33.4164
2317.06	36.3081
2317.29	35.3415
2317.52	31.4806
2317.76	32.4478
2317.99	33.4221
2318.23	32.4617
2318.46	37.2794
2318.69	33.4103
2318.93	33.4055
2319.16	31.4691
2319.39	35.3244
2319.63	31.4585
2319.86	32.4197
2320.09	32.417
2320.33	34.3467
2320.56	32.4175
2320.79	33.3819
2321.03	31.4547
2321.26	32.4244
2321.5	36.291
2321.73	34.3665
2321.96	38.2368
2322.2	34.3833
2322.43	42.1248
2322.66	38.2691
2322.9	40.2062
2323.13	36.3373
2323.36	41.1724
2323.6	34.4075
2323.83	37.3099
2324.06	43.114
2324.3	42.1481
2324.53	42.146
2324.76	44.0776
2325	44.0665
2325.23	51.7836
2325.46	54.6628
2325.7	51.7523
2325.93	56.57
2326.16	64.282
2326.4	77.782
2326.63	80.6602
2326.86	107.658
2327.09	141.396
2327.33	179.942
2327.56	232.933
2327.79	301.347
2328.03	339.853
2328.26	304.154
2328.49	274.291
2328.73	192.365
2328.96	138.393
2329.19	109.454
2329.43	89.1984
2329.66	76.652
2329.89	67.976
2330.13	56.4151
2330.36	46.7897
2330.59	52.5653
2330.82	49.6713
2331.06	44.8512
2331.29	39.0713
2331.52	38.1106
2331.76	37.1527
2331.99	38.122
2332.22	35.2401
2332.46	35.2301
2332.69	36.1859
2332.92	36.1802
2333.16	35.212
2333.39	33.2814
2333.62	35.2021
2333.85	31.3476
2334.09	33.2692
2334.32	35.1889
2334.55	38.0692
2334.79	34.2111
2335.02	34.2056
2335.25	34.2017
2335.48	33.2385
2335.72	35.1595
2335.95	34.1989
2336.18	31.3158
2336.41	35.1613
2336.65	34.1956
2336.88	36.1161
2337.11	30.3451
2337.34	32.2666
2337.58	33.226
2337.81	35.1471
2338.04	30.3371
2338.28	34.1797
2338.51	34.1778
2338.74	34.1758
2338.97	36.0967
2339.21	31.2918
2339.44	27.4474
2339.67	33.2142
2339.91	32.2516
2340.14	27.4431
2340.37	30.3223
2340.6	28.3951
2340.84	36.0752
2341.07	28.3831
2341.3	31.2553
2341.53	37.9641
2341.77	30.273
2342	37.9378
2342.23	35.0533
2342.46	33.1292
2342.7	35.0413
2342.93	32.161
2343.16	32.1587
2343.39	37.9093
2343.63	28.3233
2343.86	36.9487
2344.09	33.1128
2344.32	32.1543
2344.56	35.0321
2344.79	34.0743
2345.02	29.2798
2345.25	32.1533
2345.49	35.0249
2345.72	37.8939
2345.95	34.0512
2346.18	33.0867
2346.41	34.0378
2346.65	34.0349
2346.88	34.9903
2347.11	33.0731
2347.34	33.0698
2347.58	34.9816
2347.81	30.1936
2348.04	30.194
2348.27	33.068
2348.5	34.0292
2348.74	34.0317
2348.97	34.9889
2349.2	34.0276
2349.43	27.3195
2349.67	34.0067
2349.9	31.1218
2350.13	33.018
2350.36	36.8201
2350.59	32.0183
2350.83	33.8833
2351.06	30.9558
2351.29	31.958
2351.52	31.1117
2351.75	36.8883
2351.99	38.7228
2352.22	33.9071
2352.45	31.0464
2352.68	32.9591
2352.91	30.0765
2353.15	31.9548
2353.38	30.0267
2353.61	35.7504
2353.84	32.889
2354.07	33.8348
2354.31	32.8824
2354.54	35.7381
2354.77	31.936
2355	30.9904
2355.23	32.8949
2355.47	29.0811
2355.7	33.8419
2355.93	34.7909
2356.16	29.0712
2356.39	30.9705
2356.63	34.7685
2356.86	34.7515
2357.09	31.8841
2357.32	38.5346
2357.55	31.8713
2357.79	36.6194
2358.02	25.2062
2358.25	31.8556
2358.48	32.8023
2358.71	34.7
2358.94	32.7918
2359.18	33.7381
2359.41	25.1858
2359.64	30.8833
2359.87	30.8792
2360.1	31.8231
2360.33	34.6641
2360.57	34.6557
2360.8	29.9023
2361.03	32.7413
2361.26	33.6817
2361.49	34.6213
2361.72	25.1315
2361.96	33.6553
2362.19	30.8033
2362.42	33.6362
2362.65	35.5211
2362.88	32.672
2363.11	33.6116
2363.34	31.7122
2363.58	32.6532
2363.81	37.3803
2364.04	32.6449
2364.27	34.5328
2364.5	34.5274
2364.73	31.6844
2364.97	30.7337
