#Acq. time (s)=	30
#Accumulations=	2
#Range (cm-¹)=	1200...2365
#Windows=	3
#Auto scanning=	Off
#Autofocus=	Off
#Macrospot=	Off
#AutoExposure=	Off
#Spike filter=	Multiple accum.
#Delay time (s)=	2
#Binning=	1
#Readout mode=	Signal
#DeNoise=	Off
#ICS correction=	On
#Dark correction=	Off
#Inst. Process=	Off
#Detector Gain=	Best Dynamic
#Detector ADC=	50 kHz HS
#Detector temperature (°C)=	-60.09
#Instrument=	LabRAM HR Evol
#Detector=	SIN-EM FIVIS
#Objective=	x100_VIS_LWD
#Grating=	1800 (450-850nm)
#ND Filter=	100%
#Laser=	532nm_Edge
#Hole=	100.021
#Temperature=	0
#Range=	Visible
#StageXY=	75x50mm Scan+
#StageZ=	Z motor
#X (µm)=	0
#Y (µm)=	0
#Z (µm)=	-43.7
#Full time(mm:ss)=	3:22
#Project=	21_11_26
#Sample=	BU19(2)w
#Site=	
#Title=	BU19(2)w-A-FF2-FI03-V_1800 (450-850nm)_532nm_Edge_100%_x100_VIS_LWD_H100um_30sX2
#Remark=	
#Date=	26.11.2021 15:16
#Acquired=	26.11.2021 15:16:39
1202.72	358.652
1203	340.835
1203.28	330.149
1203.56	317.005
1203.84	349.011
1204.11	332.686
1204.39	331.454
1204.67	348.643
1204.95	336.831
1205.23	343.188
1205.5	317.242
1205.78	337.492
1206.06	335.16
1206.34	334.972
1206.61	336.934
1206.89	332.46
1207.17	325.846
1207.45	333.191
1207.73	320.228
1208	326.548
1208.28	339.313
1208.56	324.233
1208.84	324.109
1209.11	316.506
1209.39	328.16
1209.67	336.646
1209.95	334.467
1210.23	317.306
1210.5	330.04
1210.78	329.875
1211.06	320.104
1211.34	333.853
1211.61	328.363
1211.89	321.837
1212.17	320.614
1212.45	321.53
1212.72	316.086
1213	313.836
1213.28	330.757
1213.56	329.598
1213.83	330.594
1214.11	327.303
1214.39	331.55
1214.67	342.182
1214.94	326.189
1215.22	338.935
1215.5	319.732
1215.78	310.107
1216.05	340.925
1216.33	302.499
1216.61	323.64
1216.89	338.36
1217.16	320.127
1217.44	308.313
1217.72	333.692
1218	314.452
1218.27	333.463
1218.55	315.316
1218.83	347.061
1219.1	324.708
1219.38	306.62
1219.66	322.479
1219.94	338.324
1220.21	325.509
1220.49	319.107
1220.77	307.414
1221.04	320.097
1221.32	331.702
1221.6	325.254
1221.88	319.868
1222.15	311.269
1222.43	324.892
1222.71	321.539
1222.98	327.7
1223.26	332.805
1223.54	315.708
1223.81	314.492
1224.09	315.411
1224.37	329.002
1224.65	326.782
1224.92	319.301
1225.2	316.064
1225.48	331.861
1225.76	313.928
1226.03	335.051
1226.31	327.676
1226.59	319.183
1226.86	323.356
1227.14	332.768
1227.42	328.461
1227.69	325.099
1227.97	330.026
1228.25	310.84
1228.52	328.529
1228.8	312.413
1229.08	319.502
1229.35	305.789
1229.63	326.538
1229.91	311.376
1230.18	321.599
1230.46	319.159
1230.74	320.07
1231.01	331.665
1231.29	316.703
1231.57	322.353
1231.84	333.944
1232.12	327.605
1232.4	308.653
1232.67	319.095
1232.95	315.908
1233.23	332.672
1233.5	321.057
1233.78	323.122
1234.06	309.456
1234.33	314.71
1234.61	310.512
1234.89	309.48
1235.16	308.453
1235.44	315.809
1235.71	308.453
1235.99	310.567
1236.27	312.668
1236.54	334.715
1236.82	328.338
1237.1	315.646
1237.37	314.498
1237.65	318.566
1237.93	315.273
1238.2	310.933
1238.48	326.533
1238.76	313.799
1239.03	303.196
1239.31	319.893
1239.58	322.967
1239.86	327.099
1240.14	321.809
1240.41	307.096
1240.69	315.453
1240.97	324.868
1241.24	302.845
1241.52	321.699
1241.79	324.787
1242.07	334.132
1242.35	323.587
1242.62	318.326
1242.9	299.455
1243.18	314.145
1243.45	306.822
1243.73	321.466
1244	315.152
1244.28	304.663
1244.56	317.212
1244.83	314.019
1245.11	316.057
1245.39	319.104
1245.66	308.519
1245.94	320.951
1246.21	316.628
1246.49	313.415
1246.76	331.157
1247.04	299.73
1247.32	321.678
1247.59	305.924
1247.87	315.31
1248.14	315.248
1248.42	334.978
1248.7	311.875
1248.97	320.199
1249.25	320.192
1249.52	298.223
1249.8	330.599
1250.08	320.102
1250.35	335.767
1250.63	321.029
1250.9	307.328
1251.18	321.863
1251.45	329.087
1251.73	333.18
1252.01	303.846
1252.28	321.517
1252.56	309.944
1252.83	301.506
1253.11	335.859
1253.39	304.459
1253.66	332.576
1253.94	320.028
1254.21	328.402
1254.49	321.131
1254.76	323.263
1255.04	319.087
1255.31	305.485
1255.59	303.394
1255.87	324.252
1256.14	316.899
1256.42	322.108
1256.69	316.885
1256.97	331.528
1257.24	308.537
1257.52	335.651
1257.79	329.309
1258.07	332.385
1258.35	309.36
1258.62	337.497
1258.9	309.244
1259.17	315.405
1259.45	332.069
1259.72	327.906
1260	308.092
1260.27	317.594
1260.55	321.66
1260.82	324.686
1261.1	318.279
1261.37	331.735
1261.65	332.696
1261.92	342.105
1262.2	342.387
1262.48	373.136
1262.75	362.885
1263.02	355.989
1263.3	372.218
1263.58	374.103
1263.85	366.098
1264.13	364.266
1264.4	338.449
1264.68	342.779
1264.95	340.442
1265.23	334.059
1265.5	325.67
1265.78	332.93
1266.05	330.751
1266.33	326.543
1266.6	307.731
1266.88	323.422
1267.15	316.14
1267.43	322.46
1267.7	326.704
1267.98	324.682
1268.25	319.532
1268.53	334.306
1268.8	314.504
1269.08	348.06
1269.35	323.994
1269.63	320.865
1269.9	318.723
1270.18	327.005
1270.45	320.593
1270.73	333.06
1271	325.624
1271.28	330.772
1271.55	315.025
1271.83	318.095
1272.1	319.139
1272.38	326.513
1272.65	315.064
1272.93	330.871
1273.2	322.551
1273.47	326.802
1273.75	321.623
1274.03	316.44
1274.3	337.473
1274.57	322.819
1274.85	338.542
1275.12	310.18
1275.4	323.79
1275.67	345.829
1275.95	328.024
1276.22	310.216
1276.5	327.06
1276.77	322.894
1277.05	323.981
1277.32	325.051
1277.6	318.803
1277.87	320.957
1278.14	334.671
1278.42	341.019
1278.69	333.698
1278.97	343.233
1279.24	344.315
1279.52	343.294
1279.79	334.832
1280.07	352.66
1280.34	352.59
1280.61	369.376
1280.89	360.965
1281.16	394.634
1281.44	422.063
1281.71	456.902
1281.99	519.044
1282.26	568.478
1282.53	690.619
1282.81	788.585
1283.08	929.48
1283.36	1036.31
1283.63	1059.55
1283.91	1019.2
1284.18	834.21
1284.45	729.494
1284.73	589.818
1285	504.547
1285.28	418.106
1285.55	396.809
1285.83	372.428
1286.1	362.933
1286.37	336.659
1286.65	341.895
1286.92	330.221
1287.2	324.926
1287.47	337.512
1287.75	332.172
1288.02	340.505
1288.29	347.807
1288.57	337.253
1288.84	325.66
1289.12	320.395
1289.39	337.259
1289.66	320.449
1289.94	320.483
1290.21	321.579
1290.49	337.41
1290.76	324.741
1291.03	318.359
1291.31	324.633
1291.58	319.335
1291.86	322.465
1292.13	328.745
1292.4	300.285
1292.68	305.545
1292.95	318.138
1293.22	301.236
1293.5	319.13
1293.77	326.584
1294.05	315.103
1294.32	337.356
1294.59	309.952
1294.87	308.872
1295.14	324.64
1295.42	318.346
1295.69	315.292
1295.96	319.665
1296.24	307.196
1296.51	312.585
1296.79	317.877
1297.06	309.403
1297.33	308.286
1297.61	308.204
1297.88	316.565
1298.15	315.409
1298.43	302.625
1298.7	305.803
1298.97	309.976
1299.25	310.953
1299.52	300.326
1299.79	298.138
1300.07	316.053
1300.34	321.362
1300.62	319.258
1300.89	307.626
1301.16	314.976
1301.44	310.714
1301.71	313.871
1301.98	306.507
1302.25	300.193
1302.53	312.868
1302.8	324.471
1303.08	307.539
1303.35	311.717
1303.62	306.375
1303.9	291.508
1304.17	299.919
1304.44	307.291
1304.72	307.265
1304.99	323.074
1305.26	306.114
1305.54	301.809
1305.81	310.155
1306.08	314.278
1306.35	286.745
1306.63	308.809
1306.9	300.318
1307.18	318.218
1307.45	306.619
1307.72	325.588
1308	315.009
1308.27	311.816
1308.54	300.205
1308.81	312.816
1309.09	322.3
1309.36	305.447
1309.63	314.961
1309.91	305.485
1310.18	309.709
1310.45	313.896
1310.73	318.07
1311	308.546
1311.27	299.036
1311.55	303.247
1311.82	309.568
1312.09	316.956
1312.37	321.209
1312.64	318.063
1312.91	314.892
1313.18	306.404
1313.46	297.882
1313.73	315.792
1314	316.791
1314.28	307.241
1314.55	302.992
1314.82	311.429
1315.09	307.212
1315.37	322.007
1315.64	320.964
1315.91	288.242
1316.18	314.661
1316.46	329.408
1316.73	312.461
1317	317.702
1317.28	306.05
1317.55	315.527
1317.82	301.817
1318.09	306.046
1318.37	310.265
1318.64	300.744
1318.91	293.33
1319.18	298.587
1319.46	289.043
1319.73	303.794
1320	307.982
1320.28	293.187
1320.55	307.955
1320.82	304.741
1321.09	294.107
1321.37	298.236
1321.64	307.624
1321.91	320.162
1322.18	288.42
1322.46	305.187
1322.73	323.049
1323	310.321
1323.27	302.865
1323.55	296.452
1323.82	289.081
1324.09	316.483
1324.36	305.917
1324.64	300.609
1324.91	297.424
1325.18	316.368
1325.45	297.382
1325.73	300.439
1326	309.756
1326.27	296.907
1326.54	311.396
1326.81	298.65
1327.09	302.808
1327.36	306.043
1327.63	311.491
1327.9	299.99
1328.18	313.773
1328.45	320.197
1328.72	315.027
1328.99	290.84
1329.27	301.392
1329.54	322.426
1329.81	303.444
1330.08	326.614
1330.35	307.571
1330.63	305.394
1330.9	294.763
1331.17	291.501
1331.44	293.492
1331.71	301.776
1331.99	301.612
1332.26	309.9
1332.53	304.522
1332.8	326.496
1333.07	294.797
1333.35	300.97
1333.62	297.688
1333.89	311.228
1334.16	299.553
1334.43	316.245
1334.71	300.382
1334.98	293.981
1335.25	304.385
1335.52	298.001
1335.79	320.997
1336.07	315.667
1336.34	297.757
1336.61	302.927
1336.88	307.052
1337.15	296.505
1337.43	302.738
1337.7	304.781
1337.97	316.248
1338.24	305.662
1338.51	300.325
1338.78	293.968
1339.06	302.268
1339.33	302.207
1339.6	300.077
1339.87	295.874
1340.14	303.194
1340.42	289.561
1340.69	295.829
1340.96	301.049
1341.23	307.299
1341.5	284.22
1341.77	300.926
1342.04	302.959
1342.32	307.069
1342.59	297.553
1342.86	306.862
1343.13	310.936
1343.4	303.543
1343.67	303.492
1343.95	289.859
1344.22	294.013
1344.49	300.267
1344.76	304.424
1345.03	297.048
1345.3	302.198
1345.58	295.828
1345.85	292.569
1346.12	303.958
1346.39	298.602
1346.66	321.386
1346.93	320.209
1347.2	296.087
1347.47	302.222
1347.75	295.851
1348.02	294.725
1348.29	293.617
1348.56	301.901
1348.83	289.346
1349.1	303.86
1349.37	321.485
1349.65	292.227
1349.92	312.973
1350.19	298.31
1350.46	323.214
1350.73	320.002
1351	301.163
1351.27	294.815
1351.54	316.581
1351.81	294.632
1352.09	303.94
1352.36	313.266
1352.63	291.439
1352.9	292.518
1353.17	297.787
1353.44	301.972
1353.71	298.047
1353.98	293.097
1354.25	290.699
1354.53	303.737
1354.8	303.385
1355.07	310.667
1355.34	297.158
1355.61	310.526
1355.88	310.441
1356.15	293.901
1356.42	293.898
1356.69	299
1356.96	297.903
1357.24	300.965
1357.51	312.331
1357.78	303.955
1358.05	303.878
1358.32	305.873
1358.59	299.561
1358.86	300.519
1359.13	297.316
1359.4	312.788
1359.67	316.863
1359.94	295.017
1360.22	310.461
1360.49	308.265
1360.76	306.076
1361.03	298.738
1361.3	304.901
1361.57	316.264
1361.84	300.687
1362.11	294.428
1362.38	315.077
1362.65	300.518
1362.92	293.212
1363.19	322.165
1363.46	319.053
1363.73	299.407
1364	307.706
1364.28	313.934
1364.55	294.222
1364.82	316.963
1365.09	304.472
1365.36	295.069
1365.63	319.82
1365.9	314.539
1366.17	308.228
1366.44	308.129
1366.71	296.649
1366.98	305.838
1367.25	301.566
1367.52	301.49
1367.79	312.8
1368.06	321.085
1368.33	311.781
1368.6	329.347
1368.87	323.139
1369.15	354.148
1369.41	334.507
1369.68	302.45
1369.95	314.792
1370.23	293.019
1370.5	306.394
1370.77	302.15
1371.04	310.348
1371.31	313.361
1371.58	298.784
1371.85	327.561
1372.12	307.79
1372.39	309.703
1372.66	314.719
1372.93	328.009
1373.2	305.245
1373.47	316.513
1373.74	289.65
1374.01	307.11
1374.28	319.42
1374.55	296.703
1374.82	316.23
1375.09	312.057
1375.36	315.079
1375.63	313.005
1375.9	319.201
1376.17	312.985
1376.44	316.068
1376.71	318.016
1376.98	314.819
1377.25	315.712
1377.52	315.548
1377.79	317.621
1378.06	326.944
1378.33	323.964
1378.6	315.862
1378.87	309.833
1379.14	325.327
1379.41	317.04
1379.68	305.63
1379.95	321.018
1380.22	316.799
1380.49	331.05
1380.76	320.452
1381.03	342.903
1381.3	343.77
1381.57	320.146
1381.84	321.061
1382.11	328.072
1382.38	333.011
1382.65	345.16
1382.92	345.002
1383.19	326.367
1383.46	338.554
1383.73	342.526
1384	369.095
1384.27	373.114
1384.54	375.151
1384.81	379.26
1385.08	418.275
1385.34	472.736
1385.61	523.185
1385.88	634.162
1386.15	778.018
1386.42	1117.98
1386.69	1458.15
1386.96	1812.63
1387.23	1924.54
1387.5	1614.04
1387.77	1152.99
1388.04	804.319
1388.31	609.63
1388.58	492.666
1388.85	438.089
1389.12	400.652
1389.39	371.113
1389.66	348.528
1389.93	351.625
1390.2	355.581
1390.46	328.594
1390.73	322.289
1391	325.326
1391.27	311.836
1391.54	327.154
1391.81	319.923
1392.08	312.647
1392.35	318.681
1392.62	317.556
1392.89	332.831
1393.16	311.257
1393.43	315.288
1393.7	299.875
1393.97	306.983
1394.23	304.883
1394.5	308.928
1394.77	305.811
1395.04	292.47
1395.31	307.827
1395.58	325.254
1395.85	307.867
1396.12	293.525
1396.39	303.725
1396.66	294.46
1396.93	294.396
1397.2	328.098
1397.46	308.568
1397.73	293.138
1398	305.356
1398.27	291.006
1398.54	313.504
1398.81	317.609
1399.08	285.891
1399.35	290.996
1399.62	298.185
1399.89	281.819
1400.16	304.339
1400.42	313.521
1400.69	294.092
1400.96	294.144
1401.23	304.395
1401.5	315.621
1401.77	289.007
1402.04	326.871
1402.31	297.252
1402.58	309.705
1402.84	298.597
1403.11	308.972
1403.38	321.368
1403.65	294.702
1403.92	291.599
1404.19	307.932
1404.46	300.541
1404.73	312.874
1404.99	313.845
1405.26	312.754
1405.53	313.695
1405.8	305.403
1406.07	310.447
1406.34	329.845
1406.61	301.082
1406.87	351.252
1407.14	337.919
1407.41	344.069
1407.68	343.049
1407.95	367.65
1408.22	373.798
1408.49	371.744
1408.76	381.996
1409.02	355.337
1409.29	376.883
1409.56	346.119
1409.83	315.35
1410.1	334.833
1410.37	307.111
1410.63	295.739
1410.9	309.981
1411.17	309.853
1411.44	311.801
1411.71	306.595
1411.98	301.404
1412.25	297.269
1412.51	292.164
1412.78	299.402
1413.05	302.652
1413.32	300.958
1413.59	300.1
1413.86	293.67
1414.12	309.636
1414.39	288.148
1414.66	294.485
1414.93	293.579
1415.2	300.719
1415.47	275.038
1415.73	307.867
1416	299.638
1416.27	292.451
1416.54	303.75
1416.81	298.621
1417.07	286.303
1417.34	309.941
1417.61	292.489
1417.88	291.469
1418.15	300.71
1418.42	290.415
1418.68	300.678
1418.95	267.783
1419.22	292.425
1419.49	300.628
1419.76	313.927
1420.02	307.675
1420.29	306.557
1420.56	292.092
1420.83	289.949
1421.1	283.697
1421.36	304.145
1421.63	295.879
1421.9	295.872
1422.17	299.011
1422.44	298.066
1422.7	297.12
1422.97	303.433
1423.24	295.454
1423.51	299.826
1423.77	288.772
1424.04	279.9
1424.31	302.516
1424.58	289.886
1424.85	281.667
1425.11	281.728
1425.38	284.988
1425.65	293.207
1425.92	284.934
1426.19	287.065
1426.45	297.276
1426.72	276.681
1426.99	288.884
1427.26	294.924
1427.52	285.583
1427.79	305.921
1428.06	292.476
1428.33	288.304
1428.59	275.973
1428.86	276.975
1429.13	271.848
1429.4	280.039
1429.67	286.193
1429.93	294.41
1430.2	282.158
1430.47	288.362
1430.74	274.052
1431	282.319
1431.27	285.504
1431.54	296.872
1431.81	282.533
1432.07	285.588
1432.34	293.716
1432.61	295.668
1432.87	289.44
1433.14	293.422
1433.41	284.053
1433.68	281.849
1433.95	254.048
1434.21	286.725
1434.48	269.261
1434.75	293.958
1435.01	266.332
1435.28	285.789
1435.55	278.592
1435.82	286.758
1436.08	303.113
1436.35	292.821
1436.62	271.259
1436.89	285.548
1437.15	277.298
1437.42	292.612
1437.69	284.383
1437.95	297.638
1438.22	273.018
1438.49	277.104
1438.76	286.343
1439.02	281.224
1439.29	291.453
1439.56	279.15
1439.82	293.518
1440.09	273.065
1440.36	275.173
1440.63	291.591
1440.89	289.534
1441.16	288.488
1441.43	293.608
1441.69	298.686
1441.96	294.506
1442.23	280.1
1442.49	276.035
1442.76	290.374
1443.03	278.103
1443.3	295.474
1443.56	300.521
1443.83	290.197
1444.1	274.764
1444.36	287.029
1444.63	277.796
1444.9	286.06
1445.16	293.29
1445.43	280.027
1445.7	287.158
1445.97	290.181
1446.23	294.233
1446.5	278.795
1446.77	285.926
1447.03	289.979
1447.3	287.878
1447.57	275.517
1447.83	292.883
1448.1	287.7
1448.37	286.647
1448.63	273.346
1448.9	281.592
1449.17	292.868
1449.43	291.812
1449.7	281.504
1449.97	278.363
1450.23	276.238
1450.5	283.339
1450.77	279.187
1451.03	277.088
1451.3	266.79
1451.57	267.764
1451.83	281.031
1452.1	291.222
1452.37	268.632
1452.63	271.667
1452.9	297.259
1453.17	276.757
1453.43	277.791
1453.7	277.794
1453.97	281.87
1454.23	277.724
1454.5	282.806
1454.77	271.508
1455.03	291.977
1455.3	287.844
1455.56	285.748
1455.83	263.187
1456.1	286.782
1456.36	265.262
1456.63	265.236
1456.9	283.633
1457.16	271.259
1457.43	280.407
1457.7	279.334
1457.96	265.971
1458.23	283.348
1458.49	284.349
1458.76	304.819
1459.03	269.98
1459.29	272.017
1459.56	300.689
1459.82	291.449
1460.09	282.19
1460.36	267.802
1460.62	262.633
1460.89	289.217
1461.16	297.351
1461.42	274.753
1461.69	276.737
1461.95	273.596
1462.22	276.592
1462.49	280.605
1462.75	291.774
1463.02	286.564
1463.28	285.444
1463.55	279.209
1463.82	281.164
1464.08	277.038
1464.35	289.378
1464.61	281.311
1464.88	275.253
1465.15	276.391
1465.41	278.182
1465.68	273.522
1465.94	279.377
1466.21	280.342
1466.48	287.555
1466.74	279.334
1467.01	277.134
1467.27	264.826
1467.54	268.909
1467.8	271.925
1468.07	275.958
1468.34	291.219
1468.6	259.566
1468.87	298.295
1469.13	272.751
1469.4	286.973
1469.67	277.731
1469.93	285.804
1470.2	258.183
1470.46	289.697
1470.73	271.285
1470.99	272.243
1471.26	270.158
1471.53	278.241
1471.79	277.136
1472.06	275.032
1472.32	277.021
1472.59	284.111
1472.85	258.62
1473.12	293.205
1473.39	264.647
1473.65	272.722
1473.92	278.759
1474.18	272.589
1474.45	274.577
1474.71	279.638
1474.98	268.444
1475.24	284.722
1475.51	285.718
1475.78	269.397
1476.04	272.397
1476.31	278.436
1476.57	280.415
1476.84	268.153
1477.1	280.287
1477.37	284.279
1477.63	272.023
1477.9	285.207
1478.16	285.172
1478.43	281.043
1478.69	302.306
1478.96	286.985
1479.22	279.798
1479.49	285.817
1479.76	280.652
1480.02	280.559
1480.29	287.578
1480.55	274.242
1480.82	268.039
1481.08	275.058
1481.35	269.931
1481.61	286.086
1481.88	298.262
1482.14	279.008
1482.41	273.962
1482.67	285.164
1482.94	282.14
1483.2	268.914
1483.47	275.016
1483.73	275.01
1484	287.17
1484.26	280.024
1484.53	278.86
1484.79	273.592
1485.06	270.206
1485.32	286.985
1485.59	273.657
1485.85	274.41
1486.12	265.96
1486.38	290.338
1486.65	286.375
1486.91	262.726
1487.18	292.231
1487.44	289.213
1487.71	274.91
1487.97	274.814
1488.24	255.504
1488.5	272.645
1488.77	281.664
1489.03	279.539
1489.3	288.563
1489.56	280.407
1489.83	268.213
1490.09	278.283
1490.36	290.394
1490.62	289.351
1490.89	288.275
1491.15	260.88
1491.42	275.964
1491.68	265.798
1491.95	281.934
1492.21	268.764
1492.48	275.827
1492.74	278.824
1493	277.77
1493.27	288.853
1493.53	273.662
1493.8	269.571
1494.06	281.663
1494.33	272.543
1494.59	282.645
1494.86	283.655
1495.12	268.452
1495.39	276.464
1495.65	270.286
1495.92	272.173
1496.18	269.03
1496.45	260.872
1496.71	284.026
1496.97	267.81
1497.24	285.91
1497.5	291.936
1497.77	280.805
1498.03	293.88
1498.3	284.763
1498.56	259.509
1498.82	274.627
1499.09	282.685
1499.35	274.597
1499.62	275.599
1499.88	273.581
1500.15	289.732
1500.41	283.66
1500.68	288.679
1500.94	278.546
1501.2	295.671
1501.47	273.403
1501.73	271.3
1502	290.428
1502.26	273.237
1502.52	284.299
1502.79	274.152
1503.05	287.176
1503.32	282.044
1503.58	277.947
1503.85	265.766
1504.11	274.812
1504.37	280.865
1504.64	292.954
1504.9	286.879
1505.17	276.754
1505.43	275.687
1505.7	289.728
1505.96	286.589
1506.22	279.398
1506.49	283.38
1506.75	293.418
1507.02	275.27
1507.28	274.28
1507.54	283.334
1507.81	280.298
1508.07	263.138
1508.34	268.129
1508.6	284.208
1508.86	280.157
1509.13	293.241
1509.39	288.18
1509.66	276.057
1509.92	298.197
1510.18	287.121
1510.45	292.154
1510.71	299.12
1510.98	264.777
1511.24	284.827
1511.5	287.734
1511.77	283.553
1512.03	275.316
1512.29	300.267
1512.56	263.899
1512.82	275.804
1513.08	281.724
1513.35	272.59
1513.61	278.529
1513.88	275.465
1514.14	294.587
1514.4	287.654
1514.67	281.631
1514.93	281.569
1515.2	265.404
1515.46	282.366
1515.72	280.253
1515.99	274.112
1516.25	290.044
1516.51	282.93
1516.78	277.859
1517.04	279.813
1517.3	268.737
1517.57	276.723
1517.83	270.686
1518.09	264.665
1518.36	284.749
1518.62	263.677
1518.88	302.79
1519.15	272.69
1519.41	276.703
1519.67	273.69
1519.94	276.688
1520.2	262.609
1520.47	293.655
1520.73	265.518
1520.99	285.572
1521.26	287.583
1521.52	284.575
1521.78	279.542
1522.05	270.473
1522.31	281.455
1522.57	275.375
1522.84	256.253
1523.1	277.259
1523.36	280.19
1523.62	270.046
1523.89	299.963
1524.15	268.792
1524.41	289.737
1524.68	274.632
1524.94	281.567
1525.2	277.57
1525.47	273.552
1525.73	279.546
1525.99	270.549
1526.26	284.604
1526.52	270.632
1526.78	270.667
1527.05	288.708
1527.31	273.638
1527.57	271.564
1527.84	264.502
1528.1	290.505
1528.36	282.436
1528.63	279.366
1528.89	268.287
1529.15	289.269
1529.41	272.198
1529.68	280.179
1529.94	273.121
1530.2	289.068
1530.47	285.022
1530.73	274.008
1530.99	272.04
1531.25	271.073
1531.52	286.123
1531.78	292.116
1532.04	284.052
1532.31	284.034
1532.57	289.977
1532.83	289.988
1533.09	277.017
1533.36	269.079
1533.62	281.181
1533.88	282.202
1534.15	256.118
1534.41	274.146
1534.67	265.074
1534.94	276.058
1535.2	255.94
1535.46	275.944
1535.72	269.844
1535.99	268.665
1536.25	278.566
1536.51	266.45
1536.77	276.334
1537.04	261.179
1537.3	273.064
1537.56	275.996
1537.82	287.901
1538.09	254.87
1538.35	268.785
1538.61	275.663
1538.87	284.602
1539.14	275.548
1539.4	286.604
1539.66	254.746
1539.92	287.965
1540.19	278.083
1540.45	274.179
1540.71	284.31
1540.97	268.326
1541.24	288.39
1541.5	268.182
1541.76	295.205
1542.02	275.047
1542.29	258.914
1542.55	252.804
1542.81	259.716
1543.07	272.637
1543.34	268.538
1543.6	263.434
1543.86	279.317
1544.12	268.185
1544.39	268.172
1544.65	285.165
1544.91	279.203
1545.17	263.259
1545.43	268.302
1545.7	282.412
1545.96	291.467
1546.22	268.445
1546.48	279.471
1546.74	251.379
1547.01	275.407
1547.27	265.397
1547.53	279.433
1547.79	273.427
1548.06	271.33
1548.32	266.139
1548.58	270.117
1548.84	276.115
1549.1	281.187
1549.37	275.868
1549.63	273.523
1549.89	277.427
1550.15	274.573
1550.42	285.878
1550.68	283.324
1550.94	271.6
1551.2	269.86
1551.46	279.669
1551.73	280.678
1551.99	268.541
1552.25	275.445
1552.51	267.524
1552.77	279.673
1553.03	273.58
1553.3	283.506
1553.56	273.216
1553.82	279.159
1554.08	271.082
1554.34	265.979
1554.61	279.903
1554.87	278.769
1555.13	284.644
1555.39	276.562
1555.65	287.534
1555.91	279.491
1556.18	283.491
1556.44	284.47
1556.7	279.386
1556.96	279.363
1557.22	259.322
1557.48	282.353
1557.75	278.325
1558.01	274.274
1558.27	273.189
1558.53	269.061
1558.79	263.953
1559.06	280.837
1559.32	265.709
1559.58	291.604
1559.84	275.509
1560.1	275.427
1560.36	262.362
1560.63	286.291
1560.89	268.25
1561.15	280.197
1561.41	278.168
1561.67	278.163
1561.93	280.192
1562.19	279.252
1562.46	270.317
1562.72	269.292
1562.98	281.252
1563.24	275.2
1563.5	279.188
1563.76	267.131
1564.02	268.086
1564.29	274.166
1564.55	273.258
1564.81	288.281
1565.07	273.221
1565.33	300.026
1565.59	264.469
1565.85	261.727
1566.11	277.243
1566.38	271.506
1566.64	271.847
1566.9	277.661
1567.16	285.419
1567.42	279.654
1567.68	281.907
1567.94	290.81
1568.2	277.56
1568.47	269.573
1568.73	291.586
1568.99	270.583
1569.25	275.526
1569.51	269.388
1569.77	262.301
1570.03	254.282
1570.29	265.271
1570.55	256.256
1570.82	296.21
1571.08	271.191
1571.34	280.145
1571.6	255.108
1571.86	280.013
1572.12	275.934
1572.38	273.899
1572.64	277.828
1572.9	270.751
1573.17	262.691
1573.43	272.605
1573.69	281.51
1573.95	272.457
1574.21	270.44
1574.47	263.481
1574.73	287.485
1574.99	268.56
1575.25	285.592
1575.51	258.665
1575.78	277.679
1576.04	276.667
1576.3	265.625
1576.56	268.59
1576.82	288.512
1577.08	267.407
1577.34	285.237
1577.6	280.103
1577.86	269.989
1578.12	265.875
1578.38	276.727
1578.64	282.624
1578.9	279.587
1579.17	295.508
1579.43	280.524
1579.69	283.491
1579.95	269.524
1580.21	275.524
1580.47	282.5
1580.73	263.531
1580.99	276.455
1581.25	267.419
1581.51	294.26
1581.77	269.27
1582.03	268.185
1582.29	285.031
1582.55	289.961
1582.81	270.983
1583.07	272.924
1583.33	267.899
1583.59	258.898
1583.85	275.796
1584.11	274.741
1584.38	264.754
1584.64	259.773
1584.9	268.73
1585.16	284.653
1585.42	268.685
1585.68	279.598
1585.94	272.59
1586.2	277.513
1586.46	293.344
1586.72	269.344
1586.98	268.267
1587.24	275.165
1587.5	286.05
1587.76	275.051
1588.02	290.927
1588.28	266.029
1588.54	273.986
1588.8	280.96
1589.06	282.97
1589.32	268.051
1589.58	274.036
1589.84	288.971
1590.1	270.039
1590.36	274.989
1590.62	273.991
1590.88	273.004
1591.14	259.063
1591.4	288.903
1591.66	260.989
1591.92	279.862
1592.18	268.85
1592.44	263.777
1592.7	272.611
1592.96	264.552
1593.22	271.442
1593.48	271.302
1593.74	285.068
1594	289.876
1594.26	266.917
1594.52	279.761
1594.78	277.747
1595.04	255.903
1595.3	287.729
1595.56	259.922
1595.82	284.737
1596.08	283.57
1596.34	271.617
1596.6	274.569
1596.86	271.565
1597.12	276.516
1597.38	280.483
1597.64	265.583
1597.9	280.484
1598.16	277.468
1598.42	273.438
1598.68	276.334
1598.94	277.215
1599.2	257.257
1599.46	290.92
1599.72	290.837
1599.98	281.825
1600.24	272.815
1600.5	283.647
1600.76	294.466
1601.02	270.563
1601.28	277.377
1601.54	269.319
1601.8	287.021
1602.06	266.112
1602.32	287.801
1602.58	264.945
1602.84	268.811
1603.1	272.666
1603.36	270.592
1603.62	269.518
1603.88	272.418
1604.14	275.331
1604.4	279.251
1604.66	278.241
1604.92	274.267
1605.17	291.053
1605.43	287.077
1605.69	280.14
1605.95	269.261
1606.21	281.137
1606.47	286.098
1606.73	274.241
1606.99	263.363
1607.25	280.204
1607.51	286.096
1607.77	261.878
1608.03	291.663
1608.29	281.445
1608.55	283.727
1608.81	276.655
1609.07	278.483
1609.32	283.338
1609.58	273.704
1609.84	284.193
1610.1	287.773
1610.36	285.276
1610.62	266.242
1610.88	272.559
1611.14	286.518
1611.4	278.179
1611.66	264.044
1611.92	256.555
1612.18	284.831
1612.44	290.243
1612.69	287.202
1612.95	275.716
1613.21	268.699
1613.47	277.04
1613.73	279.941
1613.99	281.116
1614.25	274.577
1614.51	266.092
1614.77	267.286
1615.03	262.184
1615.29	277.886
1615.54	290.69
1615.8	271.57
1616.06	265.555
1616.32	284.539
1616.58	265.801
1616.84	276.788
1617.1	277.597
1617.36	281.324
1617.62	271.771
1617.88	279.877
1618.13	282.062
1618.39	283.276
1618.65	278.045
1618.91	278.251
1619.17	266.15
1619.43	274.649
1619.69	278.487
1619.95	285.184
1620.2	271.041
1620.46	273.434
1620.72	269.538
1620.98	272.182
1621.24	267.007
1621.5	271.745
1621.76	277.191
1622.02	275.379
1622.27	268.479
1622.53	269.208
1622.79	281.29
1623.05	272.165
1623.31	266.926
1623.57	277.509
1623.83	272.859
1624.09	270.172
1624.34	276.197
1624.6	278.73
1624.86	282.041
1625.12	273.266
1625.38	278.53
1625.64	279.43
1625.9	274.058
1626.15	279.602
1626.41	284.708
1626.67	282.795
1626.93	272.713
1627.19	265.087
1627.45	268.395
1627.7	269.352
1627.96	269.698
1628.22	271.473
1628.48	269.697
1628.74	266.222
1629	275.968
1629.26	277.282
1629.51	277.381
1629.77	275.859
1630.03	274.514
1630.29	272.227
1630.55	268.724
1630.81	270.983
1631.06	267.333
1631.32	263.289
1631.53	256.289
1631.79	269.103
1632.05	265.179
1632.31	271.106
1632.57	284.859
1632.84	284.905
1633.1	269.231
1633.36	271.082
1633.62	260.081
1633.88	281.7
1634.14	268.897
1634.4	268.908
1634.66	266.92
1634.93	277.74
1635.19	278.692
1635.45	260.91
1635.71	277.62
1635.97	267.714
1636.23	261.746
1636.49	277.45
1636.75	276.402
1637.02	261.561
1637.28	262.477
1637.54	271.264
1637.8	259.395
1638.06	270.187
1638.32	276.041
1638.58	271.062
1638.84	266.091
1639.1	273.939
1639.37	270.957
1639.63	281.752
1639.89	266.956
1640.15	278.734
1640.41	283.616
1640.67	280.641
1640.93	276.724
1641.19	262.944
1641.46	274.741
1641.72	279.616
1641.98	262.82
1642.24	274.587
1642.5	262.73
1642.76	270.564
1643.02	272.492
1643.28	265.563
1643.54	267.496
1643.8	275.333
1644.06	275.282
1644.33	267.351
1644.59	282.04
1644.85	275.088
1645.11	280.952
1645.37	272.088
1645.63	274.061
1645.89	268.147
1646.15	253.359
1646.41	270.033
1646.67	274.892
1646.93	274.834
1647.19	267.901
1647.46	271.78
1647.72	267.787
1647.98	264.784
1648.24	273.599
1648.5	272.596
1648.76	275.562
1649.02	271.648
1649.28	274.701
1649.54	263.893
1649.8	272.695
1650.06	287.401
1650.32	280.479
1650.58	272.652
1650.85	272.685
1651.11	272.703
1651.37	285.532
1651.63	277.654
1651.89	267.785
1652.15	280.567
1652.41	264.771
1652.67	272.635
1652.93	271.594
1653.19	275.474
1653.45	282.326
1653.71	264.563
1653.97	256.662
1654.23	271.438
1654.49	266.498
1654.75	268.449
1655.01	277.307
1655.27	262.525
1655.53	274.377
1655.8	277.382
1656.06	258.702
1656.32	260.705
1656.57	294.272
1656.84	265.642
1657.1	258.714
1657.36	280.393
1657.62	273.431
1657.88	273.372
1658.14	271.352
1658.4	269.329
1658.66	267.298
1658.92	257.367
1659.18	276.042
1659.44	269.069
1659.7	268.016
1659.96	260.06
1660.22	258.004
1660.48	266.867
1660.74	260.954
1661	269.838
1661.26	261.964
1661.52	269.873
1661.78	264.963
1662.04	265.941
1662.3	265.931
1662.56	250.88
1662.82	269.083
1663.08	274.266
1663.34	268.161
1663.6	272.055
1663.86	278.875
1664.12	249.703
1664.38	267.69
1664.64	252.914
1664.9	264.754
1665.16	278.68
1665.42	264.872
1665.68	273.451
1665.94	258.386
1666.2	269.866
1666.46	269.892
1666.72	270.824
1666.98	264.507
1667.24	238.101
1667.5	272.303
1667.76	250.503
1668.02	244.512
1668.28	251.365
1668.54	264.12
1668.8	269.029
1669.06	271.09
1669.32	256.393
1669.58	279.108
1669.84	266.243
1670.1	255.357
1670.36	272.092
1670.62	277.989
1670.88	260.309
1671.14	251.466
1671.4	268.215
1671.66	262.235
1671.92	256.264
1672.18	267.117
1672.44	258.213
1672.69	269.065
1672.95	264.091
1673.21	263.071
1673.47	257.117
1673.73	268.961
1673.99	264.994
1674.25	254.114
1674.51	261.04
1674.77	247.194
1675.03	260.054
1675.29	261.061
1675.55	261.069
1675.81	264.03
1676.07	265.983
1676.33	266.939
1676.59	253.062
1676.85	261.953
1677.11	270.837
1677.37	260.906
1677.63	257.893
1677.89	251.903
1678.14	263.712
1678.4	267.59
1678.66	272.449
1678.92	263.472
1679.18	254.508
1679.44	263.346
1679.7	260.329
1679.96	250.389
1680.22	250.334
1680.48	255.227
1680.74	258.136
1681	272.901
1681.26	258.028
1681.52	259.962
1681.78	248.072
1682.03	273.726
1682.29	261.84
1682.55	268.728
1682.81	258.824
1683.07	252.856
1683.33	261.71
1683.59	265.628
1683.85	249.791
1684.11	265.56
1684.37	247.733
1684.63	254.58
1684.89	270.33
1685.14	253.499
1685.4	257.41
1685.66	269.225
1685.92	250.432
1686.18	266.203
1686.44	254.328
1686.7	261.231
1686.96	250.387
1687.22	257.296
1687.48	260.236
1687.73	252.283
1687.99	262.102
1688.25	262.043
1688.51	266.927
1688.77	256.007
1689.03	269.762
1689.29	256.845
1689.55	246.903
1689.81	257.685
1690.06	261.552
1690.32	260.479
1690.58	270.295
1690.84	242.704
1691.1	255.53
1691.36	250.588
1691.62	281.16
1691.88	248.592
1692.13	259.44
1692.39	247.566
1692.65	251.47
1692.91	254.365
1693.17	253.301
1693.43	250.256
1693.69	250.161
1693.95	266.817
1694.2	253.922
1694.46	259.756
1694.72	252.777
1694.98	249.756
1695.24	243.812
1695.5	249.706
1695.76	247.718
1696.01	242.776
1696.27	269.364
1696.53	254.589
1696.79	266.408
1697.05	248.636
1697.31	264.35
1697.57	267.227
1697.82	256.296
1698.08	243.399
1698.34	253.164
1698.6	259.982
1698.86	270.736
1699.12	253.941
1699.38	248.973
1699.63	253.856
1699.89	249.903
1700.15	257.747
1700.41	249.849
1700.67	245.839
1700.92	254.652
1701.18	247.724
1701.44	256.534
1701.7	272.219
1701.96	254.443
1702.22	262.23
1702.47	255.273
1702.73	253.227
1702.99	238.411
1703.25	263.916
1703.51	257.001
1703.77	254.989
1704.02	252.97
1704.28	268.643
1704.54	253.899
1704.8	255.867
1705.06	264.688
1705.32	250.888
1705.57	249.86
1705.83	257.69
1706.09	244.886
1706.35	264.467
1706.61	271.257
1706.86	265.273
1707.12	258.306
1707.38	250.362
1707.64	248.316
1707.9	251.164
1708.16	262.825
1708.41	258.792
1708.67	258.682
1708.93	251.702
1709.19	251.592
1709.44	257.381
1709.7	262.209
1709.96	251.392
1710.22	251.357
1710.48	240.563
1710.73	257.182
1710.99	247.382
1711.25	257.18
1711.51	268.925
1711.77	247.37
1712.02	256.173
1712.28	266.921
1712.54	238.46
1712.8	262.842
1713.06	252.919
1713.31	254.74
1713.57	255.588
1713.83	247.648
1714.09	259.253
1714.34	248.429
1714.6	263.998
1714.86	259.059
1715.12	255.107
1715.38	256.049
1715.63	238.478
1715.89	255.109
1716.15	257.03
1716.41	250.14
1716.66	249.098
1716.92	250.969
1717.18	249.893
1717.44	255.633
1717.69	253.546
1717.95	235.841
1718.21	255.204
1718.47	247.284
1718.72	246.2
1718.98	258.776
1719.24	247.03
1719.5	266.467
1719.75	259.618
1720.01	268.335
1720.27	257.614
1720.53	259.541
1720.78	250.723
1721.04	249.675
1721.3	258.337
1721.56	266.036
1721.81	259.144
1722.07	243.496
1722.33	256.046
1722.59	258.867
1722.84	250.026
1723.1	247.023
1723.36	245.97
1723.62	240.071
1723.87	252.637
1724.13	255.517
1724.39	241.871
1724.64	259.305
1724.9	255.351
1725.16	263.018
1725.42	248.335
1725.67	249.188
1725.93	267.484
1726.19	256.728
1726.45	261.513
1726.7	249.872
1726.96	245.946
1727.22	248.787
1727.47	250.607
1727.73	247.665
1727.99	236.067
1728.24	247.646
1728.5	237.889
1728.76	249.389
1729.02	256.756
1729.27	255.373
1729.53	263.884
1729.79	247.591
1730.05	252.516
1730.3	259.346
1730.56	250.47
1730.82	265.818
1731.07	243.561
1731.33	241.867
1731.59	248.618
1731.84	267.922
1732.1	241.791
1732.36	239.814
1732.61	241.693
1732.87	266.758
1733.13	250.265
1733.39	249.216
1733.64	249.112
1733.9	239.333
1734.16	247.887
1734.41	239.102
1734.67	242.855
1734.93	246.603
1735.18	248.421
1735.44	251.203
1735.7	252.066
1735.95	248.133
1736.21	248.065
1736.47	260.524
1736.72	249.881
1736.98	253.667
1737.24	269.959
1737.49	251.612
1737.75	238.082
1738.01	245.716
1738.26	233.142
1738.52	251.33
1738.78	236.829
1739.03	250.204
1739.29	262.604
1739.55	252.894
1739.8	251.81
1740.06	269.902
1740.32	249.614
1740.57	243.737
1740.83	258.01
1741.09	268.46
1741.34	250.165
1741.6	257.743
1741.86	259.577
1742.11	250.886
1742.37	251.787
1742.63	245.997
1742.88	247.862
1743.14	243.977
1743.4	264.99
1743.65	236.238
1743.91	261.068
1744.16	252.373
1744.42	248.472
1744.68	244.579
1744.93	262.705
1745.19	255.979
1745.45	238.735
1745.7	259.748
1745.96	251.096
1746.22	262.511
1746.47	244.262
1746.73	243.213
1746.98	239.288
1747.24	250.667
1747.5	242.925
1747.75	248.569
1748.01	264.711
1748.27	247.468
1748.52	246.478
1748.78	251.223
1749.03	254.067
1749.29	234.006
1749.55	241.64
1749.8	265.522
1750.06	258.858
1750.32	246.466
1750.57	257.005
1750.83	243.648
1751.08	252.24
1751.34	238.855
1751.6	267.512
1751.85	256.933
1752.11	242.495
1752.36	243.347
1752.62	248.037
1752.88	244.134
1753.13	234.502
1753.39	257.328
1753.64	252.478
1753.9	260.992
1754.15	247.564
1754.41	255.109
1754.67	249.302
1754.92	253.047
1755.18	250.122
1755.43	258.642
1755.69	241.424
1755.95	248.024
1756.2	245.083
1756.46	263.089
1756.71	243.945
1756.97	251.452
1757.23	259.906
1757.48	253.142
1757.74	249.276
1757.99	243.509
1758.25	268.223
1758.5	243.535
1758.76	258.752
1759.02	235.891
1759.27	234.912
1759.53	241.546
1759.78	252.948
1760.04	259.575
1760.3	243.349
1760.55	239.492
1760.81	253.71
1761.06	239.382
1761.32	253.58
1761.57	242.088
1761.83	251.522
1762.08	249.56
1762.34	229.549
1762.6	247.57
1762.85	258.99
1763.11	255.186
1763.36	242.8
1763.62	258.923
1763.87	258.901
1764.13	249.381
1764.38	247.475
1764.64	266.52
1764.89	248.51
1765.15	245.664
1765.4	249.474
1765.66	246.611
1765.92	257.07
1766.17	252.29
1766.43	255.116
1766.68	244.606
1766.94	244.556
1767.19	254.98
1767.45	240.668
1767.7	263.461
1767.96	248.168
1768.21	250.004
1768.47	251.847
1768.73	240.379
1768.98	251.747
1769.24	253.515
1769.49	247.643
1769.75	250.335
1770	243.572
1770.26	256.843
1770.51	244.526
1770.77	260.708
1771.02	244.532
1771.28	253.071
1771.53	249.307
1771.79	238.909
1772.04	239.861
1772.3	247.452
1772.55	241.756
1772.81	233.214
1773.06	255.104
1773.32	252.25
1773.57	252.25
1773.83	251.295
1774.08	250.337
1774.34	243.663
1774.59	240.791
1774.85	245.533
1775.1	254.108
1775.36	246.48
1775.61	248.399
1775.87	244.671
1776.12	267.581
1776.38	251.38
1776.63	225.62
1776.89	242.739
1777.14	248.397
1777.4	247.371
1777.65	252.079
1777.91	243.429
1778.16	230.972
1778.42	255.661
1778.67	240.35
1778.93	263.117
1779.18	239.223
1779.44	241.98
1779.69	241.91
1779.95	245.682
1780.2	253.336
1780.46	253.324
1780.71	254.265
1780.97	229.509
1781.22	254.254
1781.47	248.517
1781.73	254.211
1781.98	228.496
1782.24	247.544
1782.49	252.316
1782.75	242.82
1783	248.544
1783.26	244.732
1783.51	242.824
1783.77	242.826
1784.02	248.548
1784.28	239.974
1784.53	251.431
1784.79	249.558
1785.04	256.246
1785.29	240.018
1785.55	251.438
1785.8	247.578
1786.06	241.799
1786.31	254.143
1786.57	250.302
1786.82	250.294
1787.08	238.855
1787.33	243.649
1787.58	241.778
1787.84	248.525
1788.09	239.091
1788.35	241.129
1788.6	243.168
1788.86	248.986
1789.11	259.531
1789.37	238.495
1789.62	241.43
1789.87	237.629
1790.13	243.381
1790.38	235.715
1790.64	249.138
1790.89	241.442
1791.15	228.938
1791.4	240.357
1791.65	241.137
1791.91	235.339
1792.16	235.286
1792.42	242.921
1792.67	236.197
1792.93	247.674
1793.18	237.14
1793.43	255.332
1793.69	250.519
1793.94	242.828
1794.2	243.789
1794.45	243.769
1794.7	232.236
1794.96	248.457
1795.21	252.332
1795.47	247.706
1795.72	243.968
1795.97	242.083
1796.23	253.613
1796.48	241.148
1796.74	235.402
1796.99	240.223
1797.25	233.517
1797.5	243.142
1797.75	236.424
1798.01	247.962
1798.26	235.462
1798.51	250.839
1798.77	246.978
1799.02	243.104
1799.28	242.099
1799.53	239.158
1799.78	238.129
1800.04	251.507
1800.29	237.017
1800.55	242.718
1800.8	248.423
1801.05	243.567
1801.31	244.483
1801.56	232.919
1801.81	235.771
1802.07	243.434
1802.32	246.303
1802.58	234.769
1802.83	233.81
1803.08	250.157
1803.34	235.76
1803.59	239.628
1803.84	224.255
1804.1	228.093
1804.35	234.808
1804.61	229.038
1804.86	236.748
1805.11	243.499
1805.37	245.45
1805.62	241.632
1805.87	235.885
1806.13	233.017
1806.38	260.967
1806.64	234.965
1806.89	242.677
1807.14	256.161
1807.4	234.937
1807.65	236.837
1807.9	249.338
1808.16	246.42
1808.41	252.178
1808.66	237.696
1808.92	238.638
1809.17	239.581
1809.42	227.993
1809.68	236.647
1809.93	235.664
1810.18	234.68
1810.44	252.013
1810.69	226.918
1810.94	244.231
1811.2	239.368
1811.45	243.191
1811.7	252.796
1811.96	238.302
1812.21	238.275
1812.46	248.862
1812.72	229.576
1812.97	243.08
1813.22	233.449
1813.48	226.701
1813.73	241.156
1813.98	248.881
1814.24	244.082
1814.49	239.292
1814.74	248.022
1815	247.11
1815.25	245.197
1815.5	239.408
1815.76	242.299
1816.01	240.349
1816.26	239.364
1816.52	244.18
1816.77	235.467
1817.02	230.621
1817.27	242.178
1817.53	243.079
1817.78	226.509
1818.03	230.264
1818.29	247.631
1818.54	225.428
1818.79	239.955
1819.05	237.065
1819.3	225.426
1819.55	242.809
1819.8	248.608
1820.06	235.075
1820.31	234.1
1820.56	226.364
1820.82	237.003
1821.07	233.131
1821.32	244.73
1821.58	247.637
1821.83	239.908
1822.08	241.849
1822.33	249.59
1822.59	243.777
1822.84	230.212
1823.09	250.524
1823.34	243.731
1823.6	233.047
1823.85	219.445
1824.1	238.75
1824.36	228.067
1824.61	256.127
1824.86	246.44
1825.11	240.623
1825.37	234.808
1825.62	245.456
1825.87	247.382
1826.12	237.673
1826.38	254.105
1826.63	241.49
1826.88	239.53
1827.14	239.506
1827.39	226.9
1827.64	234.642
1827.89	221.076
1828.15	236.571
1828.4	241.387
1828.65	230.689
1828.9	237.417
1829.16	246.071
1829.41	248.923
1829.66	251.789
1829.91	244.001
1830.17	242.019
1830.42	254.548
1830.67	239.966
1830.92	235.069
1831.18	243.753
1831.43	240.846
1831.68	241.818
1831.93	241.823
1832.19	234.075
1832.44	227.294
1832.69	227.298
1832.94	229.253
1833.2	224.411
1833.45	246.679
1833.7	245.685
1833.95	235.015
1834.2	243.722
1834.46	236.922
1834.71	227.137
1834.96	246.359
1835.21	258.791
1835.47	238.314
1835.72	227.568
1835.97	229.409
1836.22	244.852
1836.48	243.796
1836.73	234.103
1836.98	240.839
1837.23	227.871
1837.48	229.667
1837.74	250.774
1837.99	246.712
1838.24	229.021
1838.49	227.88
1838.74	248.109
1839	233.992
1839.25	232.2
1839.5	233.228
1839.75	243.891
1840	239.05
1840.26	235.204
1840.51	251.415
1840.76	229.913
1841.01	227.807
1841.27	235.392
1841.52	249.741
1841.77	236.074
1842.02	246.566
1842.27	235.827
1842.53	233.784
1842.78	232.71
1843.03	233.687
1843.28	235.561
1843.53	224.948
1843.78	246.136
1844.04	234.53
1844.29	225.794
1844.54	242.159
1844.79	241.196
1845.04	242.135
1845.3	243.993
1845.55	233.362
1845.8	217.901
1846.05	231.474
1846.3	234.445
1846.55	244.169
1846.81	242.383
1847.06	228.691
1847.31	232.179
1847.56	248.113
1847.81	241.26
1848.07	251.824
1848.32	214.364
1848.57	234.672
1848.82	234.518
1849.07	230.571
1849.32	228.623
1849.57	238.173
1849.83	238.072
1850.08	235.078
1850.33	232.091
1850.58	242.546
1850.83	233.791
1851.09	224.089
1851.34	231.694
1851.59	239.302
1851.84	237.315
1852.09	231.498
1852.34	238.178
1852.59	226.623
1852.84	233.315
1853.1	231.363
1853.35	239.008
1853.6	235.121
1853.85	225.464
1854.1	223.468
1854.35	225.292
1854.6	242.453
1854.86	228.925
1855.11	234.611
1855.36	224.956
1855.61	228.692
1855.86	231.458
1856.11	204.56
1856.36	223.668
1856.61	231.288
1856.87	224.553
1857.12	225.479
1857.37	226.396
1857.62	234.964
1857.87	234.905
1858.12	249.207
1858.37	236.691
1858.63	233.74
1858.88	234.611
1859.13	224.001
1859.38	225.826
1859.63	231.473
1859.88	229.488
1860.13	242.836
1860.38	221.775
1860.63	235.144
1860.89	231.335
1861.14	227.521
1861.39	223.7
1861.64	239.979
1861.89	234.247
1862.14	246.671
1862.39	216.962
1862.64	234.12
1862.9	228.298
1863.15	226.299
1863.4	233.861
1863.65	218.48
1863.9	235.604
1864.15	241.259
1864.4	241.182
1864.65	229.646
1864.9	239.123
1865.15	231.402
1865.4	232.265
1865.66	228.345
1865.91	228.235
1866.16	229.067
1866.41	220.358
1866.66	217.37
1866.91	231.53
1867.16	221.879
1867.41	235.076
1867.66	220.684
1867.91	230.095
1868.16	214.81
1868.41	229.015
1868.67	228.968
1868.92	216.583
1869.17	237.481
1869.42	232.695
1869.67	217.441
1869.92	225.952
1870.17	226.859
1870.42	232.519
1870.67	222.972
1870.92	217.23
1871.17	251.409
1871.42	238.069
1871.67	234.219
1871.92	221.809
1872.17	234.089
1872.42	238.779
1872.68	221.627
1872.93	237.698
1873.18	223.375
1873.43	227.11
1873.68	224.221
1873.93	218.476
1874.18	239.294
1874.43	230.676
1874.68	225.848
1874.93	238.089
1875.18	242.736
1875.43	243.584
1875.68	234.953
1875.93	241.466
1876.18	219.518
1876.43	236.44
1876.68	246.742
1876.93	227.73
1877.18	226.719
1877.43	239.805
1877.68	234.899
1877.93	236.474
1878.18	230.979
1878.44	228.988
1878.69	230.515
1878.93	228.484
1879.19	237.883
1879.44	227.673
1879.69	233.438
1879.94	218.179
1880.19	225.654
1880.44	218.037
1880.69	219.885
1880.94	235.058
1881.19	217.931
1881.44	226.41
1881.69	234.797
1881.94	233.699
1882.19	230.709
1882.44	226.769
1882.69	235.099
1882.94	228.291
1883.19	232.909
1883.44	232.7
1883.69	226.703
1883.94	221.859
1884.19	235.353
1884.44	224.975
1884.69	217.542
1884.94	228.699
1885.19	217.445
1885.44	240.174
1885.69	230.745
1885.94	235.465
1886.19	223.283
1886.44	228.03
1886.69	239.371
1886.94	232.705
1887.19	236.348
1887.44	246.643
1887.69	223.907
1887.94	227.592
1888.19	227.5
1888.44	229.287
1888.69	232.932
1888.94	224.336
1889.19	230.823
1889.44	238.25
1889.69	248.532
1889.94	247.552
1890.19	236.213
1890.44	247.503
1890.69	236.233
1890.94	227.785
1891.19	247.551
1891.43	235.267
1891.68	225.796
1891.94	228.587
1892.18	221.949
1892.43	235.089
1892.68	222.809
1892.93	229.335
1893.18	238.667
1893.43	229.137
1893.68	228.031
1893.93	241.043
1894.18	219.364
1894.43	222.192
1894.68	230.533
1894.93	237.036
1895.18	228.531
1895.43	226.629
1895.68	220.04
1895.93	229.43
1896.18	238.827
1896.43	227.551
1896.68	226.62
1896.93	230.398
1897.18	222.887
1897.42	225.709
1897.68	227.583
1897.92	239.793
1898.17	229.415
1898.42	228.429
1898.67	233.073
1898.92	235.821
1899.17	230.093
1899.42	227.18
1899.67	243.079
1899.92	232.686
1900.17	232.624
1900.42	225.987
1900.67	231.585
1900.92	230.623
1901.16	229.679
1901.41	222.172
1901.66	229.71
1901.91	238.189
1902.16	221.286
1902.41	227.895
1902.66	222.273
1902.91	222.246
1903.16	238.186
1903.41	225.903
1903.66	238.069
1903.91	219.211
1904.16	227.628
1904.41	226.646
1904.65	224.728
1904.9	235.972
1905.15	244.389
1905.4	230.247
1905.65	231.154
1905.9	226.41
1906.15	232.89
1906.4	220.562
1906.65	235.528
1906.9	221.38
1907.14	224.144
1907.39	223.157
1907.64	224.069
1907.89	238.139
1908.14	227.811
1908.39	235.342
1908.64	246.607
1908.89	219.345
1909.14	239.073
1909.39	218.407
1909.63	225.945
1909.88	229.737
1910.13	237.305
1910.38	238.299
1910.63	235.535
1910.88	239.349
1911.13	222.426
1911.38	237.503
1911.62	233.73
1911.87	229.001
1912.12	231.795
1912.37	227.98
1912.62	222.282
1912.87	232.607
1913.12	224.1
1913.37	241.024
1913.61	221.224
1913.86	231.593
1914.11	232.576
1914.36	226.027
1914.61	225.11
1914.86	234.561
1915.11	227.983
1915.36	222.341
1915.6	220.458
1915.85	221.385
1916.1	234.561
1916.35	218.47
1916.6	241.071
1916.85	230.627
1917.1	222.056
1917.34	226.7
1917.59	231.348
1917.84	218.094
1918.09	229.362
1918.34	225.568
1918.59	213.314
1918.83	224.652
1919.08	231.291
1919.33	245.49
1919.58	231.386
1919.83	237.125
1920.08	240.019
1920.33	224.92
1920.57	227.736
1920.82	226.733
1921.07	222.94
1921.32	221.082
1921.57	225.841
1921.81	215.448
1922.06	217.342
1922.31	237.194
1922.56	225.815
1922.81	240.897
1923.06	226.645
1923.31	220.907
1923.55	236.925
1923.8	229.312
1924.05	224.533
1924.3	226.36
1924.55	234.79
1924.79	231.895
1925.04	236.579
1925.29	227.111
1925.54	224.279
1925.79	223.355
1926.04	230.016
1926.28	232.892
1926.53	222.522
1926.78	215.935
1927.03	220.711
1927.28	229.251
1927.52	216.003
1927.77	228.316
1928.02	230.212
1928.27	230.211
1928.52	223.576
1928.76	225.458
1929.01	218.828
1929.26	223.567
1929.51	233.054
1929.76	220.755
1930	220.799
1930.25	220.83
1930.5	231.311
1930.75	235.138
1931	233.277
1931.24	233.267
1931.49	238.94
1931.74	227.498
1931.99	224.589
1932.24	236.865
1932.48	214.972
1932.73	223.45
1932.98	214.844
1933.23	239.47
1933.47	230.868
1933.72	236.546
1933.97	220.458
1934.22	209.151
1934.46	234.92
1934.71	221.803
1934.96	219.123
1935.21	231.65
1935.46	214.62
1935.7	230.913
1935.95	230.967
1936.2	224.1
1936.45	225.952
1936.69	235.437
1936.94	224.893
1937.19	237.198
1937.44	237.106
1937.68	225.596
1937.93	228.371
1938.18	215.921
1938.43	245.346
1938.68	219.618
1938.92	217.766
1939.17	228.239
1939.42	226.342
1939.67	213.971
1939.91	221.592
1940.16	239.705
1940.41	228.252
1940.66	237.813
1940.9	227.359
1941.15	229.4
1941.4	224.694
1941.64	231.344
1941.89	229.374
1942.14	216.856
1942.39	236.703
1942.63	222.462
1942.88	229.362
1943.13	232.255
1943.38	216.002
1943.62	243.558
1943.87	206.201
1944.12	215.631
1944.37	211.932
1944.61	230.089
1944.86	232.021
1945.11	220.589
1945.35	230.171
1945.6	218.737
1945.85	225.456
1946.1	217.833
1946.34	225.496
1946.59	227.416
1946.84	233.152
1947.09	232.181
1947.33	227.364
1947.58	217.75
1947.83	229.17
1948.07	207.141
1948.32	227.19
1948.57	219.508
1948.82	218.503
1949.06	217.529
1949.31	224.236
1949.56	244.344
1949.8	219.494
1950.05	231.966
1950.3	213.814
1950.54	207.179
1950.79	220.667
1951.04	226.474
1951.29	213.116
1951.53	231.408
1951.78	218.999
1952.03	220.002
1952.27	232.502
1952.52	219.066
1952.77	221.957
1953.01	225.759
1953.26	230.577
1953.51	215.238
1953.76	214.182
1954	215.023
1954.25	230.195
1954.49	222.353
1954.74	208.775
1954.99	223.012
1955.24	222.947
1955.48	238.236
1955.73	230.573
1955.98	212.403
1956.22	218.226
1956.47	217.405
1956.72	219.362
1956.96	238.611
1957.21	229.025
1957.46	230.014
1957.7	213.706
1957.95	234.859
1958.2	223.335
1958.44	226.213
1958.69	234.852
1958.94	209.844
1959.18	232.862
1959.43	220.291
1959.68	232.728
1959.92	218.277
1960.17	213.407
1960.42	222.945
1960.66	224.799
1960.91	214.165
1961.16	226.571
1961.4	230.337
1961.65	212.993
1961.9	225.414
1962.14	212.917
1962.39	235.934
1962.63	224.397
1962.88	223.418
1963.13	227.238
1963.37	223.379
1963.62	233.917
1963.87	217.577
1964.11	221.399
1964.36	235.802
1964.61	213.714
1964.85	223.283
1965.1	220.353
1965.35	220.328
1965.59	225.09
1965.84	222.185
1966.08	239.465
1966.33	223.157
1966.58	221.261
1966.82	218.403
1967.07	223.216
1967.32	215.528
1967.56	231.831
1967.81	225.075
1968.05	210.648
1968.3	226.97
1968.55	222.144
1968.79	210.573
1969.04	247.05
1969.29	225.828
1969.53	216.128
1969.78	226.589
1970.02	211.116
1970.27	232.146
1970.52	231.104
1970.76	212.803
1971.01	211.773
1971.25	222.261
1971.5	223.162
1971.75	233.66
1971.99	216.345
1972.24	226.884
1972.48	232.634
1972.73	215.349
1972.98	230.666
1973.22	235.411
1973.47	221.91
1973.71	219.908
1973.96	208.329
1974.21	226.482
1974.45	226.43
1974.7	228.308
1974.94	218.694
1975.19	234.01
1975.44	232.084
1975.68	211.953
1975.93	226.343
1976.17	213.879
1976.42	220.587
1976.66	230.166
1976.91	223.43
1977.16	234.913
1977.4	233.916
1977.65	227.155
1977.89	219.424
1978.14	229.904
1978.39	233.668
1978.63	227.851
1978.88	227.794
1979.12	240.208
1979.37	208.548
1979.61	233.447
1979.86	238.211
1980.1	242.985
1980.35	223.788
1980.6	243.862
1980.84	229.41
1981.09	237.002
1981.33	224.495
1981.58	238.799
1981.82	221.499
1982.07	225.283
1982.31	223.329
1982.56	221.374
1982.81	215.56
1983.05	213.575
1983.3	214.446
1983.54	224.872
1983.79	239.138
1984.03	215.167
1984.28	219.903
1984.52	229.413
1984.77	246.572
1985.02	220.699
1985.26	236.882
1985.51	232.005
1985.75	235.766
1986	221.4
1986.24	237.635
1986.49	224.257
1986.73	223.313
1986.98	236.691
1987.22	229.958
1987.47	224.209
1987.71	231.785
1987.96	248.885
1988.21	236.343
1988.45	216.156
1988.7	237.025
1988.94	221.593
1989.19	230.018
1989.43	234.417
1989.68	228.943
1989.92	226.732
1990.17	238.387
1990.41	230.741
1990.66	232.965
1990.9	250.4
1991.15	228.618
1991.39	236.103
1991.64	226.262
1991.88	234.409
1992.13	222.623
1992.37	232.336
1992.62	239.575
1992.86	218.695
1993.11	228.312
1993.35	225.542
1993.6	237.552
1993.84	236.086
1994.09	238.569
1994.33	236.409
1994.58	236.274
1994.82	221.13
1995.07	236.633
1995.31	236.265
1995.56	242.332
1995.8	232.634
1996.05	239.259
1996.29	228.783
1996.54	227.98
1996.78	221.929
1997.03	235.709
1997.27	228.923
1997.52	235.146
1997.76	233.984
1998.01	234.313
1998.25	238.867
1998.5	228.243
1998.74	220.722
1998.99	234.415
1999.23	240.689
1999.48	244.301
1999.72	231.161
1999.97	239.934
2000.21	240.435
2000.46	241.139
2000.7	232.277
2000.95	230.123
2001.19	237.744
2001.43	235.743
2001.68	237.274
2001.92	225.32
2002.17	236.172
2002.41	240.428
2002.66	235.646
2002.9	238.066
2003.15	234.853
2003.39	237.442
2003.64	244.013
2003.88	235.358
2004.13	235.096
2004.37	220.84
2004.61	229.518
2004.86	238.629
2005.1	234.361
2005.35	226.709
2005.59	239.43
2005.84	232.567
2006.08	238.842
2006.33	234.776
2006.57	232.113
2006.81	239.562
2007.06	237.34
2007.3	237.263
2007.55	235.139
2007.79	241.711
2008.04	246.26
2008.28	241.111
2008.53	234.749
2008.77	234.304
2009.01	223.769
2009.26	236.696
2009.5	247.203
2009.75	238.488
2009.99	241.034
2010.24	249.738
2010.48	248.345
2010.73	234.206
2010.97	227.601
2011.21	237.152
2011.46	242.126
2011.7	229.402
2011.95	238.735
2012.19	236.767
2012.43	232.133
2012.68	241.523
2012.92	238.672
2013.17	245.206
2013.42	232.882
2013.67	234.644
2013.91	237.391
2014.16	230.72
2014.41	229.674
2014.66	241.757
2014.9	223.808
2015.15	241.602
2015.4	238.788
2015.64	248.197
2015.89	220.066
2016.14	229.472
2016.39	227.562
2016.63	230.426
2016.88	237.159
2017.13	236.243
2017.37	237.161
2017.62	221.143
2017.87	235.178
2018.11	243.553
2018.36	236.882
2018.61	227.396
2018.86	237.626
2019.1	245.974
2019.35	234.623
2019.6	247.651
2019.84	227.923
2020.09	227.884
2020.34	239.098
2020.58	229.718
2020.83	233.446
2021.08	244.667
2021.33	231.559
2021.57	228.755
2021.82	231.558
2022.07	229.666
2022.31	231.51
2022.56	238.025
2022.81	238.909
2023.05	234.165
2023.3	228.479
2023.55	236.843
2023.8	236.784
2024.04	233.921
2024.29	233.863
2024.54	231.942
2024.78	233.729
2025.03	237.38
2025.27	246.633
2025.52	231.614
2025.77	228.74
2026.02	231.471
2026.26	227.654
2026.51	230.465
2026.76	224.941
2027	227.87
2027.25	230.831
2027.5	234.754
2027.74	243.287
2027.99	230.149
2028.23	230.001
2028.48	225.118
2028.73	235.701
2028.98	225.087
2029.22	232.431
2029.47	225.427
2029.72	234.985
2029.96	218.69
2030.21	231.527
2030.45	222.871
2030.7	217.255
2030.95	227.328
2031.19	230.276
2031.44	231.332
2031.69	231.29
2031.93	228.484
2032.18	229.415
2032.43	228.537
2032.67	234.203
2032.92	228.673
2033.17	228.737
2033.41	231.59
2033.66	239.105
2033.91	235.425
2034.15	239.19
2034.4	219.432
2034.64	230.491
2034.89	231.19
2035.14	232.057
2035.38	229.343
2035.63	226.61
2035.87	225.791
2036.12	219.396
2036.37	230.719
2036.61	217.607
2036.86	229.643
2037.11	232.446
2037.35	220.335
2037.6	223.13
2037.84	234.331
2038.09	236.171
2038.34	221.177
2038.58	226.747
2038.83	235.115
2039.08	226.661
2039.32	227.552
2039.57	214.429
2039.81	234.931
2040.06	207.795
2040.31	217.064
2040.55	236.595
2040.8	217.869
2041.04	215.945
2041.29	223.354
2041.54	225.172
2041.78	221.417
2042.03	221.396
2042.27	240.932
2042.52	232.508
2042.77	216.612
2043.01	223.109
2043.26	220.305
2043.5	227.769
2043.75	225.956
2044	227.9
2044.24	226.117
2044.49	223.343
2044.73	222.391
2044.98	230.726
2045.23	235.278
2045.47	212.714
2045.72	217.618
2045.96	214.876
2046.21	220.766
2046.45	220.168
2046.7	222.784
2046.95	212.294
2047.19	210.269
2047.44	220.537
2047.68	239.128
2047.93	217.491
2048.17	231.42
2048.42	234.218
2048.67	213.711
2048.91	229.566
2049.16	234.243
2049.4	224.966
2049.65	227.803
2049.89	217.593
2050.14	224.195
2050.39	225.179
2050.63	216.826
2050.88	216.851
2051.12	213.116
2051.37	221.503
2051.61	237.329
2051.86	230.718
2052.11	226.972
2052.35	216.697
2052.6	217.655
2052.84	229.797
2053.09	210.2
2053.33	218.632
2053.58	209.322
2053.82	215.908
2054.07	217.869
2054.31	206.676
2054.56	221.661
2054.8	231.95
2055.05	216.034
2055.3	218.822
2055.54	219.734
2055.79	221.545
2056.03	230.863
2056.28	214.95
2056.52	224.27
2056.77	218.63
2057.01	214.869
2057.26	236.358
2057.5	219.535
2057.75	216.739
2058	215.822
2058.24	220.521
2058.49	217.739
2058.73	222.46
2058.98	216.886
2059.22	222.537
2059.47	221.626
2059.71	214.143
2059.96	213.21
2060.2	212.27
2060.45	221.597
2060.69	214.069
2060.94	215.91
2061.18	217.798
2061.43	224.374
2061.67	225.324
2061.92	215.026
2062.16	224.385
2062.41	216.894
2062.65	227.202
2062.9	208.487
2063.14	227.24
2063.39	226.335
2063.63	210.435
2063.88	221.699
2064.12	215.154
2064.37	221.725
2064.61	230.17
2064.86	227.376
2065.1	229.275
2065.35	219.003
2065.59	219.997
2065.84	218.171
2066.08	209.766
2066.33	212.614
2066.57	224.841
2066.82	216.391
2067.06	230.493
2067.31	222.996
2067.55	211.735
2067.8	221.148
2068.04	208.96
2068.29	216.498
2068.53	218.392
2068.78	219.337
2069.02	219.36
2069.27	209.954
2069.51	215.557
2069.76	223.006
2070	208.815
2070.25	218.164
2070.49	220.994
2070.73	228.592
2070.98	215.534
2071.22	209.99
2071.47	217.491
2071.71	211.779
2071.96	228.008
2072.2	224.323
2072.45	220.532
2072.69	215.8
2072.94	212.019
2073.18	221.408
2073.43	216.692
2073.67	210.082
2073.92	207.259
2074.16	199.725
2074.4	227.976
2074.65	217.634
2074.89	230.852
2075.14	226.193
2075.38	224.375
2075.63	208.434
2075.87	204.758
2076.12	208.596
2076.36	226.561
2076.6	211.454
2076.85	215.231
2077.09	222.752
2077.34	217.037
2077.58	211.32
2077.83	224.421
2078.07	220.616
2078.31	213.089
2078.56	214.069
2078.8	212.192
2079.05	212.202
2079.29	220.716
2079.54	219.815
2079.78	217.074
2080.03	218.997
2080.27	225.639
2080.51	225.666
2080.76	221.906
2081	223.791
2081.25	223.761
2081.49	219.958
2081.74	204.826
2081.98	218.988
2082.22	218.027
2082.47	211.421
2082.71	228.438
2082.96	214.267
2083.2	215.208
2083.45	219.922
2083.69	211.4
2083.93	213.273
2084.18	205.706
2084.42	209.48
2084.67	213.25
2084.91	216.08
2085.15	224.583
2085.4	203.786
2085.64	214.173
2085.89	209.44
2086.13	223.623
2086.37	221.78
2086.62	214.275
2086.86	217.153
2087.11	231.355
2087.35	218.129
2087.59	226.672
2087.84	221.954
2088.08	217.216
2088.32	220.996
2088.57	210.583
2088.81	211.531
2089.06	216.266
2089.3	214.375
2089.54	216.293
2089.79	225.789
2090.03	222.05
2090.28	222.063
2090.52	205.014
2090.76	225.863
2091.01	208.82
2091.25	208.834
2091.5	216.43
2091.74	208.862
2091.98	210.802
2092.23	223.182
2092.47	229.884
2092.72	212.866
2092.96	217.676
2093.2	229.12
2093.45	224.418
2093.69	218.765
2093.93	220.71
2094.18	214.092
2094.42	216.025
2094.66	207.472
2094.91	216.971
2095.15	204.594
2095.39	216.929
2095.64	214.985
2095.88	220.64
2096.13	208.249
2096.37	213.919
2096.61	207.245
2096.86	215.779
2097.1	222.412
2097.34	209.077
2097.59	222.323
2097.83	223.221
2098.07	223.195
2098.32	219.378
2098.56	204.171
2098.8	214.575
2099.05	232.6
2099.29	215.503
2099.53	224.973
2099.78	206.923
2100.02	207.86
2100.27	222.089
2100.51	212.597
2100.75	217.346
2101	217.359
2101.24	219.301
2101.48	210.788
2101.73	222.202
2101.97	226.007
2102.21	219.35
2102.45	218.387
2102.7	222.179
2102.94	221.208
2103.18	217.367
2103.43	218.265
2103.67	218.233
2103.92	227.712
2104.16	217.249
2104.4	208.702
2104.64	211.559
2104.89	222.976
2105.13	219.201
2105.37	219.223
2105.62	213.553
2105.86	220.242
2106.1	213.622
2106.35	225.043
2106.59	216.501
2106.83	220.307
2107.08	203.196
2107.32	224.122
2107.56	223.171
2107.8	218.385
2108.05	210.732
2108.29	214.472
2108.53	214.407
2108.78	204.845
2109.02	218.088
2109.26	204.77
2109.51	217.114
2109.75	218.109
2109.99	217.194
2110.23	206.738
2110.48	227.63
2110.72	229.522
2110.96	218.113
2111.21	226.655
2111.45	219.995
2111.69	215.222
2111.93	224.683
2112.18	201.86
2112.42	228.43
2112.66	219.874
2112.91	226.535
2113.15	218.951
2113.39	213.268
2113.63	215.211
2113.88	231.402
2114.12	214.307
2114.36	214.286
2114.61	201.905
2114.85	214.247
2115.09	219
2115.33	227.551
2115.58	211.374
2115.82	219.901
2116.06	220.826
2116.31	214.149
2116.55	221.698
2116.79	211.201
2117.03	216.872
2117.28	212.104
2117.52	220.634
2117.76	213.987
2118	216.806
2118.25	216.765
2118.49	227.163
2118.73	216.657
2118.97	208.049
2119.22	213.685
2119.46	224.064
2119.7	211.685
2119.94	208.791
2120.19	218.222
2120.43	215.341
2120.67	208.688
2120.91	206.791
2121.16	209.659
2121.4	217.252
2121.64	226.771
2121.88	212.593
2122.13	207.888
2122.37	218.357
2122.61	204.155
2122.85	211.77
2123.1	217.484
2123.34	221.297
2123.58	221.307
2123.82	213.712
2124.07	217.484
2124.31	226.944
2124.55	206.019
2124.79	209.754
2125.03	213.459
2125.28	219.988
2125.52	210.409
2125.76	200.858
2126	209.313
2126.25	213.032
2126.49	216.755
2126.73	197.778
2126.97	212.865
2127.21	227.945
2127.46	221.271
2127.7	213.679
2127.94	212.715
2128.18	203.24
2128.43	212.663
2128.67	207.916
2128.91	211.689
2129.15	206.01
2129.39	215.446
2129.64	215.421
2129.88	216.343
2130.12	215.38
2130.36	203.076
2130.6	214.395
2130.85	223.82
2131.09	211.508
2131.33	215.253
2131.57	213.325
2131.81	215.172
2132.06	218.912
2132.3	209.441
2132.54	222.626
2132.78	224.463
2133.02	205.54
2133.27	225.328
2133.51	215.88
2133.75	209.275
2133.99	225.317
2134.23	218.705
2134.48	206.438
2134.72	217.761
2134.96	210.197
2135.2	208.295
2135.44	218.661
2135.68	203.544
2135.93	217.669
2136.17	211.963
2136.41	211.892
2136.65	213.708
2136.89	202.356
2137.14	213.669
2137.38	208.955
2137.62	214.608
2137.86	205.193
2138.1	218.431
2138.34	217.463
2138.59	225.879
2138.83	214.513
2139.07	231.513
2139.31	210.83
2139.55	202.38
2139.79	216.416
2140.03	214.442
2140.28	212.513
2140.52	221.894
2140.76	216.206
2141	226.536
2141.24	223.685
2141.49	222.717
2141.73	212.352
2141.97	219.835
2142.21	211.306
2142.45	214.103
2142.69	207.506
2142.93	212.244
2143.18	221.684
2143.42	203.946
2143.66	226.468
2143.9	216.51
2144.14	218.38
2144.38	209.953
2144.62	197.794
2144.87	211.018
2145.11	213.873
2145.35	212.805
2145.59	214.694
2145.83	204.352
2146.07	215.615
2146.31	204.307
2146.55	213.682
2146.8	214.597
2147.04	213.632
2147.28	212.663
2147.52	222.022
2147.76	202.253
2148	214.433
2148.24	229.432
2148.48	212.491
2148.73	204.006
2148.97	203.972
2149.21	210.505
2149.45	221.718
2149.69	213.212
2149.93	219.684
2150.17	199.931
2150.42	215.808
2150.66	220.444
2150.9	204.479
2151.14	208.216
2151.38	210.1
2151.62	198.875
2151.86	210.138
2152.1	219.539
2152.34	212.042
2152.58	211.125
2152.83	215.775
2153.07	211.049
2153.31	212.877
2153.55	217.521
2153.79	218.432
2154.03	206.22
2154.27	220.233
2154.51	203.309
2154.75	212.598
2154.99	215.31
2155.24	221.767
2155.48	224.467
2155.72	210.364
2155.96	198.143
2156.2	213.971
2156.44	208.317
2156.68	212.024
2156.92	225.084
2157.16	214.795
2157.4	199.841
2157.64	206.386
2157.89	212.946
2158.13	218.583
2158.37	217.674
2158.61	214.87
2158.85	220.469
2159.09	205.496
2159.33	213.881
2159.57	210.108
2159.81	204.46
2160.05	205.346
2160.29	209.023
2160.53	214.566
2160.77	221.979
2161.01	209.795
2161.25	213.496
2161.5	206.011
2161.74	210.649
2161.98	215.286
2162.22	217.135
2162.46	217.126
2162.7	219.917
2162.94	221.771
2163.18	217.079
2163.42	200.254
2163.66	215.145
2163.9	209.52
2164.14	217.881
2164.38	212.253
2164.62	216.86
2164.86	219.592
2165.11	220.48
2165.35	210.231
2165.59	217.697
2165.83	219.555
2166.07	216.754
2166.31	207.429
2166.55	213.919
2166.79	207.367
2167.03	212.917
2167.27	211.004
2167.51	213.758
2167.75	221.149
2167.99	215.492
2168.23	220.962
2168.47	205.98
2168.71	208.729
2168.95	200.349
2169.19	211.508
2169.43	212.457
2169.67	213.421
2169.91	208.82
2170.15	201.436
2170.39	201.504
2170.63	211.783
2170.87	215.518
2171.11	219.22
2171.35	215.445
2171.59	200.522
2171.83	219.047
2172.07	217.028
2172.31	206.715
2172.56	215.962
2172.79	194.544
2173.04	208.447
2173.28	211.22
2173.51	200.059
2173.76	207.48
2174	208.416
2174.24	209.362
2174.48	206.585
2174.72	210.303
2174.96	202.862
2175.2	211.217
2175.44	219.569
2175.68	223.264
2175.92	201.868
2176.16	215.791
2176.4	208.338
2176.64	219.462
2176.88	207.343
2177.12	210.108
2177.36	221.247
2177.6	211.026
2177.84	207.306
2178.08	217.511
2178.32	214.724
2178.55	211.909
2178.8	222.988
2179.03	218.293
2179.28	220.136
2179.52	212.709
2179.75	211.776
2180	219.197
2180.23	219.188
2180.47	215.464
2180.71	204.308
2180.95	211.714
2181.19	213.549
2181.43	219.104
2181.67	211.656
2181.91	216.264
2182.15	208.807
2182.39	219.923
2182.63	218.031
2182.87	202.229
2183.11	204.986
2183.35	216.069
2183.59	211.376
2183.83	202.036
2184.07	205.693
2184.31	215.847
2184.55	214.881
2184.79	200.965
2185.03	204.669
2185.27	221.36
2185.51	213.954
2185.75	209.328
2185.99	215.834
2186.23	196.392
2186.47	216.818
2186.7	215.92
2186.95	203.911
2187.18	212.315
2187.42	202.157
2187.66	210.563
2187.9	208.742
2188.14	211.531
2188.38	222.645
2188.62	212.385
2188.86	220.691
2189.1	205.786
2189.34	207.585
2189.58	203.81
2189.82	211.155
2190.06	204.599
2190.3	209.2
2190.54	212.891
2190.78	211.96
2191.01	219.386
2191.25	203.634
2191.49	218.46
2191.73	209.192
2191.97	214.765
2192.21	215.703
2192.45	203.656
2192.69	209.229
2192.93	209.24
2193.17	212.049
2193.41	203.725
2193.65	219.528
2193.89	212.141
2194.13	206.65
2194.36	198.376
2194.6	210.515
2194.84	207.754
2195.08	201.227
2195.32	215.139
2195.56	208.603
2195.8	212.28
2196.04	214.085
2196.28	218.661
2196.52	204.651
2196.76	218.501
2197	212.872
2197.23	211.896
2197.47	214.636
2197.71	210.886
2197.95	209.024
2198.19	203.457
2198.43	213.674
2198.67	210.004
2198.91	208.192
2199.15	205.46
2199.38	188.804
2199.62	208.358
2199.86	219.57
2200.1	206.618
2200.34	207.637
2200.58	208.669
2200.82	214.342
2201.06	215.351
2201.3	211.679
2201.54	221.973
2201.77	204.175
2202.01	195.587
2202.25	212.817
2202.49	206.019
2202.73	211.707
2202.97	212.988
2203.21	200.121
2203.45	200.987
2203.68	205.587
2203.92	219.713
2204.16	205.461
2204.4	194.949
2204.64	217.303
2204.88	221.994
2205.12	204.13
2205.36	216.048
2205.59	203.777
2205.83	218.535
2206.07	225.003
2206.31	208.264
2206.55	213.883
2206.79	210.162
2207.03	220.303
2207.26	219.379
2207.5	199.876
2207.74	215.715
2207.98	205.518
2208.22	226.023
2208.46	212.103
2208.7	215.861
2208.93	221.477
2209.17	220.569
2209.41	214.065
2209.65	205.689
2209.89	196.369
2210.13	209.393
2210.36	214.98
2210.6	215
2210.84	203.843
2211.08	214.116
2211.32	213.21
2211.56	196.457
2211.8	211.397
2212.03	213.299
2212.27	211.471
2212.51	203.099
2212.75	214.3
2212.99	222.673
2213.23	213.316
2213.46	213.288
2213.7	202.057
2213.94	207.608
2214.18	215.07
2214.42	211.374
2214.66	213.317
2214.89	211.524
2215.13	201.271
2215.37	207.815
2215.61	199.418
2215.85	207.821
2216.08	205.018
2216.32	215.281
2216.56	215.27
2216.8	212.456
2217.04	204.969
2217.28	217.09
2217.51	202.144
2217.75	203.078
2217.99	212.415
2218.23	211.473
2218.47	216.131
2218.7	204.928
2218.94	218.013
2219.18	211.498
2219.42	204.054
2219.66	204.084
2219.9	224.655
2220.13	209.722
2220.37	220.016
2220.61	201.311
2220.85	206.902
2221.09	211.559
2221.32	202.186
2221.56	213.341
2221.8	212.343
2222.04	207.62
2222.27	206.64
2222.51	204.74
2222.75	218.728
2222.99	215.935
2223.23	208.488
2223.46	214.114
2223.7	207.604
2223.94	207.645
2224.18	199.286
2224.42	200.273
2224.65	197.517
2224.89	197.557
2225.13	201.334
2225.37	209.79
2225.6	205.154
2225.84	198.65
2226.08	204.305
2226.32	207.149
2226.56	211.87
2226.79	205.335
2227.03	216.617
2227.27	200.715
2227.51	219.49
2227.74	209.194
2227.98	207.324
2228.22	210.125
2228.46	211.977
2228.69	215.704
2228.93	207.244
2229.17	215.663
2229.41	215.644
2229.64	218.448
2229.88	206.287
2230.12	218.525
2230.36	206.374
2230.6	208.279
2230.83	213.003
2231.07	206.468
2231.31	215.892
2231.55	205.604
2231.78	214.099
2232.02	209.435
2232.26	201.95
2232.5	189.763
2232.73	207.654
2232.97	204.863
2233.21	197.369
2233.45	211.507
2233.68	209.655
2233.92	210.628
2234.16	195.591
2234.39	208.783
2234.63	219.117
2234.87	206.857
2235.11	204.001
2235.34	211.485
2235.58	223.631
2235.82	209.462
2236.06	203.816
2236.29	204.757
2236.53	205.701
2236.77	209.467
2237	215.111
2237.24	214.174
2237.48	202.926
2237.72	211.43
2237.95	194.557
2238.19	200.28
2238.43	202.232
2238.67	206.992
2238.9	207.98
2239.14	196.719
2239.38	211.875
2239.61	206.221
2239.85	213.743
2240.09	207.104
2240.33	213.64
2240.56	208.868
2240.8	205.065
2241.04	212.688
2241.27	213.704
2241.51	200.501
2241.75	212.772
2241.99	198.626
2242.22	207.124
2242.46	201.472
2242.7	204.318
2242.93	210.943
2243.17	210.94
2243.41	199.596
2243.64	216.552
2243.88	204.244
2244.12	213.658
2244.36	204.207
2244.59	204.206
2244.83	205.173
2245.07	215.61
2245.3	215.689
2245.54	213.87
2245.78	211.076
2246.01	211.11
2246.25	213.037
2246.49	201.723
2246.72	208.371
2246.96	203.654
2247.2	204.623
2247.43	214.109
2247.67	215.069
2247.91	223.59
2248.14	207.489
2248.38	198.007
2248.62	203.665
2248.85	197.967
2249.09	199.841
2249.33	203.607
2249.56	203.592
2249.8	214.975
2250.04	209.315
2250.27	211.198
2250.51	203.593
2250.75	206.385
2250.98	194.984
2251.22	206.279
2251.46	199.615
2251.69	207.143
2251.93	209.015
2252.17	209.015
2252.4	200.52
2252.64	211.892
2252.88	213.818
2253.11	205.362
2253.35	218.718
2253.59	202.692
2253.82	208.429
2254.06	215.103
2254.3	203.761
2254.53	209.481
2254.77	204.76
2255.01	197.171
2255.24	212.314
2255.48	213.265
2255.72	212.31
2255.95	207.57
2256.19	199.036
2256.42	208.547
2256.66	202.886
2256.9	193.426
2257.13	204.836
2257.37	196.321
2257.61	215.33
2257.84	200.165
2258.08	209.674
2258.32	205.88
2258.55	202.083
2258.79	197.34
2259.02	208.749
2259.26	204.021
2259.5	210.694
2259.73	198.354
2259.97	199.313
2260.2	205.981
2260.44	202.193
2260.68	205.057
2260.91	197.463
2261.15	197.486
2261.39	204.198
2261.62	221.359
2261.86	214.702
2262.1	198.531
2262.33	195.685
2262.57	198.549
2262.8	210.943
2263.04	209.076
2263.28	211.971
2263.51	204.399
2263.75	213.029
2263.98	213.095
2264.22	201.729
2264.46	207.52
2264.69	202.813
2264.93	199.045
2265.16	204.814
2265.4	209.623
2265.64	202.011
2265.87	215.383
2266.11	199.145
2266.34	219.181
2266.58	210.531
2266.81	217.158
2267.05	205.643
2267.29	209.408
2267.52	205.549
2267.76	203.603
2267.99	205.472
2268.23	203.512
2268.47	200.609
2268.7	208.217
2268.94	205.356
2269.17	211.098
2269.41	203.504
2269.65	203.55
2269.88	201.691
2270.12	208.426
2270.35	206.581
2270.59	206.638
2270.82	199.981
2271.06	217.2
2271.3	207.681
2271.53	213.447
2271.77	207.729
2272	211.576
2272.24	210.652
2272.47	208.753
2272.71	200.14
2272.95	201.098
2273.18	190.576
2273.42	209.717
2273.65	202.065
2273.89	205.896
2274.12	200.158
2274.36	201.118
2274.6	206.862
2274.83	211.651
2275.07	206.869
2275.3	199.218
2275.54	205.923
2275.77	206.886
2276.01	223.148
2276.24	211.683
2276.48	202.147
2276.72	205.064
2276.95	206.06
2277.18	208.01
2277.42	187.916
2277.66	205.232
2277.89	202.423
2278.13	209.213
2278.36	207.374
2278.6	209.318
2278.83	205.484
2279.07	203.558
2279.3	208.345
2279.54	195.84
2279.78	199.638
2280.01	198.581
2280.24	208.111
2280.48	208.048
2280.72	212.787
2280.95	205.068
2281.19	210.783
2281.42	204.045
2281.66	206.887
2281.89	205.901
2282.13	207.833
2282.36	207.841
2282.6	222.244
2282.83	207.896
2283.07	203.141
2283.3	214.693
2283.54	198.432
2283.77	204.263
2284.01	217.797
2284.24	212.115
2284.48	200.67
2284.71	206.486
2284.95	194.961
2285.19	200.771
2285.42	208.506
2285.65	214.289
2285.89	212.363
2286.12	199.801
2286.36	195.871
2286.59	201.628
2286.83	207.407
2287.06	214.168
2287.3	213.297
2287.54	197.004
2287.77	198.952
2288	208.597
2288.24	206.72
2288.47	215.368
2288.71	204.732
2288.94	205.657
2289.18	212.353
2289.41	202.655
2289.65	207.383
2289.88	206.343
2290.12	201.443
2290.35	193.715
2290.59	209.069
2290.82	209.062
2291.06	210.021
2291.29	194.66
2291.53	202.397
2291.76	206.305
2292	202.495
2292.23	202.523
2292.47	212.177
2292.7	211.247
2292.94	214.179
2293.17	208.439
2293.41	208.468
2293.64	201.746
2293.88	215.254
2294.11	207.548
2294.34	199.815
2294.58	209.42
2294.81	196.854
2295.05	208.37
2295.28	201.59
2295.52	199.628
2295.75	200.555
2295.99	191.854
2296.22	203.376
2296.46	209.096
2296.69	202.269
2296.93	207.06
2297.16	193.6
2297.39	209.978
2297.63	194.61
2297.86	202.348
2298.1	207.212
2298.33	211.128
2298.57	192.859
2298.8	198.661
2299.04	195.801
2299.27	206.45
2299.51	209.38
2299.74	199.764
2299.97	216.175
2300.21	202.659
2300.44	209.405
2300.68	210.357
2300.91	205.55
2301.15	211.367
2301.38	208.492
2301.61	204.647
2301.85	213.341
2302.08	205.616
2302.32	199.81
2302.55	204.61
2302.79	210.379
2303.02	209.412
2303.25	214.225
2303.49	214.205
2303.72	198.753
2303.96	207.435
2304.19	192.97
2304.43	206.51
2304.66	189.156
2304.89	206.551
2305.13	212.368
2305.36	203.707
2305.6	208.553
2305.83	205.657
2306.07	212.43
2306.3	207.618
2306.53	203.77
2306.77	199.905
2307	223.099
2307.24	210.523
2307.47	204.709
2307.7	194.052
2307.94	213.347
2308.17	203.66
2308.41	202.668
2308.64	206.507
2308.87	197.804
2309.11	225.824
2309.34	202.659
2309.58	190.122
2309.81	202.729
2310.04	205.686
2310.28	200.887
2310.51	212.507
2310.75	198.962
2310.98	203.785
2311.21	197.952
2311.45	192.096
2311.68	214.208
2311.92	202.472
2312.15	207.221
2312.38	206.195
2312.62	212.913
2312.85	209.973
2313.08	200.289
2313.32	210.892
2313.55	193.539
2313.79	197.451
2314.02	201.383
2314.25	214.958
2314.49	207.284
2314.72	198.641
2314.95	199.674
2315.19	205.538
2315.42	187.184
2315.66	186.159
2315.89	206.411
2316.12	202.495
2316.36	208.231
2316.59	197.484
2316.82	215.769
2317.06	201.246
2317.29	205.096
2317.52	199.306
2317.76	208.966
2317.99	194.525
2318.23	208.078
2318.46	211.862
2318.69	209.888
2318.93	206.956
2319.16	210.777
2319.39	198.186
2319.63	207.799
2319.86	214.523
2320.09	209.675
2320.33	198.089
2320.56	202.912
2320.79	215.447
2321.03	201.949
2321.26	205.832
2321.5	211.651
2321.73	215.545
2321.96	207.858
2322.2	205.011
2322.43	205.068
2322.66	205.113
2322.9	212.86
2323.13	211.876
2323.36	202.21
2323.6	209.952
2323.83	209.957
2324.06	204.162
2324.3	207.061
2324.53	199.309
2324.76	208.961
2325	215.669
2325.23	208.829
2325.46	216.475
2325.7	208.689
2325.93	229.884
2326.16	208.591
2326.4	215.297
2326.63	232.613
2326.86	232.555
2327.09	243.107
2327.33	240.153
2327.56	249.733
2327.79	253.544
2328.03	260.24
2328.26	255.384
2328.49	240.931
2328.73	234.177
2328.96	237.067
2329.19	225.447
2329.43	220.578
2329.66	210.878
2329.89	207.96
2330.13	216.611
2330.36	216.632
2330.59	212.756
2330.82	208.877
2331.06	204.035
2331.29	218.464
2331.52	203.062
2331.76	201.158
2331.99	212.744
2332.22	210.86
2332.46	202.124
2332.69	209.781
2332.92	198.186
2333.16	202.002
2333.39	200.041
2333.62	197.12
2333.85	192.277
2334.09	205.725
2334.32	207.613
2334.55	203.721
2334.79	209.432
2335.02	199.774
2335.25	212.247
2335.48	211.27
2335.72	201.634
2335.95	201.634
2336.18	206.448
2336.41	193.931
2336.65	207.365
2336.88	193.882
2337.11	199.634
2337.34	194.811
2337.58	214.983
2337.81	188.047
2338.04	209.172
2338.28	196.653
2338.51	193.752
2338.74	211.035
2338.97	209.099
2339.21	200.448
2339.44	193.716
2339.67	202.358
2339.91	209.072
2340.14	196.552
2340.37	202.286
2340.6	208.008
2340.84	208.925
2341.07	200.226
2341.3	213.604
2341.53	201.049
2341.77	193.288
2342	200.897
2342.23	205.648
2342.46	187.386
2342.7	195.019
2342.93	213.204
2343.16	205.514
2343.39	197.833
2343.63	204.537
2343.86	207.395
2344.09	213.13
2344.32	207.373
2344.56	210.255
2344.79	207.379
2345.02	192.985
2345.25	198.716
2345.49	204.437
2345.72	205.354
2345.95	214.873
2346.18	205.246
2346.41	201.368
2346.65	200.388
2346.88	203.241
2347.11	202.265
2347.34	198.409
2347.58	207.959
2347.81	205.075
2348.04	199.327
2348.27	205.076
2348.5	187.856
2348.74	208.932
2348.97	208.923
2349.2	206.022
2349.43	211.724
2349.67	201.098
2349.9	203.874
2350.13	202.806
2350.36	190.254
2350.59	204.43
2350.83	204.154
2351.06	205.614
2351.29	209.746
2351.52	202.81
2351.75	213.545
2351.99	202.588
2352.22	205.215
2352.45	197.59
2352.68	211.925
2352.91	197.477
2353.15	202.053
2353.38	193.329
2353.61	208.614
2353.84	199.061
2354.07	205.682
2354.31	204.724
2354.54	201.851
2354.77	207.609
2355	204.792
2355.23	202.872
2355.47	207.615
2355.7	202.824
2355.93	210.418
2356.16	207.528
2356.39	202.721
2356.63	205.504
2356.86	201.591
2357.09	206.262
2357.32	210.967
2357.55	198.56
2357.79	201.372
2358.02	204.185
2358.25	198.445
2358.48	211.721
2358.71	205.994
2358.94	197.391
2359.18	196.412
2359.41	200.19
2359.64	215.368
2359.87	207.735
2360.1	209.591
2360.33	210.486
2360.57	215.175
2360.8	201.831
2361.03	215.058
2361.26	201.719
2361.49	202.61
2361.72	205.395
2361.96	195.856
2362.19	209.063
2362.42	210.89
2362.65	208.931
2362.88	206.035
2363.11	194.624
2363.34	205.939
2363.58	203.06
2363.81	208.705
2364.04	201.104
2364.27	198.233
2364.5	187.791
2364.73	201.941
2364.97	204.739
