#Acq. time (s)=	60
#Accumulations=	2
#Range (cm-¹)=	100...4000
#Windows=	1
#Auto scanning=	Off
#Autofocus=	Off
#Macrospot=	Off
#AutoExposure=	Off
#Spike filter=	Multiple accum.
#Delay time (s)=	2
#Binning=	1
#Readout mode=	Signal
#DeNoise=	Off
#ICS correction=	On
#Dark correction=	Off
#Inst. Process=	Off
#Detector Gain=	Best Dynamic
#Detector ADC=	50 kHz HS
#Detector temperature (°C)=	-60.09
#Instrument=	LabRAM HR Evol
#Detector=	SIN-EM FIVIS
#Objective=	x100_VIS
#Grating=	150 (500nm)
#ND Filter=	100%
#Laser=	633nm_Edge
#Hole=	49.98
#Temperature=	0
#Range=	Visible
#StageXY=	75x50mm Scan+
#StageZ=	Z motor
#X (µm)=	0
#Y (µm)=	0
#Z (µm)=	-270.7
#Full time(mm:ss)=	2:04
#Project=	21_11_04
#Sample=	BU19w
#Site=	
#Title=	BU19w-E-FF11-FI09-V_150 (500nm)_633nm_Edge_100%_x100_VIS_H50um_60sX2
#Remark=	
#Date=	04.11.2021 16:10
#Acquired=	04.11.2021 16:10:44
102.881	232.153
106.139	216.042
109.397	207.563
112.653	197.165
115.908	181.019
119.161	184.903
122.414	189.752
125.664	182.161
128.914	173.613
132.162	188.958
135.409	191.856
138.654	175.59
141.898	182.291
145.14	182.313
148.383	168.93
151.622	179.486
154.861	205.389
158.098	219.81
161.335	232.331
164.569	196.942
167.801	167.269
171.034	147.157
174.264	136.611
177.494	139.462
180.721	121.216
183.949	129.774
187.173	118.205
190.396	122.892
193.62	124.704
196.84	112.201
200.061	118.827
203.279	118.821
206.496	127.397
209.712	114.967
212.926	118.759
216.139	129.229
219.352	161.621
222.562	168.25
225.772	217.726
228.979	268.025
232.185	273.559
235.392	238.229
238.595	196.29
241.797	171.497
244.999	156.278
248.199	151.502
251.397	152.405
254.595	149.503
257.791	159.902
260.985	162.714
264.178	167.426
267.371	164.558
270.561	164.547
273.75	175.922
276.939	179.717
280.125	179.702
283.31	173.982
286.494	155.931
289.678	149.248
292.859	147.289
296.039	136.811
299.217	132.023
302.396	148.045
305.572	147.026
308.746	166.803
311.919	215.85
315.093	284.689
318.263	341.207
321.433	391.146
324.601	369.39
327.768	302.351
330.935	224.034
334.099	189.115
337.262	168.344
340.423	157.01
343.584	159.818
346.743	161.664
349.902	170.11
353.058	161.573
356.213	181.281
359.367	181.197
362.52	168.876
365.671	157.503
368.821	145.205
371.971	130.104
375.119	121.581
378.265	115.889
381.41	114.891
384.553	114.86
387.696	109.248
390.837	123.364
393.976	108.421
397.116	116.965
400.253	115.226
403.389	107.817
406.524	119.243
409.657	115.593
412.789	119.472
415.92	127.106
419.05	130.984
422.178	144.289
425.305	145.226
428.431	168.73
431.555	174.201
434.678	172.114
437.8	159.659
440.921	166.991
444.04	167.717
447.158	173.111
450.275	175.661
453.391	183.833
456.505	176.124
459.618	152.603
462.73	145.955
465.84	128.173
468.949	128.114
472.057	127.147
475.164	125.283
478.27	119.712
481.374	120.653
484.477	122.522
487.579	123.459
490.679	120.674
493.778	118.828
496.876	131.887
499.973	140.294
503.068	123.547
506.162	156.221
509.255	156.264
512.346	159.123
515.436	151.72
518.525	147.139
521.613	156.607
524.7	154.877
527.785	149.419
530.869	163.67
533.952	140.415
537.033	140.61
540.113	132.298
543.192	126.773
546.27	128.758
549.347	110.871
552.423	124.135
555.497	125.125
558.568	115.671
561.64	112.773
564.711	105.143
567.78	109.746
570.848	106.784
573.915	103.808
576.979	105.512
580.043	110.958
583.107	108.935
586.169	113.467
589.228	135.737
592.287	129.119
595.345	143.958
598.402	143.002
601.458	141.195
604.511	142.23
607.565	144.207
610.617	137.806
613.667	147.308
616.716	139.09
619.764	145.858
622.811	137.636
625.856	128.469
628.9	118.26
631.944	102.315
634.986	107.061
638.026	108.931
641.066	113.592
644.104	121.015
647.14	127.507
650.177	120.825
653.211	121.623
656.244	109.268
659.276	102.565
662.308	112.714
665.336	95.7565
668.365	92.8396
671.393	92.7718
674.418	87.1909
677.443	84.3986
680.467	84.3943
683.489	78.8248
686.511	80.7336
689.53	81.7381
692.549	79.9582
695.567	82.8585
698.582	81.0759
701.598	85.8527
704.611	82.1798
707.624	86.9465
710.635	79.4701
713.646	88.8413
716.655	83.1736
719.662	85.0231
722.669	78.4302
725.674	81.2042
728.679	81.135
731.681	89.4967
734.683	80.0535
737.683	80.9159
740.683	87.3879
743.681	77.9777
746.678	76.992
749.673	75.0797
752.669	78.7885
755.661	82.4934
758.654	86.2421
761.645	87.2431
764.635	78.0034
767.623	88.4037
770.611	85.7192
773.597	88.6597
776.582	90.6564
779.565	91.6964
782.549	85.187
785.53	79.5932
788.511	85.2944
791.489	89.1043
794.466	72.1505
797.444	84.4165
800.419	83.4556
803.394	79.6522
806.366	81.4928
809.339	92.7445
812.309	85.1425
815.278	85.9984
818.247	77.4535
821.214	82.0515
824.18	86.6334
827.145	79.9763
830.108	86.4406
833.072	81.7434
836.033	89.2235
838.992	90.2005
841.952	81.8704
844.909	91.3046
847.865	85.766
850.822	79.2924
853.776	87.8421
856.728	95.4802
859.681	91.8419
862.631	90.0819
865.58	97.7628
868.528	93.1674
871.476	101.796
874.422	109.459
877.366	105.724
880.311	109.565
883.253	108.647
886.194	106.759
889.134	109.595
892.074	108.62
895.012	110.479
897.948	110.403
900.883	107.445
903.818	105.423
906.751	103.405
909.683	107.983
912.614	101.248
915.543	106.764
918.473	117.957
921.4	120.712
924.326	115.059
927.251	116.011
930.174	127.365
933.098	130.264
936.019	134.179
938.94	145.722
941.859	162.994
944.777	165.189
947.693	179.749
950.61	186.765
953.525	195.688
956.438	188.397
959.35	189.638
962.261	192.765
965.171	195.845
968.08	196.045
970.988	226.898
973.894	246.208
976.801	288.476
979.705	307.563
982.608	320.803
985.51	320.565
988.411	300.193
991.311	258.792
994.209	252.815
997.107	211.533
1000	214.242
1002.9	195.989
1005.79	202.581
1008.68	214.939
1011.58	222.646
1014.47	234.209
1017.36	263.899
1020.25	243.989
1023.13	240.381
1026.02	216.735
1028.9	200.718
1031.79	173.158
1034.67	158.035
1037.55	144.81
1040.43	158.526
1043.31	151.047
1046.19	151.29
1049.07	144.714
1051.94	140.997
1054.82	126.585
1057.69	125.713
1060.56	126.75
1063.44	115.127
1066.31	130.647
1069.17	116.056
1072.04	124.779
1074.91	120.864
1077.77	135.372
1080.64	153.737
1083.5	163.358
1086.37	176.848
1089.23	200.049
1092.09	230.98
1094.95	241.563
1097.8	245.35
1100.66	211.408
1103.52	188.154
1106.37	168.873
1109.22	159.215
1112.08	148.663
1114.93	149.86
1117.78	134.575
1120.63	142.551
1123.48	131.999
1126.32	140.918
1129.17	143.05
1132.01	157.894
1134.86	163.969
1137.7	185.728
1140.54	197.745
1143.38	212.697
1146.22	238.407
1149.06	264.179
1151.89	250.542
1154.73	213.173
1157.56	166.875
1160.4	136.301
1163.23	122.41
1166.06	116.399
1168.89	112.367
1171.72	113.24
1174.55	100.393
1177.38	104.2
1180.2	95.3102
1183.03	92.3127
1185.85	80.5682
1188.67	97.171
1191.49	78.6236
1194.31	78.6677
1197.13	82.6312
1199.95	82.718
1202.77	75.0005
1205.58	76.1071
1208.4	83.1371
1211.21	76.3914
1214.02	70.6228
1216.84	73.7504
1219.65	68.9618
1222.46	71.1177
1225.27	79.2663
1228.07	72.4579
1230.88	77.626
1233.68	80.792
1236.49	75.9116
1239.29	63.9461
1242.09	73.0963
1244.89	80.2261
1247.69	77.2476
1250.49	79.292
1253.29	83.3552
1256.08	81.3265
1258.88	75.2353
1261.67	83.257
1264.47	81.1822
1267.26	75.0829
1270.05	87.1069
1272.84	139.331
1275.63	186.415
1278.42	127.984
1281.2	86.7325
1283.99	80.6389
1286.77	77.5706
1289.56	82.5191
1292.34	82.4764
1295.12	77.4572
1297.9	75.4508
1300.68	75.4503
1303.46	77.4743
1306.23	68.5216
1309.01	69.5893
1311.78	74.7025
1314.56	80.8451
1317.33	75.9459
1320.1	75.0691
1322.87	64.1027
1325.64	74.3444
1328.41	68.4135
1331.18	74.6461
1333.94	76.8174
1336.71	75.9316
1339.47	72.9919
1342.24	65.9307
1345	71.1192
1347.76	72.2139
1350.52	70.2308
1353.28	75.42
1356.04	69.3096
1358.79	72.4267
1361.55	79.6447
1364.3	73.4874
1367.06	76.5653
1369.81	74.4982
1372.56	78.5924
1375.31	113.503
1378.06	252.124
1380.81	227.427
1383.56	108.297
1386.3	80.562
1389.05	73.3606
1391.79	69.2551
1394.53	83.634
1397.28	76.5096
1400.02	94.0367
1402.76	76.6173
1405.5	74.6181
1408.23	72.6216
1410.97	74.7513
1413.71	81.0203
1416.44	76.9789
1419.17	80.1688
1421.91	75.0859
1424.64	75.182
1427.37	77.3535
1430.1	77.4556
1432.83	75.4729
1435.55	64.1028
1438.28	73.576
1441.01	73.6609
1443.73	78.99
1446.45	79.0837
1449.17	69.7193
1451.89	70.8136
1454.62	71.8986
1457.33	77.1693
1460.05	75.0803
1462.77	75.0809
1465.48	83.4736
1468.2	64.564
1470.91	71.9028
1473.63	70.847
1476.34	75.0481
1479.05	80.3121
1481.76	71.9289
1484.47	67.7496
1487.17	76.1857
1489.88	68.8688
1492.59	75.2299
1495.29	78.4544
1497.99	77.471
1500.7	65.9443
1503.4	77.6348
1506.1	77.7261
1508.8	77.8297
1511.5	78.9969
1514.19	76.9916
1516.89	65.4138
1519.59	77.2425
1522.28	75.2375
1524.97	75.372
1527.67	66.9329
1530.36	70.271
1533.05	77.9329
1535.74	79.148
1538.42	78.1828
1541.11	79.3699
1543.8	74.0467
1546.48	78.4131
1549.16	73.0191
1551.85	76.2544
1554.53	76.2141
1557.21	69.6774
1559.89	77.1976
1562.57	81.4785
1565.25	71.7299
1567.93	76.0045
1570.6	78.1185
1573.28	80.2324
1575.95	78.0474
1578.62	76.9651
1581.29	71.5843
1583.97	78.0497
1586.64	82.3697
1589.3	77.0049
1591.97	74.8786
1594.64	78.1495
1597.3	83.5935
1599.97	70.699
1602.63	80.4832
1605.3	77.3186
1607.96	77.4123
1610.62	80.774
1613.28	74.3909
1615.94	75.6135
1618.59	82.2993
1621.25	73.7212
1623.91	77.1445
1626.56	81.6752
1629.21	77.4348
1631.87	88.5779
1634.52	78.7981
1637.17	80.0066
1639.82	75.6373
1642.47	83.4235
1645.12	77.9628
1647.76	79.1245
1650.41	84.7085
1653.05	85.8623
1655.7	82.5706
1658.34	84.8079
1660.98	83.713
1663.62	82.6161
1666.26	84.839
1668.9	77.0783
1671.54	83.7335
1674.18	75.9706
1676.81	81.5056
1679.45	82.6107
1682.08	87.0233
1684.71	85.8763
1687.34	88.052
1689.98	82.4835
1692.61	79.1449
1695.23	81.3598
1697.86	83.6022
1700.49	87.0019
1703.12	80.5591
1705.74	89.6638
1708.36	83.1618
1710.99	87.5548
1713.61	88.6333
1716.23	74.1998
1718.85	85.5048
1721.47	83.363
1724.09	85.6555
1726.7	80.1346
1729.32	82.4628
1731.94	87.041
1734.55	82.632
1737.16	84.9624
1739.77	86.1703
1742.39	87.38
1745	88.5921
1747.61	77.3696
1750.21	84.2043
1752.82	79.7314
1755.43	89.9573
1758.03	84.3274
1760.64	80.9456
1763.24	78.6939
1765.84	80.976
1768.44	88.9275
1771.05	83.2887
1773.64	92.3847
1776.24	90.1581
1778.84	89.0786
1781.44	94.8228
1784.03	89.2169
1786.63	84.7462
1789.22	81.4222
1791.81	81.5128
1794.41	93.0187
1797	82.8454
1799.59	89.8232
1802.18	85.3629
1804.76	83.1875
1807.35	89.0395
1809.94	86.8376
1812.52	94.9902
1815.11	81.2606
1817.69	90.5826
1820.27	80.2812
1822.85	87.3091
1825.43	90.8816
1828.01	85.1907
1830.59	87.6148
1833.17	85.3957
1835.74	86.6713
1838.32	89.0949
1840.89	92.6768
1843.47	90.4269
1846.04	88.1691
1848.61	87.0707
1851.18	89.4823
1853.75	78.9971
1856.32	88.4245
1858.89	89.6709
1861.45	85.0649
1864.02	87.4956
1866.58	91.1199
1869.15	88.8553
1871.71	86.571
1874.27	81.9146
1876.83	92.5845
1879.39	87.9185
1881.95	96.2381
1884.51	88.015
1887.07	95.1495
1889.63	85.7099
1892.18	89.2601
1894.74	96.355
1897.29	86.9077
1899.84	90.4841
1902.39	94.1002
1904.94	84.7119
1907.49	93.0964
1910.04	78.9656
1912.59	82.6548
1915.14	85.1796
1917.68	90.0823
1920.23	98.4743
1922.77	102.128
1925.32	84.2938
1927.86	91.5573
1930.4	89.25
1932.94	98.9271
1935.48	97.8128
1938.02	95.4882
1940.56	91.9496
1943.09	85.9934
1945.63	87.2431
1948.16	89.6941
1950.7	84.9081
1953.23	105.409
1955.76	92.1753
1958.29	87.3686
1960.82	100.636
1963.35	90.9992
1965.88	95.8214
1968.41	86.1663
1970.93	94.5782
1973.46	101.777
1975.98	94.5245
1978.51	106.537
1981.03	99.2851
1983.55	93.2421
1986.07	99.2336
1988.59	95.6057
1991.11	93.184
1993.63	90.7668
1996.15	91.9611
1998.66	95.5668
2001.18	102.785
2003.69	90.7759
2006.2	94.4077
2008.72	93.2332
2011.23	96.8828
2013.74	100.534
2016.25	86.1214
2018.76	90.9637
2021.27	103.044
2023.77	104.302
2026.28	109.192
2028.78	95.9875
2031.29	87.6093
2033.79	107.046
2036.29	102.305
2038.79	93.9213
2041.3	101.294
2043.79	95.3269
2046.29	108.803
2048.79	104.056
2051.29	105.388
2053.78	103.021
2056.28	104.339
2058.77	97.1255
2061.27	94.7878
2063.76	99.7916
2066.25	99.9068
2068.74	93.8782
2071.23	102.576
2073.72	101.456
2076.21	101.559
2078.69	101.658
2081.18	105.452
2083.66	106.774
2086.15	101.91
2088.63	100.737
2091.11	99.5816
2093.59	92.2481
2096.07	107.228
2098.55	98.6644
2101.03	109.965
2103.51	106.371
2105.99	104.019
2108.46	102.915
2110.94	100.565
2113.41	114.482
2115.89	107.142
2118.36	107.308
2120.83	106.216
2123.3	106.375
2125.77	97.706
2128.24	100.369
2130.71	104.297
2133.17	105.695
2135.64	98.2181
2138.11	104.674
2140.57	95.8983
2143.03	113.804
2145.49	105.007
2147.96	119.113
2150.42	106.452
2152.88	111.625
2155.34	105.307
2157.79	107.914
2160.25	110.515
2162.71	99.0472
2165.16	105.459
2167.62	113.142
2170.07	105.492
2172.52	102.972
2174.97	103.012
2177.43	112.005
2179.88	103.056
2182.32	104.339
2184.77	110.727
2187.22	119.686
2189.67	110.739
2192.11	109.484
2194.56	108.234
2197	112.126
2199.44	112.192
2201.89	107.138
2204.33	111.076
2206.77	111.175
2209.21	111.285
2211.64	107.541
2214.08	108.949
2216.52	114.244
2218.95	106.633
2221.39	104.181
2223.82	110.793
2226.26	103.149
2228.69	107.177
2231.12	108.614
2233.55	104.845
2235.98	110.194
2238.41	110.333
2240.84	111.778
2243.26	105.375
2245.69	110.754
2248.12	103.022
2250.54	108.408
2252.96	104.594
2255.39	112.626
2257.81	114.092
2260.23	110.277
2262.65	117.02
2265.07	110.526
2267.49	114.607
2269.9	102.769
2272.32	113.463
2274.74	98.9299
2277.15	106.96
2279.57	113.66
2281.98	109.709
2284.39	115.053
2286.8	111.075
2289.21	113.753
2291.62	120.42
2294.03	120.432
2296.44	116.462
2298.84	119.167
2301.25	115.221
2303.66	111.288
2306.06	119.374
2308.46	118.143
2310.87	111.581
2313.27	102.336
2315.67	117.189
2318.07	117.34
2320.47	130.915
2322.87	129.732
2325.26	123.175
2327.66	115.255
2330.06	115.414
2332.45	114.235
2334.85	122.534
2337.24	122.726
2339.63	114.77
2342.02	113.602
2344.41	109.709
2346.8	122.207
2349.19	121.054
2351.58	118.523
2353.97	114.598
2356.35	110.637
2358.74	112.162
2361.12	115.02
2363.51	122.035
2365.89	119.409
2368.27	123.684
2370.65	118.28
2373.03	110.091
2375.41	128.221
2377.79	115.861
2380.17	125.672
2382.55	113.252
2384.92	123.04
2387.3	118.922
2389.67	127.312
2392.05	118.987
2394.42	123.182
2396.79	119.007
2399.16	113.437
2401.53	121.791
2403.9	121.777
2406.27	118.982
2408.64	123.179
2411.01	124.656
2413.37	117.817
2415.74	127.82
2418.1	126.786
2420.47	127.055
2422.83	125.79
2425.19	123.046
2427.55	120.363
2429.91	120.516
2432.27	120.677
2434.63	120.851
2436.99	132.362
2439.34	118.385
2441.7	117.141
2444.05	127.269
2446.41	118.914
2448.76	123.373
2451.11	123.559
2453.47	133.752
2455.82	119.619
2458.17	122.665
2460.51	121.405
2462.86	125.899
2465.21	118.872
2467.56	129.134
2469.9	130.749
2472.25	116.447
2474.59	116.596
2476.94	131.254
2479.28	124.166
2481.62	122.867
2483.96	120.101
2486.3	127.513
2488.64	136.399
2490.98	127.775
2493.32	129.366
2495.65	136.823
2497.99	117.918
2500.32	119.498
2502.66	125.479
2504.99	132.933
2507.32	130.102
2509.66	114.017
2511.99	133.234
2514.32	131.845
2516.65	131.926
2518.98	132.023
2521.3	127.702
2523.63	136.67
2525.96	130.856
2528.28	133.916
2530.61	129.575
2532.93	119.312
2535.25	129.808
2537.57	123.995
2539.89	136.012
2542.22	124.248
2544.53	124.377
2546.85	134.957
2549.17	138.091
2551.49	135.255
2553.8	142.882
2556.12	138.525
2558.43	134.151
2560.75	123.789
2563.06	137.444
2565.37	131.597
2567.68	130.255
2569.99	136.458
2572.3	132.109
2574.61	144.371
2576.92	129.409
2579.23	125.004
2581.53	143.325
2583.84	140.394
2586.14	142.005
2588.45	134.486
2590.75	123.881
2593.05	130.026
2595.35	134.678
2597.66	140.885
2599.96	128.796
2602.26	131.932
2604.55	138.117
2606.85	153.467
2609.15	139.803
2611.44	129.155
2613.74	127.676
2616.03	139.963
2618.33	127.787
2620.62	133.965
2622.91	144.749
2625.2	137.164
2627.49	129.577
2629.78	138.89
2632.07	142.106
2634.36	125.352
2636.64	139.387
2638.93	136.525
2641.22	141.371
2643.5	146.24
2645.78	149.586
2648.07	151.371
2650.35	137.609
2652.63	136.269
2654.91	147.336
2657.19	150.592
2659.47	149.159
2661.75	144.585
2664.03	141.554
2666.3	154.155
2668.58	152.716
2670.85	143.447
2673.13	131.061
2675.4	137.55
2677.67	144.143
2679.95	136.624
2682.22	141.694
2684.49	151.535
2686.76	140.749
2689.03	134.686
2691.29	142.933
2693.56	143.201
2695.83	140.103
2698.09	143.445
2700.36	154.839
2702.62	137.333
2704.89	161.581
2707.15	152.079
2709.41	137.717
2711.67	141.058
2713.93	139.575
2716.19	133.283
2718.45	146.349
2720.7	143.254
2722.96	145.003
2725.22	140.242
2727.47	158.179
2729.73	145.282
2731.98	146.959
2734.23	142.152
2736.49	147.079
2738.74	145.497
2740.99	145.575
2743.24	148.918
2745.49	147.392
2747.73	149.139
2749.98	147.653
2752.23	138.089
2754.47	148.093
2756.72	138.419
2758.96	154.933
2761.21	146.834
2763.45	145.316
2765.69	137.24
2767.93	142.319
2770.17	150.675
2772.41	150.827
2774.65	146.051
2776.89	149.549
2779.13	134.862
2781.36	150.008
2783.6	148.598
2785.84	145.525
2788.07	144.102
2790.3	140.999
2792.54	161.275
2794.77	144.783
2797	153.358
2799.23	141.812
2801.46	140.304
2803.69	147.19
2805.92	154.078
2808.14	147.487
2810.37	159.435
2812.59	149.446
2814.82	154.627
2817.04	156.431
2819.27	143.011
2821.49	144.819
2823.71	138.16
2825.93	141.672
2828.15	136.692
2830.37	145.294
2832.59	152.204
2834.81	147.203
2837.03	142.198
2839.24	144.004
2841.46	157.752
2843.67	142.511
2845.89	154.596
2848.1	161.574
2850.31	158.309
2852.53	153.347
2854.74	163.83
2856.95	160.602
2859.16	152.2
2861.37	159.293
2863.57	147.453
2865.78	149.412
2867.99	147.917
2870.19	163.741
2872.4	141.432
2874.6	159.032
2876.81	164.506
2879.01	154.314
2881.21	161.565
2883.41	144.354
2885.61	153.383
2887.81	155.408
2890.01	153.914
2892.21	150.646
2894.41	150.895
2896.6	161.782
2898.8	151.459
2901	144.636
2903.19	159.089
2905.38	166.453
2907.58	166.703
2909.77	166.945
2911.96	158.205
2914.15	161.961
2916.34	165.719
2918.53	155.155
2920.72	144.572
2922.91	157.341
2925.09	157.555
2927.28	155.98
2929.47	148.985
2931.65	160.06
2933.83	156.649
2936.02	162.273
2938.2	151.549
2940.38	158.954
2942.56	162.742
2944.74	155.604
2946.92	155.71
2949.1	170.398
2951.28	148.639
2953.46	143.272
2955.63	145.199
2957.81	165.404
2959.98	169.18
2962.16	149.174
2964.33	143.796
2966.5	162.253
2968.68	164.234
2970.85	158.874
2973.02	157.185
2975.19	157.334
2977.36	166.69
2979.52	168.69
2981.69	154.1
2983.86	165.366
2986.03	150.771
2988.19	167.64
2990.36	162.303
2992.52	155.105
2994.68	172.061
2996.85	166.728
2999.01	166.987
3001.17	178.468
3003.33	163.791
3005.49	164.072
3007.65	164.348
3009.8	168.381
3011.96	161.093
3014.12	178.344
3016.27	174.876
3018.43	165.725
3020.58	169.822
3022.74	172.013
3024.89	160.859
3027.04	168.706
3029.19	163.199
3031.34	178.689
3033.49	173.145
3035.64	169.483
3037.79	184.955
3039.94	167.897
3042.09	191.121
3044.23	179.761
3046.38	179.92
3048.52	172.371
3050.67	172.517
3052.81	190.024
3054.95	184.405
3057.09	171.047
3059.24	178.937
3061.38	175.221
3063.51	183.126
3065.65	181.349
3067.79	197.037
3069.93	173.894
3072.07	191.548
3074.2	191.722
3076.34	182.159
3078.47	188.181
3080.61	200.066
3082.74	188.529
3084.87	210.25
3087	188.955
3089.14	185.281
3091.27	171.801
3093.39	185.826
3095.52	184.161
3097.65	194.327
3099.78	196.618
3101.91	187.052
3104.03	193.335
3106.16	195.681
3108.28	196.05
3110.41	198.429
3112.53	190.833
3114.65	203.214
3116.77	203.614
3118.89	218.085
3121.01	202.427
3123.13	210.934
3125.25	189.144
3127.37	215.931
3129.49	200.181
3131.61	214.937
3133.72	209.336
3135.84	205.748
3137.95	214.443
3140.06	204.644
3142.18	190.66
3144.29	226.168
3146.4	214.201
3148.51	202.18
3150.62	210.851
3152.73	211.181
3154.84	215.669
3156.95	211.813
3159.06	241.382
3161.16	212.439
3163.27	210.662
3165.37	229.846
3167.48	230.148
3169.58	217.807
3171.69	232.886
3173.79	212.087
3175.89	243.994
3177.99	227.299
3180.09	221.133
3182.19	229.762
3184.29	219.319
3186.39	219.455
3188.49	236.512
3190.58	232.427
3192.68	228.37
3194.77	220.064
3196.87	224.564
3198.96	218.484
3201.06	231.695
3203.15	225.684
3205.24	238.952
3207.33	235.137
3209.42	222.697
3211.51	218.837
3213.6	217.135
3215.69	226.275
3217.78	226.757
3219.86	218.512
3221.95	210.235
3224.04	215.019
3226.12	219.832
3228.2	209.311
3230.29	225.083
3232.37	203.525
3234.45	212.701
3236.53	213.072
3238.61	231.166
3240.7	200.6
3242.77	218.779
3244.85	212.601
3246.93	210.779
3249.01	202.242
3251.08	211.495
3253.16	223.002
3255.23	191.849
3257.31	205.545
3259.38	199.122
3261.46	201.704
3263.53	195.29
3265.6	209.262
3267.67	207.635
3269.74	207.968
3271.81	206.203
3273.88	211.107
3275.95	190.748
3278.02	206.956
3280.08	202.589
3282.15	195.921
3284.21	205.295
3286.28	200.91
3288.34	210.301
3290.41	192.097
3292.47	215.298
3294.53	190.135
3296.59	215.671
3298.65	195.089
3300.71	181.441
3302.77	202.437
3304.83	195.689
3306.89	195.883
3308.95	189.107
3311	198.566
3313.06	198.729
3315.11	177.981
3317.17	189.781
3319.22	182.982
3321.27	204.179
3323.33	199.758
3325.38	200.002
3327.43	209.641
3329.48	181.773
3331.53	189.129
3333.58	189.477
3335.63	192.168
3337.67	194.871
3339.72	183.312
3341.77	181.163
3343.81	171.868
3345.86	195.774
3347.9	207.796
3349.95	198.482
3351.99	217.692
3354.03	198.826
3356.07	179.975
3358.11	184.952
3360.15	177.99
3362.19	192.549
3364.23	175.995
3366.27	185.766
3368.31	183.563
3370.34	190.969
3372.38	193.558
3374.42	188.914
3376.45	201.101
3378.48	177.144
3380.52	191.738
3382.55	208.76
3384.58	191.989
3386.61	184.858
3388.64	187.384
3390.68	172.967
3392.7	182.74
3394.73	182.856
3396.76	187.838
3398.79	195.256
3400.82	202.668
3402.84	200.341
3404.87	193.144
3406.89	188.378
3408.92	181.173
3410.94	193.402
3412.96	193.477
3414.98	195.987
3417	183.891
3419.03	179.089
3421.05	191.34
3423.06	167.02
3425.08	206.107
3427.1	184.242
3429.12	174.577
3431.14	177.127
3433.15	194.359
3435.17	177.378
3437.18	189.767
3439.2	199.738
3441.21	177.841
3443.22	187.837
3445.23	175.758
3447.25	193.213
3449.26	178.668
3451.27	178.891
3453.28	196.433
3455.28	181.881
3457.29	184.662
3459.3	189.946
3461.31	195.254
3463.31	180.648
3465.32	178.471
3467.32	176.287
3469.33	169.071
3471.33	189.422
3473.33	164.526
3475.34	182.377
3477.34	190.213
3479.34	180.409
3481.34	190.786
3483.34	191.065
3485.34	186.27
3487.33	173.841
3489.33	168.997
3491.33	194.675
3493.32	184.737
3495.32	177.304
3497.32	182.613
3499.31	190.477
3501.3	177.869
3503.3	193.387
3505.29	178.169
3507.28	170.594
3509.27	191.208
3511.26	188.707
3513.25	178.496
3515.24	175.983
3517.23	181.173
3519.22	173.514
3521.2	176.134
3523.19	165.898
3525.18	176.251
3527.16	184.045
3529.15	176.36
3531.13	171.296
3533.11	179.164
3535.1	169.011
3537.08	171.781
3539.06	179.752
3541.04	172.176
3543.02	174.931
3545	180.27
3546.98	180.415
3548.96	149.37
3550.93	185.841
3552.91	167.657
3554.89	183.312
3556.86	178.198
3558.84	199.122
3560.81	173.204
3562.78	157.691
3564.76	168.253
3566.73	178.855
3568.7	171.227
3570.67	176.634
3572.64	171.576
3574.61	182.257
3576.58	185.104
3578.55	182.721
3580.52	180.347
3582.48	185.887
3584.45	183.526
3586.41	175.865
3588.38	165.529
3590.35	184.336
3592.31	171.323
3594.27	174.231
3596.23	179.813
3598.2	172.061
3600.16	177.621
3602.12	188.545
3604.08	151.292
3606.04	162.192
3608	181.156
3609.95	173.281
3611.91	151.942
3613.87	181.723
3615.83	163.03
3617.78	157.795
3619.74	163.327
3621.69	160.725
3623.64	163.49
3625.6	155.434
3627.55	169.005
3629.5	158.232
3631.45	169.076
3633.4	179.933
3635.35	161.043
3637.3	166.532
3639.25	172.056
3641.2	153.219
3643.15	156.081
3645.09	156.235
3647.04	175.469
3648.98	180.954
3650.93	151.095
3652.87	167.527
3654.82	164.879
3656.76	173.135
3658.7	145.933
3660.64	148.724
3662.58	176.073
3664.53	173.415
3666.47	162.574
3668.4	179.064
3670.34	138.124
3672.28	171.028
3674.22	160.192
3676.16	152.098
3678.09	154.98
3680.03	149.646
3681.96	160.811
3683.9	172.021
3685.83	147.454
3687.76	153.179
3689.69	150.631
3691.63	159.152
3693.56	167.676
3695.49	156.777
3697.42	159.769
3699.35	143.289
3701.28	157.418
3703.2	160.396
3705.13	171.79
3707.06	152.451
3708.98	141.459
3710.91	161.287
3712.83	155.889
3714.76	156.08
3716.68	144.995
3718.6	150.787
3720.53	156.583
3722.45	165.208
3724.37	148.398
3726.29	165.499
3728.21	151.485
3730.13	154.452
3732.05	168.785
3733.97	168.947
3735.88	154.898
3737.8	160.73
3739.72	152.329
3741.63	155.303
3743.55	155.429
3745.46	158.403
3747.38	144.235
3749.29	144.328
3751.2	178.724
3753.11	161.645
3755.02	153.126
3756.93	161.768
3758.84	164.679
3760.75	164.719
3762.66	161.893
3764.57	156.195
3766.48	147.63
3768.39	141.943
3770.29	133.394
3772.2	162.152
3774.1	159.352
3776.01	162.293
3777.91	156.627
3779.81	171.099
3781.72	153.95
3783.62	139.671
3785.52	165.721
3787.42	157.191
3789.32	160.182
3791.22	151.627
3793.12	160.418
3795.02	154.778
3796.92	163.619
3798.81	157.985
3800.71	137.837
3802.61	158.317
3804.5	149.769
3806.4	155.766
3808.29	155.947
3810.18	147.365
3812.08	159.203
3813.97	150.592
3815.86	165.376
3817.75	156.751
3819.64	156.902
3821.53	157.046
3823.42	145.43
3825.31	157.3
3827.2	157.426
3829.09	157.56
3830.97	154.762
3832.86	146.058
3834.75	152.099
3836.63	146.318
3838.52	158.269
3840.4	152.471
3842.28	143.766
3844.17	137.934
3846.05	161.751
3847.93	149.924
3849.81	141.067
3851.69	147.059
3853.57	153.031
3855.45	167.933
3857.33	159.031
3859.21	135.247
3861.08	159.045
3862.96	165.028
3864.84	141.335
3866.71	156.374
3868.59	150.615
3870.46	156.743
3872.34	159.773
3874.21	150.852
3876.08	156.877
3877.95	147.957
3879.82	142.024
3881.69	148.055
3883.56	142.128
3885.44	142.191
3887.3	130.28
3889.17	151.322
3891.04	172.396
3892.91	148.516
3894.77	136.649
3896.64	157.804
3898.51	151.908
3900.37	155.038
3902.23	143.108
3904.1	161.296
3905.96	140.296
3907.82	155.483
3909.69	143.51
3911.55	173.874
3913.41	140.729
3915.27	143.886
3917.13	137.966
3918.99	147.224
3920.84	156.521
3922.7	156.715
3924.56	147.758
3926.42	147.922
3928.27	145.025
3930.13	132.948
3931.98	145.305
3933.84	157.66
3935.69	151.649
3937.54	148.688
3939.4	142.674
3941.25	145.878
3943.1	164.48
3944.95	146.177
3946.8	167.879
3948.65	149.532
3950.5	152.735
3952.35	146.67
3954.19	149.858
3956.04	146.864
3957.89	168.601
3959.73	153.197
3961.58	147.064
3963.42	159.51
3965.27	156.461
3967.11	150.296
3968.96	150.311
3970.8	162.729
3972.64	144.156
3974.48	150.384
3976.32	150.408
3978.16	153.526
3980	138.02
3981.84	144.214
3983.68	134.903
3985.52	138.003
3987.36	144.198
3989.19	156.603
3991.03	153.52
3992.86	144.247
3994.7	159.805
3996.53	128.828
3998.37	150.631
