#Acq. time (s)=	60
#Accumulations=	2
#Range (cm-¹)=	100...4000
#Windows=	1
#Auto scanning=	Off
#Autofocus=	Off
#Macrospot=	Off
#AutoExposure=	Off
#Spike filter=	Multiple accum.
#Delay time (s)=	2
#Binning=	1
#Readout mode=	Signal
#DeNoise=	Off
#ICS correction=	On
#Dark correction=	Off
#Inst. Process=	Off
#Detector Gain=	Best Dynamic
#Detector ADC=	50 kHz HS
#Detector temperature (°C)=	-60.09
#Instrument=	LabRAM HR Evol
#Detector=	SIN-EM FIVIS
#Objective=	x100_VIS
#Grating=	150 (500nm)
#ND Filter=	100%
#Laser=	633nm_Edge
#Hole=	49.98
#Temperature=	0
#Range=	Visible
#StageXY=	75x50mm Scan+
#StageZ=	Z motor
#X (µm)=	0
#Y (µm)=	0
#Z (µm)=	-256.5
#Full time(mm:ss)=	2:04
#Project=	21_11_04
#Sample=	BU19w
#Site=	
#Title=	BU19w-E-FF11-FI03-L_150 (500nm)_633nm_Edge_100%_x100_VIS_H50um_60sX2
#Remark=	
#Date=	04.11.2021 16:54
#Acquired=	04.11.2021 16:54:35
102.881	490.525
106.139	483.113
109.397	470
112.653	452.095
115.908	440.846
119.161	442.908
122.414	444.03
125.664	471.898
128.914	515.099
132.162	530.518
135.409	562.17
138.654	560.262
141.898	548.788
145.14	542.155
148.383	563.261
151.622	650.458
154.861	780.861
158.098	852.902
161.335	758.308
164.569	602.328
167.801	479.761
171.034	397.372
174.264	358.064
177.494	328.287
180.721	316.696
183.949	308.871
187.173	306.759
190.396	294.079
193.62	297.665
196.84	299.362
200.061	291.58
203.279	301.108
206.496	289.626
209.712	308.647
212.926	346.737
216.139	367.659
219.352	460.071
222.562	609.608
225.772	780.861
228.979	984.981
232.185	971.967
235.392	785.062
238.595	604.08
241.797	490.739
244.999	475.484
248.199	455.457
251.397	454.368
254.595	486.48
257.791	511.971
260.985	508.067
264.178	488.05
267.371	451.942
270.561	431.994
273.75	466.123
276.939	480.351
280.125	498.331
283.31	454.628
286.494	414.711
289.678	387.097
292.859	375.563
296.039	373.509
299.217	390.391
302.396	438.46
305.572	522.391
308.746	639.331
311.919	852.537
315.093	1168.5
318.263	1534.25
321.433	1594.31
324.601	1327.07
327.768	1003.28
330.935	735.305
334.099	620.167
337.262	532.384
340.423	493.661
343.584	475.682
346.743	496.304
349.902	538.602
353.058	556.32
356.213	588.104
359.367	582.183
362.52	515.094
365.671	457.465
368.821	387.684
371.971	334.888
375.119	314.985
378.265	273.535
381.41	269.643
384.553	276.133
387.696	261.163
390.837	269.712
393.976	247.351
397.116	265.402
400.253	257.259
403.389	272.604
406.524	275.719
409.657	306.203
412.789	304.582
415.92	339.736
419.05	373.092
422.178	381.774
425.305	456.492
428.431	474.995
431.555	488.612
434.678	479.561
437.8	481.804
440.921	473.691
444.04	515.365
447.158	556.863
450.275	601.932
453.391	599.21
456.505	544.256
459.618	446.609
462.73	384.705
465.84	330.454
468.949	320.984
472.057	302.266
475.164	310.645
478.27	318.146
481.374	295.81
484.477	326.569
487.579	321.926
490.679	344.316
493.778	354.619
496.876	368.63
499.973	419.018
503.068	432.183
506.162	458.404
509.255	484.652
512.346	483.902
515.436	509.312
518.525	504.01
521.613	516.571
524.7	481.476
527.785	474.486
530.869	457.245
533.952	439.09
537.033	407.722
540.113	389.362
543.192	359.583
546.27	340.995
549.347	336.388
552.423	335.59
555.497	294.163
558.568	291.303
561.64	285.47
564.711	264.507
567.78	276.485
570.848	262.962
573.915	276.664
576.979	287.46
580.043	279.501
583.107	312.78
586.169	308.648
589.228	328.846
592.287	342.609
595.345	348.015
598.402	355.409
601.458	368.599
604.511	381.921
607.565	418.621
610.617	426.497
613.667	410.125
616.716	400.411
619.764	360.659
622.811	333.991
625.856	304.467
628.9	273.74
631.944	253.194
634.986	259.871
638.026	251.344
641.066	275.731
644.104	262.277
647.14	275.246
650.177	277.85
653.211	260.621
656.244	255.584
659.276	244.938
662.308	210.929
665.336	197.585
668.365	184.28
671.393	168.295
674.418	153.4
677.443	157.14
680.467	143.144
683.489	140.392
686.511	133
689.53	145.26
692.549	143.551
695.567	144.651
698.582	140.125
701.598	150.594
704.611	135.714
707.624	139.584
710.635	134.018
713.646	140.548
716.655	132.044
719.662	136.695
722.669	134.787
725.674	135.653
728.679	132.724
731.681	129.794
734.683	134.359
737.683	140.784
740.683	138.793
743.681	134.01
746.678	120.854
749.673	136.636
752.669	138.463
755.661	138.421
758.654	135.657
761.645	147.893
764.635	143.395
767.623	127.694
770.611	136.308
773.597	132.755
776.582	130.113
779.565	135.899
782.549	124.721
785.53	136.109
788.511	135.246
791.489	136.249
794.466	139.114
797.444	126.861
800.419	140.036
803.394	144.694
806.366	136.135
809.339	141.706
812.309	135.005
815.278	137.691
818.247	138.478
821.214	142.066
824.18	146.574
827.145	145.454
830.108	140.641
833.072	150.875
836.033	154.623
838.992	145.349
841.952	152.045
844.909	155.92
847.865	172.001
850.822	177.821
853.776	174.275
856.728	169.795
859.681	200.168
862.631	211.763
865.58	227.169
868.528	241.668
871.476	255.201
874.422	268.672
877.366	265.97
880.311	269.88
883.253	285.14
886.194	284.215
889.134	280.393
892.074	269.89
895.012	260.313
897.948	262.029
900.883	257.015
903.818	248.194
906.751	261.11
909.683	244.73
912.614	251.942
915.543	257.269
918.473	275.859
921.4	279.47
924.326	301.032
927.251	320.791
930.174	355.776
933.098	388.912
936.019	424.194
938.94	483.381
941.859	545.677
944.777	594.963
947.693	626.515
950.61	650.587
953.525	667.052
956.438	630.058
959.35	614.771
962.261	634.738
965.171	639.25
968.08	710.842
970.988	789.105
973.894	880.686
976.801	1006.55
979.705	1094.46
982.608	1148.46
985.51	1104.49
988.411	1009.74
991.311	872.046
994.209	814.839
997.107	723.415
1000	700.938
1002.9	669.986
1005.79	691.634
1008.68	724.883
1011.58	807.15
1014.47	855.268
1017.36	916.726
1020.25	892.398
1023.13	788.047
1026.02	711.447
1028.9	624.191
1031.79	542.497
1034.67	503.887
1037.55	469.068
1040.43	464.014
1043.31	437.699
1046.19	416.167
1049.07	376.062
1051.94	361.941
1054.82	354.535
1057.69	344.134
1060.56	321.974
1063.44	323.034
1066.31	311.318
1069.17	329.716
1072.04	345.206
1074.91	388.803
1077.77	423.583
1080.64	476.73
1083.5	551.153
1086.37	653.611
1089.23	792.93
1092.09	938.932
1094.95	975.452
1097.8	924.781
1100.66	789.997
1103.52	667.973
1106.37	575.331
1109.22	520.232
1112.08	469.232
1114.93	446.67
1117.78	437.735
1120.63	416.95
1123.48	439.835
1126.32	456.886
1129.17	493.595
1132.01	545.052
1134.86	610.357
1137.7	660.094
1140.54	763.993
1143.38	902.364
1146.22	1072.1
1149.06	1134.94
1151.89	1011.52
1154.73	756.69
1157.56	574.463
1160.4	442.362
1163.23	382.961
1166.06	323.658
1168.89	289.013
1171.72	266.187
1174.55	254.167
1177.38	236.284
1180.2	210.66
1183.03	197.813
1185.85	202.641
1188.67	193.854
1191.49	177.269
1194.31	171.505
1197.13	160.862
1199.95	142.432
1202.77	138.727
1205.58	136.011
1208.4	140.202
1211.21	129.619
1214.02	118.034
1216.84	127.207
1219.65	117.582
1222.46	112.893
1225.27	111.172
1228.07	120.43
1230.88	122.699
1233.68	111.904
1236.49	106.075
1239.29	117.318
1242.09	112.417
1244.89	106.464
1247.69	102.492
1250.49	117.675
1253.29	115.687
1256.08	106.583
1258.88	102.502
1261.67	110.505
1264.47	104.377
1267.26	113.38
1270.05	110.268
1272.84	108.145
1275.63	110.04
1278.42	105.901
1281.2	119.821
1283.99	104.68
1286.77	106.597
1289.56	108.525
1292.34	118.466
1295.12	111.438
1297.9	110.428
1300.68	103.432
1303.46	108.464
1306.23	101.532
1309.01	107.638
1311.78	97.7651
1314.56	96.9136
1317.33	91.0345
1320.1	103.283
1322.87	98.4254
1325.64	105.701
1328.41	103.887
1331.18	92.9268
1333.94	101.236
1336.71	100.393
1339.47	88.3049
1342.24	94.5517
1345	98.7482
1347.76	94.7487
1350.52	93.8119
1353.28	91.838
1356.04	89.8457
1358.79	101.192
1361.55	101.226
1364.3	103.293
1367.06	110.48
1369.81	117.656
1372.56	105.304
1375.31	107.34
1378.06	109.374
1380.81	100.109
1383.56	103.165
1386.3	104.166
1389.05	106.193
1391.79	102.087
1394.53	93.8959
1397.28	97.0491
1400.02	90.9535
1402.76	96.1572
1405.5	99.3192
1408.23	96.3138
1410.97	92.2791
1413.71	103.727
1416.44	91.4447
1419.17	91.5476
1421.91	95.7993
1424.64	101.107
1427.37	99.1578
1430.1	97.2094
1432.83	94.211
1435.55	94.3301
1438.28	100.71
1441.01	99.7818
1443.73	97.8221
1446.45	95.8432
1449.17	96.9779
1451.89	91.7954
1454.62	98.1389
1457.33	98.1678
1460.05	101.332
1462.77	95.0325
1465.48	93.9734
1468.2	101.308
1470.91	102.343
1473.63	101.285
1476.34	94.991
1479.05	97.1094
1481.76	80.3293
1484.47	85.606
1487.17	100.355
1489.88	94.1032
1492.59	98.3776
1495.29	92.1445
1497.99	93.2814
1500.7	95.4874
1503.4	94.5349
1506.1	96.7611
1508.8	105.361
1511.5	93.842
1514.19	93.9829
1516.89	98.3866
1519.59	103.878
1522.28	102.985
1524.97	97.8232
1527.67	99.0607
1530.36	102.456
1533.05	91.9071
1535.74	109.3
1538.42	105.142
1541.11	97.7276
1543.8	97.8281
1546.48	102.207
1549.16	100.063
1551.85	102.213
1554.53	104.321
1557.21	103.166
1559.89	98.7914
1562.57	103.062
1565.25	97.6174
1567.93	98.6441
1570.6	109.366
1573.28	101.771
1575.95	89.8891
1578.62	107.105
1581.29	106.031
1583.97	95.2744
1586.64	101.751
1589.3	111.469
1591.97	100.736
1594.64	104.02
1597.3	105.166
1599.97	98.7628
1602.63	99.9288
1605.3	105.435
1607.96	102.314
1610.62	104.627
1613.28	109.143
1615.94	107.164
1618.59	107.371
1621.25	111.947
1623.91	102.312
1626.56	106.89
1629.21	110.386
1631.87	114.986
1634.52	112.962
1637.17	109.802
1639.82	108.763
1642.47	107.732
1645.12	105.609
1647.76	112.324
1650.41	97.9961
1653.05	108.02
1655.7	101.412
1658.34	106.98
1660.98	116.976
1663.62	105.904
1666.26	100.365
1668.9	119.222
1671.54	99.2603
1674.18	105.915
1676.81	108.12
1679.45	110.332
1682.08	113.629
1684.71	114.686
1687.34	103.558
1689.98	109.055
1692.61	105.711
1695.23	96.8569
1697.86	102.427
1700.49	109.168
1703.12	101.671
1705.74	110.827
1708.36	106.603
1710.99	98.7083
1713.61	106.471
1716.23	107.673
1718.85	116.801
1721.47	113.575
1724.09	111.408
1726.7	104.791
1729.32	102.658
1731.94	111.749
1734.55	108.49
1737.16	110.845
1739.77	101.94
1742.39	111.057
1745	114.549
1747.61	116.902
1750.21	110.2
1752.82	114.791
1755.43	112.588
1758.03	118.285
1760.64	110.38
1763.24	117.192
1765.84	108.157
1768.44	108.186
1771.05	108.219
1773.64	102.587
1776.24	104.901
1778.84	109.504
1781.44	111.857
1784.03	115.357
1786.63	110.909
1789.22	108.753
1791.81	116.854
1794.41	118.128
1797	115.984
1799.59	106.987
1802.18	111.717
1804.76	109.578
1807.35	114.315
1809.94	119.042
1812.52	115.715
1815.11	114.687
1817.69	107.891
1820.27	118.4
1822.85	112.75
1825.43	108.247
1828.01	113.008
1830.59	123.589
1833.17	115.604
1835.74	112.266
1838.32	117.046
1840.89	117.158
1843.47	111.429
1846.04	117.364
1848.61	112.783
1851.18	116.385
1853.75	116.448
1856.32	115.362
1858.89	114.286
1861.45	116.744
1864.02	108.635
1866.58	116.986
1869.15	104.155
1871.71	111.306
1874.27	107.844
1876.83	118.532
1879.39	117.421
1881.95	116.312
1884.51	116.369
1887.07	119.971
1889.63	114.083
1892.18	116.452
1894.74	114.089
1897.29	117.651
1899.84	115.323
1902.39	118.957
1904.94	109.592
1907.49	114.443
1910.04	115.777
1912.59	106.44
1915.14	119.728
1917.68	118.718
1920.23	116.379
1922.77	109.295
1925.32	117.772
1927.86	122.675
1930.4	122.794
1932.94	125.308
1935.48	111.015
1938.02	117.108
1940.56	117.191
1943.09	114.858
1945.63	111.31
1948.16	113.773
1950.7	125.857
1953.23	113.841
1955.76	125.913
1958.29	117.496
1960.82	123.535
1963.35	107.873
1965.88	118.722
1968.41	117.5
1970.93	125.903
1973.46	127.071
1975.98	114.995
1978.51	122.187
1981.03	132.982
1983.55	123.32
1986.07	125.696
1988.59	119.657
1991.11	123.243
1993.63	120.822
1996.15	118.407
1998.66	122.013
2001.18	125.626
2003.69	116.025
2006.2	118.461
2008.72	126.918
2011.23	118.546
2013.74	127.022
2016.25	123.461
2018.76	119.879
2021.27	121.122
2023.77	129.623
2026.28	121.257
2028.78	123.757
2031.29	126.278
2033.79	134.866
2036.29	121.677
2038.79	123.007
2041.3	135.261
2043.79	130.543
2046.29	129.469
2048.79	132.048
2051.29	129.755
2053.78	124.966
2056.28	129.967
2058.77	137.442
2061.27	133.926
2063.76	130.403
2066.25	135.456
2068.74	129.466
2071.23	140.658
2073.72	130.971
2076.21	137.259
2078.69	142.321
2081.18	149.853
2083.66	135.164
2086.15	127.851
2088.63	134.11
2091.11	145.352
2093.59	141.777
2096.07	149.376
2098.55	153.271
2101.03	155.939
2103.51	154.891
2105.99	141.391
2108.46	152.813
2110.94	149.286
2113.41	163.277
2115.89	137.216
2118.36	148.726
2120.83	140.155
2123.3	142.883
2125.77	156.96
2128.24	149.607
2130.71	148.544
2133.17	152.53
2135.64	142.575
2138.11	149.082
2140.57	146.705
2143.03	148.136
2145.49	152.101
2147.96	147.139
2150.42	145.972
2152.88	153.723
2155.34	143.601
2157.79	147.504
2160.25	148.843
2162.71	141.222
2165.16	146.365
2167.62	148.939
2170.07	124.672
2172.52	142.626
2174.97	141.402
2177.43	149.127
2179.88	149.142
2182.32	149.148
2184.77	149.13
2187.22	138.887
2189.67	145.304
2192.11	155.583
2194.56	141.537
2197	156.977
2199.44	150.658
2201.89	145.631
2204.33	138.043
2206.77	147.162
2209.21	139.589
2211.64	144.891
2214.08	141.182
2216.52	142.644
2218.95	141.531
2221.39	143.006
2223.82	136.709
2226.26	147.263
2228.69	153.946
2231.12	141.134
2233.55	136.103
2235.98	145.404
2238.41	149.505
2240.84	144.461
2243.26	140.718
2245.69	143.522
2248.12	148.955
2250.54	134.689
2252.96	148.01
2255.39	157.412
2257.81	136.515
2260.23	140.653
2262.65	136.854
2265.07	147.589
2267.49	149.055
2269.9	130.617
2272.32	150.62
2274.74	140.095
2277.15	153.465
2279.57	141.576
2281.98	140.295
2284.39	150.966
2286.8	154.973
2289.21	145.683
2291.62	148.362
2294.03	140.393
2296.44	145.744
2298.84	139.139
2301.25	153.85
2303.66	148.606
2306.06	148.717
2308.46	135.497
2310.87	155.678
2313.27	147.818
2315.67	145.314
2318.07	145.501
2320.47	148.371
2322.87	168.719
2325.26	144.714
2327.66	152.999
2330.06	149.161
2332.45	139.922
2334.85	144.198
2337.24	151.204
2339.63	143.293
2342.02	138.091
2344.41	150.595
2346.8	152.247
2349.19	141.572
2351.58	151.409
2353.97	146.164
2356.35	155.992
2358.74	145.191
2361.12	139.815
2363.51	162.023
2365.89	149.779
2368.27	141.65
2370.65	157.016
2373.03	146.096
2375.41	144.855
2377.79	142.225
2380.17	140.947
2382.55	138.265
2384.92	149.455
2387.3	150.913
2389.67	146.791
2392.05	146.82
2394.42	151.019
2396.79	142.669
2399.16	138.491
2401.53	141.277
2403.9	144.045
2406.27	145.422
2408.64	146.84
2411.01	151.119
2413.37	151.28
2415.74	151.568
2418.1	147.801
2420.47	143.902
2422.83	138.439
2425.19	149.765
2427.55	159.781
2429.91	152.935
2432.27	151.728
2434.63	146.294
2436.99	149.35
2439.34	145.323
2441.7	144.119
2444.05	145.754
2446.41	158.79
2448.76	150.472
2451.11	154.985
2453.47	143.766
2455.82	156.866
2458.17	155.662
2460.51	153.014
2462.86	138.848
2465.21	167.862
2467.56	155.105
2469.9	139.417
2472.25	155.504
2474.59	155.702
2476.94	174.764
2479.28	163.377
2481.62	150.494
2483.96	162.318
2486.3	168.318
2488.64	158.281
2490.98	162.822
2493.32	164.448
2495.65	180.723
2497.99	169.187
2500.32	167.883
2502.66	156.298
2504.99	165.248
2507.32	160.973
2509.66	165.508
2511.99	153.845
2514.32	152.469
2516.65	165.829
2518.98	163
2521.3	149.847
2523.63	158.833
2525.96	169.3
2528.28	164.99
2530.61	172.52
2532.93	165.259
2535.25	174.314
2537.57	159.635
2539.89	173.174
2542.22	158.472
2544.53	158.637
2546.85	161.799
2549.17	163.47
2551.49	165.145
2553.8	159.34
2556.12	152.003
2558.43	168.625
2560.75	156.799
2563.06	164.482
2565.37	175.212
2567.68	151.337
2569.99	151.536
2572.3	174.384
2574.61	176.118
2576.92	171.788
2579.23	170.46
2581.53	167.592
2583.84	176.821
2586.14	167.824
2588.45	173.996
2590.75	164.921
2593.05	166.525
2595.35	181.853
2597.66	162.208
2599.96	165.377
2602.26	176.163
2604.55	173.219
2606.85	168.737
2609.15	184.112
2611.44	184.18
2613.74	165.903
2616.03	179.734
2618.33	192.063
2620.62	179.895
2622.91	181.511
2625.2	184.674
2627.49	183.248
2629.78	174.188
2632.07	182.049
2634.36	174.57
2636.64	182.512
2638.93	181.262
2641.22	195.448
2643.5	167.905
2645.78	183.688
2648.07	171.554
2650.35	188.921
2652.63	187.662
2654.91	195.669
2657.19	180.243
2659.47	186.644
2661.75	197.73
2664.03	186.914
2666.3	197.976
2668.58	195.007
2670.85	190.478
2673.13	192.275
2675.4	187.854
2677.67	189.828
2679.95	187.166
2682.22	193.938
2684.49	194.378
2686.76	201.183
2689.03	193.661
2691.29	190.844
2693.56	194.402
2695.83	197.745
2698.09	204.349
2700.36	185.325
2702.62	201.582
2704.89	193.737
2707.15	168.172
2709.41	202.146
2711.67	189.421
2713.93	202.504
2716.19	207.598
2718.45	202.948
2720.7	183.721
2722.96	196.847
2725.22	188.88
2727.47	184.137
2729.73	193.98
2731.98	203.794
2734.23	208.761
2736.49	197.459
2738.74	202.395
2740.99	191.118
2743.24	200.998
2745.49	183.222
2747.73	206.187
2749.98	198.23
2752.23	200.188
2754.47	198.822
2756.72	194.115
2758.96	195.921
2761.21	202.614
2763.45	201.144
2765.69	198.054
2767.93	201.55
2770.17	193.49
2772.41	211.817
2774.65	207.112
2776.89	187.556
2779.13	201.052
2781.36	198.077
2783.6	201.728
2785.84	200.409
2788.07	195.746
2790.3	199.401
2792.54	198.043
2794.77	193.323
2797	206.991
2799.23	195.516
2801.46	199.114
2803.69	197.655
2805.92	199.544
2808.14	191.312
2810.37	203.301
2812.59	205.172
2814.82	201.945
2817.04	197.019
2819.27	202.247
2821.49	195.633
2823.71	192.407
2825.93	197.662
2828.15	189.331
2830.37	201.373
2832.59	198.12
2834.81	191.449
2837.03	194.99
2839.24	193.425
2841.46	173.101
2843.67	198.833
2845.89	204.135
2848.1	202.609
2850.31	195.961
2852.53	192.755
2854.74	194.709
2856.95	193.237
2859.16	205.513
2861.37	192.012
2863.57	197.466
2865.78	204.685
2867.99	196.358
2870.19	193.197
2872.4	205.64
2874.6	197.269
2876.81	211.508
2879.01	187.444
2881.21	210.471
2883.41	203.845
2885.61	197.206
2887.81	204.577
2890.01	192.612
2892.21	219.362
2894.41	205.605
2896.6	204.216
2898.8	204.603
2901	204.975
2903.19	205.305
2905.38	198.498
2907.58	218.408
2909.77	193.727
2911.96	202.895
2914.15	192.384
2916.34	203.342
2918.53	203.585
2920.72	214.614
2922.91	191.506
2925.09	200.77
2927.28	199.257
2929.47	208.578
2931.65	214.318
2933.83	221.844
2936.02	207.6
2938.2	205.998
2940.38	208.003
2942.56	206.383
2944.74	210.202
2946.92	213.988
2949.1	223.249
2951.28	210.648
2953.46	214.451
2955.63	216.429
2957.81	218.406
2959.98	211.246
2962.16	207.746
2964.33	204.245
2966.5	222.754
2968.68	221.119
2970.85	212.139
2973.02	228.884
2975.19	229.1
2977.36	223.789
2979.52	235.06
2981.69	220.539
2983.86	217.101
2986.03	221.069
2988.19	226.916
2990.36	221.659
2992.52	231.264
2994.68	239.025
2996.85	230.066
2999.01	230.423
3001.17	223.318
3003.33	238.667
3005.49	227.825
3007.65	226.33
3009.8	249.279
3011.96	240.226
3014.12	267.044
3016.27	248.608
3018.43	250.955
3020.58	251.413
3022.74	255.644
3024.89	235.101
3027.04	248.77
3029.19	268.181
3031.34	272.333
3033.49	276.459
3035.64	253.746
3037.79	269.287
3039.94	269.594
3042.09	279.478
3044.23	262.432
3046.38	295.376
3048.52	268.667
3050.67	292.026
3052.81	284.554
3054.95	298.33
3057.09	292.81
3059.24	293.069
3061.38	303.007
3063.51	293.583
3065.65	299.662
3067.79	303.806
3069.93	298.243
3072.07	302.393
3074.2	294.883
3076.34	320.483
3078.47	326.635
3080.61	328.889
3082.74	335.054
3084.87	349.113
3087	322.105
3089.14	349.976
3091.27	348.511
3093.39	335.274
3095.52	373.246
3097.65	352.156
3099.78	356.678
3101.91	363.218
3104.03	377.746
3106.16	360.569
3108.28	359.26
3110.41	377.912
3112.53	402.648
3114.65	363.383
3116.77	374.129
3118.89	382.905
3121.01	395.791
3123.13	400.673
3125.25	399.53
3127.37	430.849
3129.49	427.799
3131.61	445.154
3133.72	433.989
3135.84	439.134
3137.95	429.912
3140.06	443.224
3142.18	429.758
3144.29	449.239
3146.4	408.742
3148.51	465.532
3150.62	460.134
3152.73	473.336
3154.84	482.391
3156.95	481.013
3159.06	483.809
3161.16	476.157
3163.27	491.544
3165.37	498.523
3167.48	505.484
3169.58	525.051
3171.69	483.687
3173.79	490.649
3175.89	510.17
3177.99	525.431
3180.09	508.923
3182.19	475.406
3184.29	513.863
3186.39	505.701
3188.49	497.417
3190.58	506.246
3192.68	515.16
3194.77	507.105
3196.87	522.563
3198.96	512.638
3201.06	500.76
3203.15	497.36
3205.24	517.551
3207.33	469.2
3209.42	534.687
3211.51	468.936
3213.6	485.044
3215.69	475.287
3217.78	467.618
3219.86	501.164
3221.95	478.202
3224.04	461.691
3226.12	464.819
3228.2	472.319
3230.29	442.48
3232.37	430.154
3234.45	430.913
3236.53	413.999
3238.61	459.015
3240.7	426.692
3242.77	423.12
3244.85	419.637
3246.93	418.213
3249.01	385.488
3251.08	392.776
3253.16	397.817
3255.23	375.845
3257.31	376.271
3259.38	399.368
3261.46	386.505
3263.53	371.389
3265.6	363.097
3267.67	371.02
3269.74	392.071
3271.81	379.369
3273.88	366.299
3275.95	357.51
3278.02	335.018
3280.08	344.515
3282.15	356.323
3284.21	361.274
3286.28	347.861
3288.34	343.606
3290.41	366.94
3292.47	341.943
3294.53	356.071
3296.59	333.31
3298.65	335.923
3300.71	345.547
3302.77	343.565
3304.83	348.536
3306.89	332.653
3308.95	326.007
3311	319.331
3313.06	342.837
3315.11	331.533
3317.17	320.184
3319.22	329.835
3321.27	316.185
3323.33	342.276
3325.38	330.998
3327.43	322.074
3329.48	336.573
3331.53	327.745
3333.58	323.641
3335.63	326.568
3337.67	308.25
3339.72	322.866
3341.77	313.779
3343.81	337.81
3345.86	304.933
3347.9	312.288
3349.95	319.711
3351.99	341.407
3354.03	327.408
3356.07	308.7
3358.11	299.503
3360.15	302.224
3362.19	302.577
3364.23	302.904
3366.27	317.6
3368.31	322.736
3370.34	320.684
3372.38	296.949
3374.42	282.769
3376.45	299.845
3378.48	324.161
3380.52	305.093
3382.55	288.402
3384.58	317.567
3386.61	291.182
3388.64	301.023
3390.68	291.505
3392.7	298.919
3394.73	279.734
3396.76	284.786
3398.79	311.682
3400.82	280.337
3402.84	295.047
3404.87	300.041
3406.89	300.19
3408.92	244.401
3410.94	290.711
3412.96	290.825
3414.98	300.676
3417	278.88
3419.03	286.299
3421.05	310.775
3423.06	286.495
3425.08	308.551
3427.1	301.377
3429.12	284.45
3431.14	287.068
3433.15	255.478
3435.17	272.795
3437.18	273.019
3439.2	275.712
3441.21	288.226
3443.22	268.864
3445.23	259.336
3447.25	299.049
3449.26	282.172
3451.27	282.524
3453.28	265.617
3455.28	263.542
3457.29	276.373
3459.3	281.816
3461.31	279.822
3463.31	290.283
3465.32	288.3
3467.32	276.307
3469.33	274.271
3471.33	252.144
3473.33	262.488
3475.34	267.905
3477.34	250.678
3479.34	256.105
3481.34	264.068
3483.34	269.515
3485.34	267.367
3487.33	249.976
3489.33	265.566
3491.33	273.562
3493.32	291.758
3495.32	269.146
3497.32	233.694
3499.31	251.839
3501.3	264.884
3503.3	267.669
3505.29	252.513
3507.28	242.423
3509.27	270.771
3511.26	242.623
3513.25	247.839
3515.24	237.641
3517.23	253.129
3519.22	227.497
3521.2	248.13
3523.19	245.631
3525.18	227.711
3527.16	227.804
3529.15	240.725
3531.13	248.572
3533.11	253.924
3535.1	259.323
3537.08	236.36
3539.06	246.998
3541.04	229.137
3543.02	239.721
3545	250.303
3546.98	247.908
3548.96	245.487
3550.93	235.225
3552.91	263.833
3554.89	237.915
3556.86	248.436
3558.84	251.18
3560.81	240.923
3562.78	235.886
3564.76	262.161
3566.73	244.131
3568.7	241.81
3570.67	262.989
3572.64	252.78
3574.61	271.419
3576.58	261.246
3578.55	253.706
3580.52	246.167
3582.48	267.625
3584.45	254.823
3586.41	268.425
3588.38	242.334
3590.35	255.949
3592.31	232.415
3594.27	240.731
3596.23	233.091
3598.2	238.751
3600.16	201.66
3602.12	223.312
3604.08	199.492
3606.04	213.128
3608	234.832
3609.95	208.206
3611.91	216.483
3613.87	219.414
3615.83	216.924
3617.78	214.439
3619.74	228.118
3621.69	201.244
3623.64	187.811
3625.6	223.013
3627.55	220.382
3629.5	215.034
3631.45	209.655
3633.4	204.285
3635.35	198.936
3637.3	228.813
3639.25	231.666
3641.2	204.744
3643.15	199.512
3645.09	205.144
3647.04	178.189
3648.98	200.001
3650.93	194.654
3652.87	202.939
3654.82	194.857
3656.76	189.494
3658.7	205.944
3660.64	197.843
3662.58	208.83
3664.53	189.8
3666.47	192.629
3668.4	195.467
3670.34	209.237
3672.28	195.656
3674.22	195.79
3676.16	198.687
3678.09	176.924
3680.03	185.341
3681.96	202.044
3683.9	191.288
3685.83	172.259
3687.76	189.059
3689.69	181.034
3691.63	186.83
3693.56	192.619
3695.49	178.975
3697.42	173.662
3699.35	185.024
3701.28	201.996
3703.2	171.554
3705.13	194.136
3707.06	200.005
3708.98	186.278
3710.91	197.752
3712.83	183.977
3714.76	201.076
3716.68	178.78
3718.6	170.516
3720.53	190.439
3722.45	184.976
3724.37	190.798
3726.29	185.302
3728.21	193.958
3730.13	179.958
3732.05	185.806
3733.97	200.181
3735.88	191.846
3737.8	209.092
3739.72	183.65
3741.63	186.649
3743.55	189.652
3745.46	186.944
3747.38	195.645
3749.29	187.198
3751.2	173.004
3753.11	187.394
3755.02	190.334
3756.93	193.263
3758.84	181.863
3760.75	181.907
3762.66	181.951
3764.57	176.256
3766.48	173.43
3768.39	193.559
3770.29	190.767
3772.2	202.332
3774.1	159.352
3776.01	191.017
3777.91	173.871
3779.81	196.979
3781.72	185.604
3783.62	191.508
3785.52	174.367
3787.42	174.496
3789.32	189.044
3791.22	171.843
3793.12	197.993
3795.02	160.564
3796.92	183.89
3798.81	181.176
3800.71	175.56
3802.61	184.461
3804.5	175.942
3806.4	176.147
3808.29	170.522
3810.18	176.547
3812.08	170.887
3813.97	173.985
3815.86	180.011
3817.75	186.05
3819.64	195.028
3821.53	177.594
3823.42	174.81
3825.31	183.761
3827.2	178.023
3829.09	195.846
3830.97	166.553
3832.86	190.318
3834.75	187.539
3836.63	184.744
3838.52	176.019
3840.4	164.313
3842.28	179.337
3844.17	185.395
3846.05	197.365
3847.93	158.831
3849.81	179.675
3851.69	191.622
3853.57	176.803
3855.45	188.739
3857.33	182.811
3859.21	173.889
3861.08	191.746
3862.96	176.922
3864.84	177.04
3866.71	189.138
3868.59	177.457
3870.46	174.656
3872.34	192.623
3874.21	180.724
3876.08	174.805
3877.95	177.848
3879.82	174.914
3881.69	174.974
3883.56	178.034
3885.44	169.132
3887.3	163.224
3889.17	178.29
3891.04	187.387
3892.91	193.521
3894.77	184.701
3896.64	145.781
3898.51	175.972
3900.37	170.091
3902.23	176.249
3904.1	173.355
3905.96	188.57
3907.82	188.693
3909.69	179.766
3911.55	161.778
3913.41	155.861
3915.27	195.382
3917.13	183.45
3918.99	174.544
3920.84	174.757
3922.7	187.145
3924.56	159.944
3926.42	187.571
3928.27	166.397
3930.13	178.792
3931.98	188.132
3933.84	182.151
3935.69	179.221
3937.54	167.083
3939.4	185.63
3941.25	188.873
3943.1	170.629
3944.95	173.874
3946.8	167.879
3948.65	155.699
3950.5	174.334
3952.35	168.285
3954.19	152.948
3956.04	171.599
3957.89	162.414
3959.73	177.956
3961.58	162.544
3963.42	178.094
3965.27	156.461
3967.11	165.79
3968.96	178.204
3970.8	175.127
3972.64	172.057
3974.48	178.29
3976.32	190.723
3978.16	181.44
3980	150.426
3981.84	156.619
3983.68	169.017
3985.52	159.711
3987.36	150.401
3989.19	162.805
3991.03	156.621
3992.86	175.268
3994.7	178.423
3996.53	181.601
3998.37	181.689
