#Acq. time (s)=	30
#Accumulations=	2
#Range (cm-¹)=	1200...2365
#Windows=	3
#Auto scanning=	Off
#Autofocus=	Off
#Macrospot=	Off
#AutoExposure=	Off
#Spike filter=	Multiple accum.
#Delay time (s)=	2
#Binning=	1
#Readout mode=	Signal
#DeNoise=	Off
#ICS correction=	On
#Dark correction=	Off
#Inst. Process=	Off
#Detector Gain=	Best Dynamic
#Detector ADC=	50 kHz HS
#Detector temperature (°C)=	-60.09
#Instrument=	LabRAM HR Evol
#Detector=	SIN-EM FIVIS
#Objective=	x100_VIS_LWD
#Grating=	1800 (450-850nm)
#ND Filter=	100%
#Laser=	532nm_Edge
#Hole=	100.021
#Temperature=	0
#Range=	Visible
#StageXY=	75x50mm Scan+
#StageZ=	Z motor
#X (µm)=	0
#Y (µm)=	0
#Z (µm)=	-9.7
#Full time(mm:ss)=	3:23
#Project=	21_11_26
#Sample=	BU19(2)w
#Site=	
#Title=	BU19(2)w-A-FF1-FI05-V_1800 (450-850nm)_532nm_Edge_100%_x100_VIS_LWD_H100um_30sX2
#Remark=	
#Date=	26.11.2021 13:31
#Acquired=	26.11.2021 13:31:21
1202.72	126.362
1203	131.929
1203.28	120.122
1203.56	125.433
1203.84	116.729
1204.11	118.823
1204.39	123.076
1204.67	116.632
1204.95	114.495
1205.23	120.921
1205.5	116.577
1205.78	117.602
1206.06	115.4
1206.34	109.979
1206.61	116.362
1206.89	114.162
1207.17	111.965
1207.45	116.205
1207.73	110.821
1208	110.794
1208.28	111.846
1208.56	112.892
1208.84	116.068
1209.11	109.618
1209.39	108.52
1209.67	109.575
1209.95	115.985
1210.23	108.491
1210.5	106.33
1210.78	109.491
1211.06	104.107
1211.34	105.14
1211.61	109.368
1211.89	112.536
1212.17	107.158
1212.45	108.182
1212.72	103.889
1213	103.858
1213.28	100.631
1213.56	99.5457
1213.83	109.116
1214.11	105.898
1214.39	99.5149
1214.67	110.164
1214.94	103.777
1215.22	102.711
1215.5	102.707
1215.78	101.636
1216.05	105.885
1216.33	98.4081
1216.61	95.181
1216.89	106.836
1217.16	102.541
1217.44	109.948
1217.72	105.666
1218	102.449
1218.27	100.301
1218.55	104.524
1218.83	101.318
1219.1	103.428
1219.38	110.847
1219.66	108.714
1219.94	103.396
1220.21	99.1343
1220.49	95.9485
1220.77	105.494
1221.04	101.245
1221.32	93.8111
1221.6	106.517
1221.88	93.7763
1222.15	94.8082
1222.43	89.4737
1222.71	108.492
1222.98	98.9122
1223.26	92.5173
1223.54	106.221
1223.81	105.119
1224.09	100.855
1224.37	96.5943
1224.65	100.794
1224.92	92.3278
1225.2	96.5372
1225.48	104.978
1225.76	100.768
1226.03	98.6662
1226.31	103.958
1226.59	103.952
1226.86	87.0505
1227.14	98.6452
1227.42	107.071
1227.69	92.2467
1227.97	97.4269
1228.25	96.3141
1228.52	103.627
1228.8	90.9083
1229.08	105.55
1229.35	96.0841
1229.63	92.1078
1229.91	95.4698
1230.18	104.871
1230.46	94.2348
1230.74	102.626
1231.01	98.4237
1231.29	96.2597
1231.57	97.1206
1231.84	98.1886
1232.12	93.9827
1232.4	98.182
1232.67	98.1697
1232.95	90.8122
1233.23	96.0593
1233.5	99.2007
1233.78	97.0966
1234.06	100.253
1234.33	92.9071
1234.61	103.423
1234.89	95.0305
1235.16	98.1987
1235.44	98.2059
1235.71	98.2143
1235.99	106.637
1236.27	90.8732
1236.54	90.8711
1236.82	103.474
1237.1	93.9975
1237.37	101.333
1237.65	103.399
1237.93	96.01
1238.2	93.8756
1238.48	89.6434
1238.76	98.0027
1239.03	100.072
1239.31	95.8602
1239.58	104.234
1239.86	95.8358
1240.14	96.8771
1240.41	97.9215
1240.69	93.7276
1240.97	89.5367
1241.24	95.8304
1241.52	91.6401
1241.79	94.7758
1242.07	99.9981
1242.35	105.226
1242.62	94.7476
1242.9	98.9448
1243.18	104.199
1243.45	97.9225
1243.73	108.403
1244	101.066
1244.28	90.5882
1244.56	103.166
1244.83	95.8212
1245.11	103.148
1245.39	102.077
1245.66	93.6697
1245.94	98.8732
1246.21	105.121
1246.49	94.6378
1246.76	99.8633
1247.04	99.8632
1247.32	99.8605
1247.59	97.7582
1247.87	94.6158
1248.14	94.605
1248.42	101.892
1248.7	96.642
1248.97	103.958
1249.25	93.5042
1249.52	98.7405
1249.8	94.5496
1250.08	95.5917
1250.35	95.5922
1250.63	93.4802
1250.9	92.4099
1251.18	99.7049
1251.45	95.5047
1251.73	98.6217
1252.01	102.782
1252.28	92.319
1252.56	97.5224
1252.83	103.768
1253.11	99.5699
1253.39	101.637
1253.66	97.4529
1253.94	106.844
1254.21	96.424
1254.49	96.4416
1254.76	93.3296
1255.04	92.2928
1255.31	95.4248
1255.59	101.697
1255.87	97.5195
1256.14	97.5141
1256.42	105.872
1256.69	101.702
1256.97	102.761
1257.24	117.389
1257.52	106.938
1257.79	102.744
1258.07	106.912
1258.35	104.814
1258.62	108.981
1258.9	107.924
1259.17	101.636
1259.45	106.851
1259.72	113.126
1260	106.878
1260.27	95.4334
1260.55	110.026
1260.82	119.394
1261.1	116.22
1261.37	126.623
1261.65	125.559
1261.92	123.489
1262.2	129.864
1262.48	124.806
1262.75	137.438
1263.02	139.301
1263.3	130.787
1263.58	129.684
1263.85	123.548
1264.13	122.597
1264.4	119.575
1264.68	115.451
1264.95	111.196
1265.23	119.529
1265.5	117.438
1265.78	111.157
1266.05	109.046
1266.33	113.225
1266.6	118.457
1266.88	99.6607
1267.15	110.131
1267.43	102.838
1267.7	103.911
1267.98	103.94
1268.25	103.974
1268.53	100.879
1268.8	112.435
1269.08	105.124
1269.35	100.95
1269.63	96.7709
1269.9	104.099
1270.18	108.265
1270.45	112.42
1270.73	104.02
1271	94.5739
1271.28	102.929
1271.55	102.922
1271.83	110.232
1272.1	99.7754
1272.38	106.078
1272.65	114.483
1272.93	116.621
1273.2	105.127
1273.47	109.345
1273.75	110.422
1274.03	114.645
1274.3	116.772
1274.57	113.644
1274.85	105.257
1275.12	115.741
1275.4	107.35
1275.67	108.41
1275.95	110.526
1276.22	108.446
1276.5	113.72
1276.77	110.591
1277.05	104.311
1277.32	111.677
1277.6	120.107
1277.87	115.933
1278.14	128.572
1278.42	115.983
1278.69	119.158
1278.97	123.398
1279.24	127.625
1279.52	136.062
1279.79	140.261
1280.07	149.716
1280.34	169.681
1280.61	193.863
1280.89	238.053
1281.16	296.981
1281.44	362.288
1281.71	461.334
1281.99	560.343
1282.26	684.538
1282.53	759.344
1282.81	823.653
1283.08	812.989
1283.36	723.159
1283.63	613.201
1283.91	488.978
1284.18	359.718
1284.45	283.159
1284.73	232.121
1285	180.529
1285.28	167.881
1285.55	146.735
1285.83	140.367
1286.1	147.739
1286.37	125.656
1286.65	115.124
1286.92	110.89
1287.2	117.205
1287.47	116.145
1287.75	116.127
1288.02	101.372
1288.29	104.518
1288.57	104.516
1288.84	108.728
1289.12	96.1057
1289.39	107.698
1289.66	103.506
1289.94	110.896
1290.21	102.493
1290.49	101.456
1290.76	97.2419
1291.03	95.1243
1291.31	96.1717
1291.58	101.436
1291.86	100.381
1292.13	90.8984
1292.4	102.484
1292.68	97.2237
1292.95	100.377
1293.22	91.9439
1293.5	103.533
1293.77	94.0847
1294.05	101.501
1294.32	97.3259
1294.59	85.737
1294.87	98.3913
1295.14	101.547
1295.42	92.0733
1295.69	93.1668
1295.96	88.9946
1296.24	98.5657
1296.51	88.0375
1296.79	93.3312
1297.06	94.3903
1297.33	92.2659
1297.61	99.6466
1297.88	94.3433
1298.15	97.4903
1298.43	94.2962
1298.7	96.4191
1298.97	99.5792
1299.25	89.0036
1299.52	90.0468
1299.79	94.2541
1300.07	95.3083
1300.34	93.2131
1300.62	93.2223
1300.89	86.8892
1301.16	90.0522
1301.44	91.1042
1301.71	88.9966
1301.98	85.8431
1302.25	96.4182
1302.53	93.2572
1302.8	85.8652
1303.08	84.8073
1303.35	86.9139
1303.62	84.7917
1303.9	92.1677
1304.17	91.1081
1304.44	82.6621
1304.72	92.1655
1304.99	91.1079
1305.26	84.7615
1305.54	79.468
1305.81	98.4466
1306.08	95.2587
1306.35	85.741
1306.63	84.6689
1306.9	83.6064
1307.18	85.7149
1307.45	86.7767
1307.72	88.8884
1308	87.832
1308.27	86.7762
1308.54	85.7257
1308.81	97.322
1309.09	87.8339
1309.36	77.2979
1309.63	83.639
1309.91	84.7059
1310.18	93.1563
1310.45	84.7108
1310.73	85.7602
1311	84.7046
1311.27	83.6525
1311.55	82.6012
1311.82	84.7154
1312.09	86.833
1312.37	81.569
1312.64	82.6364
1312.91	81.5858
1313.18	77.3582
1313.46	91.07
1313.73	81.5652
1314	82.613
1314.28	78.3844
1314.55	94.2167
1314.82	86.8328
1315.09	81.5625
1315.37	85.7956
1315.64	81.5816
1315.91	85.8163
1316.18	77.3772
1316.46	82.6544
1316.73	80.5365
1317	86.8692
1317.28	78.4178
1317.55	91.09
1317.82	83.7092
1318.09	84.7732
1318.37	82.6654
1318.64	86.8941
1318.91	86.8957
1319.18	85.8392
1319.46	80.554
1319.73	77.3811
1320	88.9979
1320.28	78.4391
1320.55	82.6655
1320.82	81.6041
1321.09	84.7606
1321.37	88.9653
1321.64	77.3268
1321.91	83.6343
1322.18	81.5083
1322.46	77.2652
1322.73	78.309
1323	84.6255
1323.27	88.8303
1323.55	86.7042
1323.82	81.4418
1324.09	82.4994
1324.36	74.0646
1324.64	81.4429
1324.91	84.6071
1325.18	79.3321
1325.45	89.8816
1325.73	83.5328
1326	83.4948
1326.27	83.4464
1326.54	80.2294
1326.81	90.7265
1327.09	86.5111
1327.36	81.2776
1327.63	81.3306
1327.9	82.4124
1328.18	85.6023
1328.45	84.5808
1328.72	86.7226
1328.99	82.5298
1329.27	85.7023
1329.54	82.5264
1329.81	79.3695
1330.08	86.7508
1330.35	86.7432
1330.63	74.0739
1330.9	80.3875
1331.17	82.4767
1331.44	82.4516
1331.71	81.3655
1331.99	83.4359
1332.26	82.3538
1332.53	86.5406
1332.8	85.4617
1333.07	83.3281
1333.35	86.4524
1333.62	80.1168
1333.89	81.1428
1334.16	87.4223
1334.43	80.0459
1334.71	72.6745
1334.98	76.8552
1335.25	89.4326
1335.52	83.119
1335.79	77.8573
1336.07	79.941
1336.34	77.8297
1336.61	82.0119
1336.88	84.0973
1337.15	75.7003
1337.43	83.0304
1337.7	77.7821
1337.97	73.5808
1338.24	80.8966
1338.51	81.925
1338.78	87.1495
1339.06	83.9929
1339.33	90.266
1339.6	77.6978
1339.87	83.983
1340.14	82.9399
1340.42	78.7524
1340.69	79.8021
1340.96	91.3244
1341.23	79.8021
1341.5	82.9397
1341.77	80.839
1342.04	77.6884
1342.32	78.7223
1342.59	83.9381
1342.86	80.7762
1343.13	85.9851
1343.4	85.9727
1343.67	73.4151
1343.95	79.6872
1344.22	80.7318
1344.49	76.5494
1344.76	91.1909
1345.03	79.6787
1345.3	74.4371
1345.58	78.6013
1345.85	77.531
1346.12	81.69
1346.39	81.6618
1346.66	83.7085
1346.93	83.6812
1347.2	78.4393
1347.47	87.8008
1347.75	80.4773
1348.02	83.5895
1348.29	80.4512
1348.56	93.9929
1348.83	87.7325
1349.1	79.3822
1349.37	82.4923
1349.65	84.5589
1349.92	85.5843
1350.19	78.2796
1350.46	86.5938
1350.73	86.5774
1351	84.4744
1351.27	81.3315
1351.54	76.1167
1351.81	85.456
1352.09	86.4888
1352.36	86.4868
1352.63	84.4164
1352.9	84.4341
1353.17	78.2164
1353.44	80.3096
1353.71	90.7926
1353.98	79.4089
1354.25	84.5415
1354.53	84.4144
1354.8	85.3664
1355.07	81.2192
1355.34	82.2646
1355.61	85.3516
1355.88	84.2969
1356.15	88.4807
1356.42	85.3701
1356.69	78.0797
1356.96	91.5745
1357.24	86.373
1357.51	87.4025
1357.78	85.3139
1358.05	86.3383
1358.32	86.3229
1358.59	87.3446
1358.86	86.2916
1359.13	86.2736
1359.4	85.2191
1359.67	86.2435
1359.94	85.195
1360.22	89.3193
1360.49	79.9646
1360.76	84.0863
1361.03	89.2497
1361.3	87.1703
1361.57	84.0609
1361.84	95.451
1362.11	86.1233
1362.38	87.1482
1362.65	87.1384
1362.92	91.271
1363.19	100.586
1363.46	92.308
1363.73	90.252
1364	83.0126
1364.28	97.5248
1364.55	96.4873
1364.82	96.4804
1365.09	86.1126
1365.36	91.2743
1365.63	90.2182
1365.9	92.2663
1366.17	96.3842
1366.44	89.12
1366.71	90.1329
1366.98	88.0382
1367.25	94.2095
1367.52	89.0266
1367.79	92.1177
1368.06	96.2635
1368.33	100.405
1368.6	116.95
1368.87	137.632
1369.15	121.099
1369.41	104.565
1369.68	98.3681
1369.95	96.288
1370.23	85.9389
1370.5	96.265
1370.77	99.3397
1371.04	90.027
1371.31	99.3075
1371.58	93.0827
1371.85	94.0837
1372.12	97.1421
1372.39	95.0413
1372.66	96.0389
1372.93	93.9511
1373.2	100.12
1373.47	107.321
1373.74	99.0622
1374.01	98.021
1374.28	103.164
1374.55	111.399
1374.82	105.21
1375.09	99.0198
1375.36	101.067
1375.63	100.04
1375.9	97.992
1376.17	101.08
1376.44	109.327
1376.71	108.269
1376.98	104.123
1377.25	117.47
1377.52	106.102
1377.79	118.464
1378.06	119.523
1378.33	114.421
1378.6	121.689
1378.87	113.509
1379.14	124.869
1379.41	128.988
1379.68	119.693
1379.95	127.921
1380.22	126.863
1380.49	127.839
1380.76	127.735
1381.03	130.762
1381.3	139.968
1381.57	135.877
1381.84	137.898
1382.11	134.75
1382.38	151.12
1382.65	138.733
1382.92	153.054
1383.19	150.943
1383.46	152.952
1383.73	180.596
1384	182.614
1384.27	207.193
1384.54	231.806
1384.81	259.51
1385.08	323.139
1385.34	399.138
1385.61	547.067
1385.88	766.88
1386.15	1062.74
1386.42	1473.62
1386.69	1720.42
1386.96	1670.25
1387.23	1327.16
1387.5	890.946
1387.77	591.145
1388.04	407.096
1388.31	296.48
1388.58	229.293
1388.85	203.003
1389.12	170.415
1389.39	165.388
1389.66	141.785
1389.93	143.855
1390.2	129.434
1390.46	121.127
1390.73	115.955
1391	115.951
1391.27	110.779
1391.54	108.719
1391.81	105.634
1392.08	110.732
1392.35	106.606
1392.62	105.558
1392.89	98.3726
1393.16	105.525
1393.43	106.536
1393.7	99.3601
1393.97	103.444
1394.23	91.1551
1394.5	100.358
1394.77	99.328
1395.04	91.1382
1395.31	92.1708
1395.58	101.397
1395.85	96.2908
1396.12	97.3186
1396.39	92.1971
1396.66	92.189
1396.93	88.0839
1397.2	95.2352
1397.46	97.2632
1397.73	84.9698
1398	88.0297
1398.27	92.1197
1398.54	95.1941
1398.81	91.1129
1399.08	82.9343
1399.35	92.1465
1399.62	90.1151
1399.89	91.148
1400.16	96.274
1400.42	98.3197
1400.69	86.0492
1400.96	90.1662
1401.23	93.2486
1401.5	96.3168
1401.77	91.2073
1402.04	86.0856
1402.31	82.0165
1402.58	84.1126
1402.84	85.1894
1403.11	89.3313
1403.38	91.4124
1403.65	90.3994
1403.92	90.4
1404.19	91.4075
1404.46	85.2006
1404.73	86.2388
1404.99	98.5421
1405.26	97.5043
1405.53	97.4869
1405.8	99.5193
1406.07	104.628
1406.34	114.862
1406.61	112.8
1406.87	113.815
1407.14	127.145
1407.41	137.405
1407.68	140.492
1407.95	144.601
1408.22	142.559
1408.49	148.719
1408.76	137.448
1409.02	138.484
1409.29	125.163
1409.56	108.763
1409.83	101.591
1410.1	98.5189
1410.37	98.5189
1410.63	94.3968
1410.9	82.0664
1411.17	86.1408
1411.44	92.2694
1411.71	82.0069
1411.98	86.0938
1412.25	86.0905
1412.51	77.9055
1412.78	77.9275
1413.05	79.0016
1413.32	82.1761
1413.59	75.0342
1413.86	79.0828
1414.12	77.953
1414.39	81.0467
1414.66	83.153
1414.93	78.0581
1415.2	77.0261
1415.47	77.0286
1415.73	70.8687
1416	73.9506
1416.27	85.2513
1416.54	76.0168
1416.81	78.078
1417.07	80.1402
1417.34	79.1223
1417.61	73.9947
1417.88	74.0023
1418.15	79.1441
1418.42	69.8973
1418.68	76.0657
1418.95	72.9861
1419.22	67.8483
1419.49	78.1266
1419.76	77.0904
1420.02	71.9387
1420.29	73.9785
1420.56	72.9375
1420.83	80.1103
1421.1	69.8264
1421.36	74.9455
1421.63	74.9386
1421.9	76.9956
1422.17	73.9358
1422.44	80.1228
1422.7	72.9578
1422.97	78.1366
1423.24	72.0304
1423.51	75.183
1423.77	79.1146
1424.04	74.8482
1424.31	73.8428
1424.58	74.7959
1424.85	71.7227
1425.11	77.892
1425.38	77.9458
1425.65	73.853
1425.92	68.7147
1426.19	70.79
1426.45	70.7846
1426.72	81.0283
1426.99	69.728
1427.26	72.7839
1427.52	72.7625
1427.79	73.7569
1428.06	68.6121
1428.33	70.6487
1428.59	73.7155
1428.86	75.7641
1429.13	73.7205
1429.4	67.5822
1429.67	67.5898
1429.93	72.7217
1430.2	64.5407
1430.47	71.7315
1430.74	69.6965
1431	64.5906
1431.27	67.6963
1431.54	67.7194
1431.81	68.7572
1432.07	67.7309
1432.34	65.6658
1432.61	64.6241
1432.87	68.7173
1433.14	74.8493
1433.41	71.7457
1433.68	68.6409
1433.95	73.7352
1434.21	58.3559
1434.48	73.7093
1434.75	69.6456
1435.01	69.66
1435.28	71.7121
1435.55	67.6134
1435.82	72.7353
1436.08	70.6823
1436.35	72.7269
1436.62	68.6235
1436.89	65.5435
1437.15	63.4882
1437.42	68.6039
1437.69	73.7231
1437.95	68.5939
1438.22	66.542
1438.49	65.521
1438.76	68.6038
1439.02	69.6344
1439.29	80.9055
1439.56	71.6889
1439.82	77.8481
1440.09	72.741
1440.36	60.4585
1440.63	71.7448
1440.89	65.5964
1441.16	69.699
1441.43	68.6773
1441.69	68.6718
1441.96	69.6854
1442.23	66.6036
1442.49	69.6933
1442.76	73.7966
1443.03	65.606
1443.3	71.7506
1443.56	72.7635
1443.83	73.7781
1444.1	66.5946
1444.36	64.5417
1444.63	67.621
1444.9	67.6402
1445.16	67.6565
1445.43	67.6779
1445.7	66.6461
1445.97	68.6913
1446.23	66.6336
1446.5	63.5506
1446.77	65.5969
1447.03	68.6682
1447.3	73.7901
1447.57	71.7316
1447.83	70.6971
1448.1	67.6142
1448.37	72.7394
1448.63	70.7011
1448.9	76.8704
1449.17	67.6439
1449.43	67.6427
1449.7	66.6111
1449.97	62.5004
1450.23	64.5405
1450.5	72.7307
1450.77	66.5739
1451.03	67.5934
1451.3	71.6873
1451.57	63.4824
1451.83	62.451
1452.1	70.6416
1452.37	62.4395
1452.63	65.5101
1452.9	72.6825
1453.17	65.5137
1453.43	64.4962
1453.7	72.7005
1453.97	61.4278
1454.23	69.6213
1454.5	67.5678
1454.77	64.4933
1455.03	69.6168
1455.3	61.4169
1455.56	66.5357
1455.83	64.4874
1456.1	68.5977
1456.36	64.5042
1456.63	66.5536
1456.9	59.3737
1457.16	69.6102
1457.43	66.5252
1457.7	63.4464
1457.96	65.4908
1458.23	67.5366
1458.49	65.4879
1458.76	63.4404
1459.03	66.5171
1459.29	72.6671
1459.56	63.4482
1459.82	65.4985
1460.09	64.4711
1460.36	65.4911
1460.62	62.4128
1460.89	64.456
1461.16	60.3517
1461.42	62.3917
1461.69	64.4313
1461.95	64.4216
1462.22	65.4342
1462.49	65.4219
1462.75	62.3384
1463.02	64.3707
1463.28	70.4927
1463.55	68.4302
1463.82	70.4603
1464.08	66.3679
1464.35	65.3656
1464.61	65.3955
1464.88	66.442
1465.15	65.4488
1465.41	66.4215
1465.68	71.4075
1465.94	72.3694
1466.21	65.2186
1466.48	66.2591
1466.74	66.2525
1467.01	68.2635
1467.27	63.1533
1467.54	59.0781
1467.8	66.2152
1468.07	57.029
1468.34	63.1465
1468.6	70.2853
1468.87	63.1431
1469.13	64.159
1469.4	62.1125
1469.67	63.1243
1469.93	67.19
1470.2	63.0964
1470.46	66.1415
1470.73	62.056
1470.99	64.0861
1471.26	65.0997
1471.53	55.9222
1471.79	67.1142
1472.06	64.0494
1472.32	53.8615
1472.59	59.9685
1472.85	62.0029
1473.12	63.0188
1473.39	60.9773
1473.65	67.0759
1473.92	66.0476
1474.18	66.0392
1474.45	62.9811
1474.71	62.9804
1474.98	61.9679
1475.24	56.8825
1475.51	67.0611
1475.78	72.1476
1476.04	68.0698
1476.31	59.9195
1476.57	65.0006
1476.84	63.9771
1477.1	59.8975
1477.37	65.9897
1477.63	59.8817
1477.9	64.9639
1478.16	57.8432
1478.43	62.9202
1478.69	57.8243
1478.96	65.9473
1479.22	61.8717
1479.49	64.9092
1479.76	68.9604
1480.02	68.9451
1480.29	64.8679
1480.55	58.7529
1480.82	64.8249
1481.08	61.7675
1481.35	60.7468
1481.61	64.7938
1481.88	62.7701
1482.14	58.7208
1482.41	64.8205
1482.67	61.788
1482.94	66.8736
1483.2	69.9187
1483.47	64.8499
1483.73	63.8382
1484	66.8843
1484.26	59.7735
1484.53	64.8241
1484.79	67.8309
1485.06	63.7044
1485.32	69.6902
1485.59	59.5402
1485.85	68.5909
1486.12	64.6967
1486.38	65.728
1486.65	60.6835
1486.91	68.7205
1487.18	67.7419
1487.44	58.6311
1487.71	57.6002
1487.97	62.6507
1488.24	65.6797
1488.5	68.7063
1488.77	63.6289
1489.03	63.613
1489.3	60.5648
1489.56	62.5812
1489.83	59.5402
1490.09	63.5822
1490.36	61.5579
1490.62	60.5449
1490.89	65.5947
1491.15	67.6038
1491.42	67.59
1491.68	60.5057
1491.95	65.5575
1492.21	58.4797
1492.48	54.4376
1492.74	65.5564
1493	62.5196
1493.27	68.5825
1493.53	61.5054
1493.8	60.4897
1494.06	66.5518
1494.33	63.5196
1494.59	59.4797
1494.86	60.4952
1495.12	68.5799
1495.39	61.4928
1495.65	60.4637
1495.92	61.4515
1496.18	64.4629
1496.45	61.4215
1496.71	65.4508
1496.97	66.4516
1497.24	65.4327
1497.5	61.3944
1497.77	64.4212
1498.03	63.4077
1498.3	67.4425
1498.56	68.4518
1498.82	61.3882
1499.09	62.399
1499.35	59.3732
1499.62	62.4047
1499.88	68.4665
1500.15	67.4623
1500.41	60.3971
1500.68	69.4824
1500.94	57.3649
1501.2	70.4863
1501.47	59.3747
1501.73	64.4087
1502	60.3675
1502.26	64.4017
1502.52	60.3623
1502.79	65.401
1503.05	66.3954
1503.32	66.3817
1503.58	65.3649
1503.85	68.3775
1504.11	63.3352
1504.37	66.3659
1504.64	62.3347
1504.9	67.3769
1505.17	65.3565
1505.43	62.3242
1505.7	67.3549
1505.96	61.2882
1506.22	67.311
1506.49	66.2984
1506.75	64.2809
1507.02	68.3131
1507.28	60.2615
1507.54	65.3016
1507.81	66.3117
1508.07	65.3029
1508.34	63.2827
1508.6	64.2863
1508.86	61.2642
1509.13	61.2659
1509.39	65.2969
1509.66	61.2649
1509.92	60.2565
1510.18	60.2626
1510.45	55.2269
1510.71	63.2768
1510.98	66.2863
1511.24	64.256
1511.5	66.2514
1511.77	63.2045
1512.03	66.1888
1512.29	63.1372
1512.56	67.1255
1512.82	66.0921
1513.08	68.083
1513.35	62.0423
1513.61	65.0415
1513.88	60.0165
1514.14	59.026
1514.4	66.0795
1514.67	64.0764
1514.93	67.0818
1515.2	59.0323
1515.46	69.0554
1515.72	57.9967
1515.99	59.9853
1516.25	66.9885
1516.51	60.9565
1516.78	68.9722
1517.04	58.9391
1517.3	60.9399
1517.57	67.9561
1517.83	66.9541
1518.09	54.9259
1518.36	59.9498
1518.62	58.9496
1518.88	63.9684
1519.15	60.9624
1519.41	65.9832
1519.67	61.9748
1519.94	59.9708
1520.2	66.9919
1520.47	61.9693
1520.73	58.955
1520.99	58.9579
1521.26	56.9567
1521.52	59.9714
1521.78	64.9901
1522.05	61.9768
1522.31	63.9773
1522.57	59.9569
1522.84	64.9645
1523.1	64.9572
1523.36	65.9487
1523.62	61.9184
1523.89	71.9142
1524.15	65.8835
1524.41	62.8642
1524.68	60.8497
1524.94	59.8383
1525.2	65.8532
1525.47	57.844
1525.73	59.8486
1525.99	63.8635
1526.26	64.8768
1526.52	60.8851
1526.78	59.8948
1527.05	66.9159
1527.31	67.9162
1527.57	61.8926
1527.84	60.8859
1528.1	57.8739
1528.36	63.8807
1528.63	63.8725
1528.89	63.8651
1529.15	64.8605
1529.41	68.8633
1529.68	61.8501
1529.94	65.8518
1530.2	64.8392
1530.47	59.829
1530.73	64.8413
1530.99	55.839
1531.25	64.8668
1531.52	67.8823
1531.78	64.8772
1532.04	63.8704
1532.31	57.8595
1532.57	58.8531
1532.83	63.8696
1533.09	62.8839
1533.36	63.9085
1533.62	62.9251
1533.88	64.9397
1534.15	64.9444
1534.41	63.9401
1534.67	61.9298
1534.94	68.9456
1535.2	61.9174
1535.46	61.9113
1535.72	63.9043
1535.99	62.8696
1536.25	60.8463
1536.51	66.8418
1536.77	62.813
1537.04	66.7927
1537.3	62.7678
1537.56	62.7585
1537.82	60.743
1538.09	64.7441
1538.35	60.7301
1538.61	60.7105
1538.87	63.7027
1539.14	62.6964
1539.4	53.7147
1539.66	63.7488
1539.92	63.795
1540.19	62.8252
1540.45	58.8432
1540.71	61.8758
1540.97	65.9032
1541.24	60.8959
1541.5	57.8627
1541.76	60.8665
1542.02	60.8493
1542.29	61.8355
1542.55	57.8128
1542.81	57.7978
1543.07	61.7884
1543.34	66.7786
1543.6	65.7609
1543.86	59.7366
1544.12	67.7161
1544.39	60.718
1544.65	69.7224
1544.91	61.7337
1545.17	64.7539
1545.43	60.7641
1545.7	63.7917
1545.96	58.7976
1546.22	58.8047
1546.48	61.8159
1546.74	58.8067
1547.01	68.8262
1547.27	61.8207
1547.53	67.8393
1547.79	61.8337
1548.06	69.8343
1548.32	63.7894
1548.58	59.7834
1548.84	56.782
1549.1	58.8016
1549.37	64.7511
1549.63	62.684
1549.89	65.6681
1550.15	62.7042
1550.42	68.7759
1550.68	58.8535
1550.94	60.9253
1551.2	68.0171
1551.46	61.9466
1551.73	67.9768
1551.99	65.9547
1552.25	64.9299
1552.51	60.9423
1552.77	63.9802
1553.03	62.967
1553.3	64.9564
1553.56	63.905
1553.82	66.9037
1554.08	65.8945
1554.34	69.8921
1554.61	68.8689
1554.87	62.8316
1555.13	61.8069
1555.39	64.8038
1555.65	66.8023
1555.91	64.7979
1556.18	70.8122
1556.44	69.8106
1556.7	61.7863
1556.96	63.7898
1557.22	59.7865
1557.48	63.7966
1557.75	63.7971
1558.01	61.7895
1558.27	62.7792
1558.53	61.7575
1558.79	57.7374
1559.06	60.7191
1559.32	62.7006
1559.58	60.6831
1559.84	60.6692
1560.1	63.657
1560.36	64.6469
1560.63	60.6417
1560.89	59.6368
1561.15	66.628
1561.41	66.6267
1561.67	60.6345
1561.93	64.6434
1562.19	66.6603
1562.46	58.6786
1562.72	62.6791
1562.98	62.6755
1563.24	65.6699
1563.5	62.6723
1563.76	66.6655
1564.02	53.662
1564.29	59.682
1564.55	67.7099
1564.81	64.7155
1565.07	67.7125
1565.33	59.6725
1565.59	67.554
1565.85	60.4171
1566.11	64.3189
1566.38	64.5845
1566.64	62.6619
1566.9	59.6305
1567.16	60.5892
1567.42	62.6377
1567.68	61.6924
1567.94	61.6774
1568.2	62.6331
1568.47	65.6393
1568.73	60.6485
1568.99	62.6522
1569.25	60.6459
1569.51	62.6218
1569.77	62.6077
1570.03	61.6083
1570.29	61.6127
1570.55	58.6153
1570.82	63.6126
1571.08	62.6113
1571.34	69.6034
1571.6	63.6009
1571.86	62.5912
1572.12	63.5783
1572.38	61.5779
1572.64	60.5707
1572.9	62.5554
1573.17	63.544
1573.43	65.531
1573.69	63.5232
1573.95	61.5176
1574.21	64.5124
1574.47	58.5343
1574.73	61.5426
1574.99	60.5581
1575.25	62.5708
1575.51	63.5844
1575.78	67.5928
1576.04	69.5942
1576.3	68.5893
1576.56	68.5874
1576.82	61.5847
1577.08	65.5601
1577.34	64.5357
1577.6	61.5173
1577.86	65.4864
1578.12	67.4598
1578.38	67.439
1578.64	63.4379
1578.9	64.4304
1579.17	62.4353
1579.43	65.4249
1579.69	58.4464
1579.95	61.4401
1580.21	67.4312
1580.47	56.4663
1580.73	62.4501
1580.99	64.4412
1581.25	65.4302
1581.51	60.4346
1581.77	63.4163
1582.03	68.3857
1582.29	63.3886
1582.55	60.3944
1582.81	60.3895
1583.07	69.3494
1583.33	62.3721
1583.59	68.346
1583.85	65.3555
1584.11	59.3726
1584.38	64.3515
1584.64	65.3526
1584.9	65.3563
1585.16	62.37
1585.42	66.3532
1585.68	65.3528
1585.94	60.3703
1586.2	65.3435
1586.46	69.3104
1586.72	59.3379
1586.98	62.3125
1587.24	66.2841
1587.5	73.2417
1587.76	68.2599
1588.02	65.2711
1588.28	58.3065
1588.54	64.2807
1588.8	66.2776
1589.06	63.301
1589.32	62.3128
1589.58	69.2887
1589.84	64.3165
1590.1	59.34
1590.36	69.2954
1590.62	63.3261
1590.88	66.3204
1591.14	64.3342
1591.4	67.3193
1591.66	68.314
1591.92	62.3339
1592.18	65.3139
1592.44	70.2761
1592.7	64.282
1592.96	62.2763
1593.22	69.2296
1593.48	67.2147
1593.74	63.211
1594	58.2159
1594.26	66.1472
1594.52	65.1443
1594.78	68.1234
1595.04	59.1906
1595.3	67.1505
1595.56	66.1652
1595.82	58.215
1596.08	64.1472
1596.34	61.1655
1596.6	64.1444
1596.86	64.1443
1597.12	66.1326
1597.38	71.1032
1597.64	60.1813
1597.9	68.1339
1598.16	70.1184
1598.42	64.1507
1598.68	65.1318
1598.94	66.1063
1599.2	65.0968
1599.46	67.0689
1599.72	63.0874
1599.98	67.0448
1600.24	69.0166
1600.5	60.078
1600.76	65.0239
1601.02	67.9814
1601.28	73.9062
1601.54	61.9915
1601.8	62.9611
1602.06	65.914
1602.32	66.8894
1602.58	66.8757
1602.84	71.8085
1603.1	60.9075
1603.36	64.8498
1603.62	64.837
1603.88	69.7722
1604.14	68.7769
1604.4	66.7972
1604.66	66.7976
1604.92	72.7315
1605.17	66.799
1605.43	60.867
1605.69	62.8463
1605.95	65.8175
1606.21	69.7806
1606.47	65.8326
1606.73	64.8512
1606.99	67.8256
1607.25	65.839
1607.51	66.8399
1607.77	67.8182
1608.03	75.3696
1608.29	64.9079
1608.55	64.9897
1608.81	63.9827
1609.07	61.3782
1609.32	68.5359
1609.58	66.4058
1609.84	71.7915
1610.1	71.3171
1610.36	71.6805
1610.62	66.375
1610.88	67.7638
1611.14	67.2785
1611.4	70.1271
1611.66	67.3468
1611.92	66.1908
1612.18	69.3014
1612.44	68.8088
1612.69	72.138
1612.95	64.2185
1613.21	60.5716
1613.47	70.5164
1613.73	65.8352
1613.99	68.1744
1614.25	64.0559
1614.51	66.7032
1614.77	70.0873
1615.03	63.2901
1615.29	66.73
1615.54	70.2501
1615.8	69.9722
1616.06	64.0798
1616.32	64.8811
1616.58	69.0662
1616.84	67.9928
1617.1	68.8036
1617.36	68.3032
1617.62	66.1992
1617.88	69.1868
1618.13	66.8947
1618.39	70.4061
1618.65	65.5965
1618.91	69.3179
1619.17	69.7809
1619.43	67.5983
1619.69	69.2504
1619.95	70.7727
1620.2	73.1359
1620.46	69.6807
1620.72	68.1594
1620.98	69.0656
1621.24	65.8535
1621.5	63.8392
1621.76	69.9799
1622.02	71.0551
1622.27	67.6883
1622.53	68.4339
1622.79	66.4963
1623.05	70.4984
1623.31	69.1883
1623.57	67.9249
1623.83	70.7857
1624.09	69.0436
1624.34	65.0746
1624.6	64.7327
1624.86	65.8981
1625.12	70.2439
1625.38	70.2454
1625.64	69.6017
1625.9	69.08
1626.15	69.2195
1626.41	66.8851
1626.67	71.307
1626.93	72.1713
1627.19	65.4599
1627.45	65.9782
1627.7	68.1269
1627.96	73.156
1628.22	70.9504
1628.48	68.023
1628.74	66.8578
1629	67.2728
1629.26	70.4184
1629.51	66.5727
1629.77	65.1398
1630.03	66.2017
1630.29	69.2275
1630.55	70.9106
1630.81	72.6221
1631.06	73.8236
1631.32	68.1381
1631.53	66.616
1631.79	68.5954
1632.05	70.5779
1632.31	64.6759
1632.57	66.6425
1632.84	68.6316
1633.1	68.6653
1633.36	69.6256
1633.62	72.5449
1633.88	75.4917
1634.14	79.4431
1634.4	71.57
1634.66	76.5011
1634.93	72.5593
1635.19	72.5573
1635.45	61.7113
1635.71	73.5336
1635.97	68.599
1636.23	77.4597
1636.49	77.4492
1636.75	69.5572
1637.02	71.5168
1637.28	70.5194
1637.54	69.5208
1637.8	69.5133
1638.06	67.5407
1638.32	62.611
1638.58	74.4164
1638.84	70.4724
1639.1	71.4565
1639.37	70.4714
1639.63	72.4384
1639.89	69.4838
1640.15	68.4973
1640.41	74.3996
1640.67	69.4793
1640.93	77.3677
1641.19	63.5918
1641.46	69.5016
1641.72	75.4036
1641.98	72.4408
1642.24	66.5278
1642.5	66.5232
1642.76	73.41
1643.02	72.4214
1643.28	70.4492
1643.54	73.3994
1643.8	68.4751
1644.06	69.4527
1644.33	72.3963
1644.59	66.4803
1644.85	71.3895
1645.11	69.4186
1645.37	64.5036
1645.63	69.4312
1645.89	67.4673
1646.15	73.3717
1646.41	67.4594
1646.67	72.3697
1646.93	69.4096
1647.19	66.4529
1647.46	71.3631
1647.72	73.3212
1647.98	74.297
1648.24	72.3275
1648.5	70.3624
1648.76	66.4392
1649.02	72.354
1649.28	71.405
1649.54	72.4027
1649.8	72.3937
1650.06	71.4002
1650.32	74.3517
1650.58	61.5728
1650.85	71.4352
1651.11	71.4475
1651.37	68.5045
1651.63	73.4393
1651.89	68.5152
1652.15	70.4854
1652.41	69.4991
1652.67	76.3994
1652.93	70.4783
1653.19	64.557
1653.45	70.4639
1653.71	79.3303
1653.97	74.4065
1654.23	67.5152
1654.49	71.4604
1654.75	66.5348
1655.01	69.4951
1655.27	64.5744
1655.53	68.53
1655.8	65.5903
1656.06	67.586
1656.32	61.6803
1656.57	71.5588
1656.84	65.6417
1657.1	68.6051
1657.36	68.6021
1657.62	69.5822
1657.88	71.5473
1658.14	74.5022
1658.4	68.5748
1658.66	71.5264
1658.92	68.5557
1659.18	64.599
1659.44	66.5608
1659.7	70.4944
1659.96	64.567
1660.22	68.4949
1660.48	75.4004
1660.74	72.4512
1661	75.4199
1661.26	75.4324
1661.52	72.486
1661.78	69.5399
1662.04	66.5844
1662.3	67.5753
1662.56	66.5267
1662.82	70.603
1663.08	66.7199
1663.34	67.6705
1663.6	71.6148
1663.86	64.6795
1664.12	70.4609
1664.38	68.5604
1664.64	71.5381
1664.9	68.5813
1665.16	65.651
1665.42	61.711
1665.68	70.5263
1665.94	59.6127
1666.2	66.6853
1666.46	71.643
1666.72	70.6456
1666.98	67.5837
1667.24	65.4042
1667.5	70.532
1667.76	79.3984
1668.02	70.5029
1668.28	67.5344
1668.54	75.4144
1668.8	67.5226
1669.06	69.5261
1669.32	67.5893
1669.58	63.6448
1669.84	69.5716
1670.1	60.6831
1670.36	67.5895
1670.62	71.5393
1670.88	67.6225
1671.14	69.6212
1671.4	64.6708
1671.66	66.6414
1671.92	72.5674
1672.18	65.6509
1672.44	70.5979
1672.69	66.6452
1672.95	60.7127
1673.21	73.562
1673.47	70.5975
1673.73	64.6679
1673.99	70.6032
1674.25	67.6433
1674.51	64.6847
1674.77	65.6807
1675.03	64.699
1675.29	67.6783
1675.55	68.6772
1675.81	67.6926
1676.07	71.6511
1676.33	67.6904
1676.59	63.733
1676.85	67.6941
1677.11	69.6745
1677.37	68.6826
1677.63	66.6983
1677.89	66.6912
1678.14	64.7017
1678.4	67.6559
1678.66	68.6291
1678.92	69.6045
1679.18	71.5712
1679.44	65.6297
1679.7	65.6231
1679.96	65.6152
1680.22	68.5724
1680.48	67.5779
1680.74	63.6172
1681	65.5857
1681.26	61.6268
1681.52	68.5383
1681.78	63.5963
1682.03	73.4737
1682.29	68.533
1682.55	65.5687
1682.81	71.4967
1683.07	61.6135
1683.33	70.5016
1683.59	61.6087
1683.85	62.5954
1684.11	61.6047
1684.37	65.5508
1684.63	64.5519
1684.89	67.508
1685.14	62.5659
1685.4	68.4875
1685.66	65.5227
1685.92	67.4961
1686.18	65.5206
1686.44	69.4709
1686.7	62.5625
1686.96	70.4764
1687.22	62.5794
1687.48	66.5313
1687.73	59.6103
1687.99	62.5653
1688.25	66.5075
1688.51	59.5874
1688.77	65.5043
1689.03	71.4171
1689.29	62.5173
1689.55	64.4793
1689.81	67.427
1690.06	63.4665
1690.32	65.4237
1690.58	61.4735
1690.84	67.4054
1691.1	59.5201
1691.36	68.4046
1691.62	72.354
1691.88	62.492
1692.13	62.4964
1692.39	62.4954
1692.65	63.4776
1692.91	65.4407
1693.17	67.4001
1693.43	60.4793
1693.69	64.4061
1693.95	66.3573
1694.2	63.386
1694.46	72.2409
1694.72	63.358
1694.98	64.3326
1695.24	63.3455
1695.5	61.3779
1695.76	58.4247
1696.01	60.3974
1696.27	62.3709
1696.53	65.3346
1696.79	69.2816
1697.05	65.3379
1697.31	65.3306
1697.57	62.3616
1697.82	57.4196
1698.08	69.2198
1698.34	66.2505
1698.6	63.2849
1698.86	65.2416
1699.12	67.1997
1699.38	65.2257
1699.63	66.2068
1699.89	59.3213
1700.15	63.2567
1700.41	61.2885
1700.67	67.1791
1700.92	58.3207
1701.18	58.3169
1701.44	63.2309
1701.7	66.175
1701.96	61.2457
1702.22	65.1655
1702.47	63.1865
1702.73	63.1727
1702.99	58.2464
1703.25	58.2418
1703.51	70.0306
1703.77	63.1469
1704.02	60.1922
1704.28	70.0116
1704.54	62.1567
1704.8	65.1118
1705.06	59.2166
1705.32	65.1083
1705.57	61.1728
1705.83	61.1715
1706.09	60.1878
1706.35	64.1069
1706.61	66.0564
1706.86	61.1298
1707.12	64.0585
1707.38	59.1341
1707.64	61.0827
1707.9	60.0841
1708.16	62.0253
1708.41	60.0437
1708.67	60.0235
1708.93	67.8381
1709.19	62.9179
1709.44	53.1107
1709.7	64.8498
1709.96	61.9072
1710.22	66.7997
1710.48	57.0102
1710.73	60.9267
1710.99	59.9515
1711.25	68.7722
1711.51	63.881
1711.77	63.8854
1712.02	60.9506
1712.28	61.9298
1712.54	66.8187
1712.8	64.8406
1713.06	66.7701
1713.31	63.8054
1713.57	66.7124
1713.83	67.6646
1714.09	65.6836
1714.34	60.7854
1714.6	62.7302
1714.86	67.607
1715.12	58.8115
1715.38	59.7859
1715.63	67.6099
1715.89	60.784
1716.15	61.7594
1716.41	62.73
1716.66	65.6504
1716.92	65.6352
1717.18	62.6863
1717.44	59.735
1717.69	55.8062
1717.95	61.6281
1718.21	57.7012
1718.47	61.5752
1718.72	63.5017
1718.98	66.4077
1719.24	67.3719
1719.5	66.3957
1719.75	58.6047
1720.01	55.6794
1720.27	62.4978
1720.53	68.3413
1720.78	62.4918
1721.04	63.4527
1721.3	63.4343
1721.56	64.3925
1721.81	66.3239
1722.07	66.3076
1722.33	61.4285
1722.59	66.2715
1722.84	59.4511
1723.1	59.4357
1723.36	67.1925
1723.62	59.4103
1723.87	61.3444
1724.13	69.1109
1724.39	67.1619
1724.64	66.1863
1724.9	61.3205
1725.16	59.3621
1725.42	67.0986
1725.67	69.0131
1725.93	58.3223
1726.19	62.1834
1726.45	58.2985
1726.7	63.1472
1726.96	62.1722
1727.22	62.1617
1727.47	69.8869
1727.73	64.0727
1727.99	67.9619
1728.24	60.2067
1728.5	67.9437
1728.76	65.9805
1729.02	64.9213
1729.27	70.612
1729.53	58.9935
1729.79	61.9221
1730.05	66.7824
1730.3	65.8411
1730.56	65.7997
1730.82	60.9537
1731.07	59.9813
1731.33	63.9134
1731.59	64.883
1731.84	68.7489
1732.1	62.9474
1732.36	63.9089
1732.61	61.0026
1732.87	66.7919
1733.13	63.8825
1733.39	68.6969
1733.64	60.9504
1733.9	62.8554
1734.16	62.8279
1734.41	69.5588
1734.67	58.9301
1734.93	63.7291
1735.18	67.5612
1735.44	65.6121
1735.7	61.7406
1735.95	63.652
1736.21	65.5663
1736.47	64.5965
1736.72	64.5886
1736.98	63.6166
1737.24	64.5689
1737.49	68.4063
1737.75	63.5864
1738.01	64.539
1738.26	67.4112
1738.52	64.5116
1738.78	63.5356
1739.03	62.5601
1739.29	68.3084
1739.55	63.4851
1739.8	62.5
1740.06	65.3496
1740.32	66.2798
1740.57	69.1302
1740.83	65.2729
1741.09	60.4639
1741.34	67.1562
1741.6	68.098
1741.86	64.2519
1742.11	64.2401
1742.37	68.0621
1742.63	69.0143
1742.88	68.0503
1743.14	57.5123
1743.4	68.9937
1743.65	63.2477
1743.91	65.1543
1744.16	62.2692
1744.42	58.4304
1744.68	62.2467
1744.93	63.1976
1745.19	57.4573
1745.45	67.0222
1745.7	64.1515
1745.96	65.1035
1746.22	63.1814
1746.47	62.2113
1746.73	66.0177
1746.98	62.1742
1747.24	65.0247
1747.5	61.1845
1747.75	63.079
1748.01	63.0631
1748.27	64.9638
1748.52	61.1429
1748.78	65.9153
1749.03	68.7807
1749.29	63.0562
1749.55	61.1528
1749.8	66.8913
1750.06	60.2173
1750.32	59.2746
1750.57	61.1985
1750.83	59.2989
1751.08	67.9055
1751.34	66.9562
1751.6	61.2208
1751.85	65.9913
1752.11	63.1043
1752.36	64.0393
1752.62	63.0682
1752.88	62.0986
1753.13	72.5851
1753.39	65.8862
1753.64	63.0097
1753.9	63.9519
1754.15	62.9864
1754.41	70.6014
1754.67	62.9561
1754.92	63.8987
1755.18	61.982
1755.43	58.161
1755.69	65.7769
1755.95	65.7647
1756.2	62.8914
1756.46	69.542
1756.71	68.5699
1756.97	66.6427
1757.23	66.6202
1757.48	64.6971
1757.74	63.7368
1757.99	66.5811
1758.25	67.5353
1758.5	66.6029
1758.76	64.705
1759.02	66.6085
1759.27	62.8019
1759.53	61.8501
1759.78	62.8038
1760.04	63.7533
1760.3	64.6989
1760.55	71.3525
1760.81	66.5877
1761.06	71.3352
1761.32	68.4692
1761.57	60.8469
1761.83	69.3917
1762.08	67.4807
1762.34	61.771
1762.6	70.3223
1762.85	63.6783
1763.11	72.2417
1763.36	63.6846
1763.62	66.5331
1763.87	67.485
1764.13	69.3907
1764.38	71.299
1764.64	71.3127
1764.89	64.6774
1765.15	66.5901
1765.4	70.4053
1765.66	70.411
1765.92	72.3188
1766.17	65.656
1766.43	64.703
1766.68	71.3641
1766.94	66.5975
1767.19	65.6398
1767.45	70.3972
1767.7	71.3421
1767.96	73.2345
1768.21	73.2223
1768.47	70.3584
1768.73	70.3512
1768.98	66.5398
1769.24	70.3148
1769.49	69.3243
1769.75	69.2872
1770	72.1108
1770.26	72.1119
1770.51	66.4291
1770.77	70.245
1771.02	69.2952
1771.28	71.1995
1771.53	66.4656
1771.79	69.341
1772.04	71.2506
1772.3	60.7932
1772.55	69.3622
1772.81	71.278
1773.06	73.191
1773.32	72.2475
1773.57	68.4482
1773.83	65.599
1774.08	69.4118
1774.34	65.6084
1774.59	70.3714
1774.85	66.5654
1775.1	69.4305
1775.36	60.8643
1775.61	68.494
1775.87	70.4302
1776.12	66.6349
1776.38	71.4091
1776.63	67.5974
1776.89	70.4531
1777.14	66.6304
1777.4	72.3359
1777.65	68.5153
1777.91	73.2657
1778.16	69.4412
1778.42	75.1416
1778.67	66.5569
1778.93	72.2538
1779.18	66.5228
1779.44	69.3577
1779.69	74.102
1779.95	67.4403
1780.2	62.7006
1780.46	76.028
1780.71	73.1772
1780.97	62.7122
1781.22	69.3813
1781.47	66.5258
1781.73	70.3358
1781.98	66.5327
1782.24	62.7319
1782.49	66.5508
1782.75	67.5182
1783	63.7164
1783.26	67.5347
1783.51	68.4942
1783.77	60.8768
1784.02	67.557
1784.28	67.5659
1784.53	60.9018
1784.79	67.5936
1785.04	66.6492
1785.29	58.0668
1785.55	63.7905
1785.8	73.3268
1786.06	63.7784
1786.31	65.6782
1786.57	63.7705
1786.82	63.775
1787.08	62.8302
1787.33	66.6602
1787.58	63.8139
1787.84	69.5671
1788.09	67.6972
1788.35	64.8714
1788.6	66.8257
1788.86	61.1099
1789.11	63.0343
1789.37	62.0907
1789.62	60.1972
1789.87	60.2115
1790.13	61.1768
1790.38	67.8935
1790.64	68.8603
1790.89	66.9426
1791.15	63.104
1791.4	64.047
1791.65	63.0487
1791.91	65.9155
1792.16	62.0773
1792.42	67.8231
1792.67	65.9096
1792.93	65.9122
1793.18	62.0882
1793.43	66.8825
1793.69	57.3029
1793.94	66.8829
1794.2	62.1
1794.45	64.0179
1794.7	64.9739
1794.96	66.879
1795.21	65.9388
1795.47	60.2349
1795.72	61.2249
1795.97	57.4006
1796.23	56.4488
1796.48	65.1001
1796.74	58.3888
1796.99	59.36
1797.25	60.332
1797.5	57.4595
1797.75	60.3513
1798.01	61.3196
1798.26	61.3256
1798.51	62.2919
1798.77	57.4869
1799.02	55.5632
1799.28	51.713
1799.53	60.359
1799.78	59.3872
1800.04	66.102
1800.29	59.3625
1800.55	61.2744
1800.8	56.4627
1801.05	58.3777
1801.31	58.3731
1801.56	58.3702
1801.81	58.3691
1802.07	64.1334
1802.32	67.0187
1802.58	55.4957
1802.83	60.3062
1803.08	57.4324
1803.34	61.2877
1803.59	63.2229
1803.84	61.3099
1804.1	69.0081
1804.35	61.3169
1804.61	64.2095
1804.86	51.7138
1805.11	60.3827
1805.37	63.2827
1805.62	59.4468
1805.87	52.7197
1806.13	59.4723
1806.38	60.4454
1806.64	58.527
1806.89	66.2432
1807.14	56.6107
1807.4	65.2856
1807.65	62.3939
1807.9	62.3931
1808.16	59.5014
1808.41	60.4653
1808.66	64.3212
1808.92	59.5027
1809.17	58.5399
1809.42	62.3971
1809.68	57.5782
1809.93	66.2563
1810.18	59.5093
1810.44	59.5103
1810.69	56.6174
1810.94	57.5776
1811.2	59.5018
1811.45	65.2843
1811.7	61.4257
1811.96	56.6036
1812.21	55.6391
1812.46	63.3536
1812.72	65.288
1812.97	52.7596
1813.22	58.5552
1813.48	54.704
1813.73	53.7415
1813.98	63.397
1814.24	63.4103
1814.49	54.738
1814.74	61.512
1815	54.7696
1815.25	61.5425
1815.5	59.6185
1815.76	59.6226
1816.01	58.6582
1816.26	62.5261
1816.52	59.6286
1816.77	56.7317
1817.02	63.5019
1817.27	58.6637
1817.53	63.4868
1817.78	54.7611
1818.03	59.5703
1818.29	58.6064
1818.54	55.7179
1818.79	61.5297
1819.05	61.5384
1819.3	59.6015
1819.55	57.6719
1819.8	64.4438
1820.06	66.3839
1820.31	62.5218
1820.56	65.4289
1820.82	58.6676
1821.07	64.4759
1821.32	60.612
1821.58	56.7498
1821.83	63.5307
1822.08	58.7005
1822.33	55.8029
1822.59	67.4219
1822.84	55.8098
1823.09	54.8439
1823.34	58.7179
1823.6	63.5561
1823.85	55.8056
1824.1	60.6383
1824.36	62.5714
1824.61	60.6395
1824.86	53.8676
1825.11	56.7756
1825.37	60.6532
1825.62	59.6904
1825.87	62.599
1826.12	59.6939
1826.38	62.5979
1826.63	58.7242
1826.88	54.8508
1827.14	60.6622
1827.39	60.665
1827.64	64.5445
1827.89	52.9251
1828.15	56.8049
1828.4	60.6798
1828.65	63.5829
1828.9	50.9814
1829.16	62.5967
1829.41	60.6527
1829.66	55.8066
1829.91	57.7403
1830.17	57.7359
1830.42	60.6329
1830.67	63.5296
1830.92	55.7768
1831.18	59.6484
1831.43	61.5905
1831.68	55.7876
1831.93	57.7313
1832.19	58.7062
1832.44	63.5566
1832.69	58.72
1832.94	62.6073
1833.2	60.6767
1833.45	66.4926
1833.7	59.7079
1833.95	63.59
1834.2	60.6837
1834.46	57.7782
1834.71	55.8236
1834.96	58.6991
1835.21	61.5737
1835.47	56.7049
1835.72	57.6544
1835.97	60.5393
1836.22	54.7337
1836.48	54.7199
1836.73	58.8261
1836.98	60.7593
1837.23	58.7369
1837.48	62.5841
1837.74	60.6015
1837.99	60.5624
1838.24	58.5657
1838.49	55.6298
1838.74	59.4862
1839	61.521
1839.25	54.7857
1839.5	60.6181
1839.75	55.7808
1840	52.88
1840.26	54.8309
1840.51	55.7476
1840.76	59.5785
1841.01	59.5417
1841.27	59.5103
1841.52	57.5484
1841.77	56.5556
1842.02	52.6698
1842.27	58.4398
1842.53	55.5244
1842.78	62.2559
1843.03	60.3365
1843.28	63.223
1843.53	58.4059
1843.78	56.4747
1844.04	62.2613
1844.29	57.4309
1844.54	53.5713
1844.79	55.5062
1845.04	57.4356
1845.3	53.5668
1845.55	58.3905
1845.8	61.2836
1846.05	59.3781
1846.3	59.4032
1846.55	57.4941
1846.81	58.5002
1847.06	57.5004
1847.31	51.629
1847.56	60.2065
1847.81	55.3724
1848.07	60.1854
1848.32	57.3256
1848.57	56.3878
1848.82	59.2467
1849.07	55.3784
1849.32	56.3419
1849.57	58.2549
1849.83	63.0488
1850.08	61.1037
1850.33	59.1608
1850.58	55.2916
1850.83	59.1187
1851.09	57.1802
1851.34	56.206
1851.59	52.352
1851.84	60.0262
1852.09	58.0983
1852.34	61.9354
1852.59	60.9734
1852.84	60.9724
1853.1	60.9711
1853.35	58.0876
1853.6	62.8835
1853.85	58.0751
1854.1	59.0224
1854.35	56.1259
1854.6	59.9436
1854.86	58.9662
1855.11	53.2027
1855.36	59.9044
1855.61	58.9272
1855.86	60.8228
1856.11	56.0205
1856.36	52.1828
1856.61	59.8414
1856.87	58.8825
1857.12	57.9232
1857.37	51.215
1857.62	55.9978
1857.87	58.8627
1858.12	63.6415
1858.37	56.9292
1858.63	55.9594
1858.88	61.6868
1859.13	61.6712
1859.38	57.8292
1859.63	59.7255
1859.88	56.8457
1860.13	61.6232
1860.38	63.5344
1860.63	54.9325
1860.89	54.9418
1861.14	59.7326
1861.39	55.914
1861.64	53.0531
1861.89	60.7159
1862.14	48.2773
1862.39	54.9722
1862.64	60.7035
1862.9	57.8195
1863.15	57.8045
1863.4	54.9211
1863.65	55.8631
1863.9	53.9384
1864.15	56.7933
1864.4	56.7817
1864.65	51.9945
1864.9	58.6691
1865.15	56.746
1865.4	60.5486
1865.66	55.7577
1865.91	59.5537
1866.16	49.9935
1866.41	52.8309
1866.66	51.8541
1866.91	52.7835
1867.16	58.4721
1867.41	54.6403
1867.66	52.7158
1867.91	62.2088
1868.16	51.7378
1868.41	56.4843
1868.67	54.5779
1868.92	54.5777
1869.17	57.4316
1869.42	55.5285
1869.67	56.4751
1869.92	60.2727
1870.17	61.2186
1870.42	51.7093
1870.67	58.3587
1870.92	55.504
1871.17	55.5014
1871.42	61.2017
1871.67	47.8917
1871.92	58.3374
1872.17	54.5259
1872.42	57.368
1872.68	57.361
1872.93	57.3493
1873.18	61.1342
1873.43	59.226
1873.68	56.3742
1873.93	56.3685
1874.18	56.3593
1874.43	58.2453
1874.68	53.4875
1874.93	56.3183
1875.18	53.4579
1875.43	58.1818
1875.68	63.8505
1875.93	62.879
1876.18	52.4274
1876.43	57.1392
1876.68	55.228
1876.93	50.4835
1877.18	58.0419
1877.43	60.8476
1877.68	57.0301
1877.93	51.301
1878.18	56.0644
1878.44	59.1127
1878.69	55.2419
1878.93	64.6778
1879.19	57.0996
1879.44	59.9941
1879.69	59.0735
1879.94	60.0013
1880.19	62.8223
1880.44	59.0308
1880.69	61.8659
1880.94	57.144
1881.19	58.0767
1881.44	59.0193
1881.69	58.0471
1881.94	56.1253
1882.19	53.2596
1882.44	57.954
1882.69	54.1417
1882.94	56.9334
1883.19	58.8027
1883.44	60.6437
1883.69	58.2012
1883.94	54.1666
1884.19	67.216
1884.44	54.9683
1884.69	56.8862
1884.94	58.7395
1885.19	63.475
1885.44	58.7901
1885.69	56.9104
1885.94	55.9731
1886.19	56.9438
1886.44	56.9562
1886.69	52.2416
1886.94	55.0683
1887.19	61.6518
1887.44	55.974
1887.69	54.0726
1887.94	62.548
1888.19	60.6445
1888.44	56.8547
1888.69	54.9461
1888.94	63.4047
1889.19	54.9068
1889.44	52.0639
1889.69	56.7608
1889.94	64.2884
1890.19	59.5776
1890.44	60.5235
1890.69	59.5947
1890.94	56.782
1891.19	58.6687
1891.43	58.6653
1891.68	59.6006
1891.94	60.5401
1892.18	51.1178
1892.43	52.9973
1892.68	63.3521
1892.93	56.7513
1893.18	52.0317
1893.43	61.4214
1893.68	54.8026
1893.93	59.4744
1894.18	64.1652
1894.43	60.4146
1894.68	60.3912
1894.93	56.6211
1895.18	59.4339
1895.43	60.3739
1895.68	59.4378
1895.93	59.4429
1896.18	55.6899
1896.43	59.4556
1896.68	55.7042
1896.93	59.4749
1897.18	54.7822
1897.42	59.4909
1897.68	50.0893
1897.92	61.3785
1898.17	58.5552
1898.42	55.7286
1898.67	52.8994
1898.92	60.4116
1899.17	59.4565
1899.42	55.6805
1899.67	58.4877
1899.92	52.8427
1900.17	60.3506
1900.42	60.3418
1900.67	60.3386
1900.92	52.8244
1901.16	62.2235
1901.41	63.1725
1901.66	55.6661
1901.91	61.3161
1902.16	56.6265
1902.41	55.6985
1902.66	58.5316
1902.91	62.2939
1903.16	54.7627
1903.41	55.6963
1903.66	58.5096
1903.91	60.3839
1904.16	60.3789
1904.41	60.3749
1904.65	59.4317
1904.9	57.5482
1905.15	62.2445
1905.4	62.2409
1905.65	57.5386
1905.9	56.5941
1906.15	52.8179
1906.4	56.5561
1906.65	62.1829
1906.9	55.6001
1907.14	58.4105
1907.39	62.1613
1907.64	59.3438
1907.89	64.0417
1908.14	56.5353
1908.39	57.4844
1908.64	59.3671
1908.89	64.0672
1909.14	54.6764
1909.39	66.9016
1909.63	62.2142
1909.88	63.1693
1910.13	62.2469
1910.38	62.2666
1910.63	58.5228
1910.88	60.423
1911.13	58.5524
1911.38	52.9095
1911.62	55.7396
1911.87	60.4507
1912.12	59.5072
1912.37	55.7343
1912.62	58.5549
1912.87	61.3781
1913.12	60.435
1913.37	65.1434
1913.61	57.6096
1913.86	57.6174
1914.11	63.287
1914.36	63.3061
1914.61	58.6058
1914.86	60.5031
1915.11	59.5721
1915.36	54.8657
1915.6	64.3084
1915.85	68.0858
1916.1	58.6469
1916.35	59.5845
1916.6	59.5802
1916.85	52.9669
1917.1	54.8408
1917.34	58.602
1917.59	61.4209
1917.84	59.5278
1918.09	60.4658
1918.34	58.5809
1918.59	53.8736
1918.83	60.4863
1919.08	61.4451
1919.33	59.5754
1919.58	63.3696
1919.83	58.6734
1920.08	60.5828
1920.33	59.6485
1920.57	61.5401
1920.82	58.6973
1921.07	63.4248
1921.32	54.9339
1921.57	54.9475
1921.81	60.6282
1922.06	57.7987
1922.31	57.8028
1922.56	58.7476
1922.81	55.9048
1923.06	58.7317
1923.31	55.8858
1923.55	61.5513
1923.8	61.5453
1924.05	58.7028
1924.3	57.7483
1924.55	61.5163
1924.79	55.8391
1925.04	55.8357
1925.29	59.6161
1925.54	55.8432
1925.79	64.3601
1926.04	60.5973
1926.28	58.722
1926.53	64.4117
1926.78	59.6977
1927.03	57.8227
1927.28	59.7272
1927.52	57.8417
1927.77	59.7428
1928.02	58.8023
1928.27	58.8081
1928.52	59.7608
1928.76	62.6062
1929.01	55.9808
1929.26	63.5683
1929.51	56.9429
1929.76	60.7467
1930	58.8681
1930.25	56.0366
1930.5	58.8994
1930.75	56.0655
1931	53.2316
1931.24	57.9818
1931.49	60.8308
1931.74	59.8756
1931.99	54.171
1932.24	57.9592
1932.48	57.0009
1932.73	59.8385
1932.98	56.9818
1933.23	61.7217
1933.47	54.1236
1933.72	56.0233
1933.97	64.5789
1934.22	54.1663
1934.46	60.8511
1934.71	55.1994
1934.96	57.1494
1935.21	58.1437
1935.46	53.4137
1935.7	61.0669
1935.95	56.3177
1936.2	54.3726
1936.45	61.0375
1936.69	57.2204
1936.94	57.212
1937.19	62.9152
1937.44	61.9462
1937.68	60.0276
1937.93	60.0138
1938.18	59.0498
1938.43	60.9399
1938.68	56.1798
1938.92	59.0546
1939.17	58.1085
1939.42	62.878
1939.67	59.0777
1939.91	59.0844
1940.16	61.9515
1940.41	54.3306
1940.66	53.3898
1940.9	55.3085
1941.15	57.2523
1941.4	56.3192
1941.64	61.0896
1941.89	52.493
1942.14	56.2883
1942.39	61.9727
1942.63	61.0409
1942.88	61.103
1943.13	54.4327
1943.38	53.479
1943.62	55.365
1943.87	56.2928
1944.12	61.0408
1944.37	58.2158
1944.61	54.4093
1944.86	63.9674
1945.11	60.1613
1945.35	57.3096
1945.6	57.3229
1945.85	58.2918
1946.1	59.2597
1946.34	54.4893
1946.59	57.3654
1946.84	54.5017
1947.09	62.1555
1947.33	54.5018
1947.58	60.234
1947.83	60.2267
1948.07	53.5306
1948.32	60.2226
1948.57	58.3086
1948.82	58.3028
1949.06	57.3484
1949.31	55.4451
1949.56	62.1514
1949.8	62.1637
1950.05	61.2216
1950.3	61.2368
1950.54	53.6004
1950.79	61.2893
1951.04	63.2273
1951.29	58.4569
1951.53	60.3987
1951.78	60.421
1952.03	59.4786
1952.27	57.5693
1952.52	59.4976
1952.77	60.4668
1953.01	58.5426
1953.26	56.6312
1953.51	62.4097
1953.76	62.3911
1954	60.4458
1954.25	61.365
1954.49	59.4111
1954.74	57.4612
1954.99	57.4335
1955.24	57.4241
1955.48	61.2528
1955.73	53.5946
1955.98	56.4833
1956.22	60.342
1956.47	59.4246
1956.72	58.4809
1956.96	56.579
1957.21	51.7869
1957.46	61.4026
1957.7	61.4146
1957.95	60.4646
1958.2	63.3553
1958.44	59.5166
1958.69	62.4033
1958.94	48.9488
1959.18	62.3994
1959.43	62.3861
1959.68	64.3005
1959.92	59.4929
1960.17	54.6792
1960.42	57.551
1960.66	61.3826
1960.91	62.3313
1961.16	57.5181
1961.4	61.3462
1961.65	54.6175
1961.9	55.5704
1962.14	60.3696
1962.39	59.4124
1962.63	58.4539
1962.88	59.4153
1963.13	59.4168
1963.37	60.3781
1963.62	61.3392
1963.87	57.5004
1964.11	62.3025
1964.36	61.3491
1964.61	60.3946
1964.85	66.1541
1965.1	60.3866
1965.35	62.3073
1965.59	62.3039
1965.84	61.344
1966.08	58.4682
1966.33	63.2811
1966.58	64.2552
1966.82	60.425
1967.07	58.5113
1967.32	67.1688
1967.56	67.1657
1967.81	60.4369
1968.05	60.4412
1968.3	59.4813
1968.55	62.3671
1968.79	56.5966
1969.04	67.1643
1969.29	59.4624
1969.53	61.3682
1969.78	58.4658
1970.02	55.565
1970.27	59.3895
1970.52	57.4563
1970.76	57.4469
1971.01	63.193
1971.25	68.9386
1971.5	62.2146
1971.75	64.1258
1971.99	58.3649
1972.24	62.2049
1972.48	67.9658
1972.73	67.009
1972.98	59.3325
1973.22	67.9596
1973.47	55.4786
1973.71	68.8897
1973.96	65.9997
1974.21	61.1967
1974.45	63.1074
1974.7	65.0208
1974.94	66.9371
1975.19	60.2288
1975.44	62.15
1975.68	65.0333
1975.93	68.878
1976.17	69.8453
1976.42	64.0968
1976.66	67.9369
1976.91	61.2236
1977.16	62.1822
1977.4	72.7307
1977.65	66.9698
1977.89	66.9611
1978.14	67.9084
1978.39	69.8137
1978.63	62.1339
1978.88	65.0016
1979.12	64.038
1979.37	64.0368
1979.61	65.9548
1979.86	68.8297
1980.1	64.9972
1980.35	73.6245
1980.6	64.9899
1980.84	65.9354
1981.09	70.7139
1981.33	61.1258
1981.58	66.8637
1981.82	70.6866
1982.07	66.8495
1982.31	69.7193
1982.56	65.8846
1982.81	74.4912
1983.05	65.8608
1983.3	60.1009
1983.54	77.3064
1983.79	69.6346
1984.03	64.8436
1984.28	73.4468
1984.52	69.6126
1984.77	73.4298
1985.02	73.4224
1985.26	67.6721
1985.51	69.5649
1985.75	72.4224
1986	72.4217
1986.24	73.381
1986.49	70.5223
1986.73	69.5771
1986.98	75.3193
1987.22	70.5345
1987.47	71.4949
1987.71	83.9109
1987.96	77.1943
1988.21	76.2118
1988.45	77.1369
1988.7	72.3278
1988.94	76.0715
1989.19	78.7976
1989.43	71.2686
1989.68	79.4138
1989.92	77.3605
1990.17	73.1421
1990.41	75.718
1990.66	81.8805
1990.9	74.7435
1991.15	75.6885
1991.39	73.2465
1991.64	74.2898
1991.88	77.9831
1992.13	74.2223
1992.37	74.6998
1992.62	75.9357
1992.86	77.0108
1993.11	79.9358
1993.35	78.8828
1993.6	75.6351
1993.84	75.0199
1994.09	76.7161
1994.33	71.072
1994.58	77.0562
1994.82	72.9823
1995.07	73.8546
1995.31	72.7789
1995.56	82.4096
1995.8	78.9659
1996.05	77.7276
1996.29	75.2618
1996.54	73.5405
1996.78	79.6822
1997.03	76.0095
1997.27	76.9474
1997.52	79.4063
1997.76	81.2189
1998.01	74.0362
1998.25	78.0102
1998.5	74.9858
1998.74	78.4929
1998.99	78.7656
1999.23	79.1769
1999.48	74.5243
1999.72	82.4888
1999.97	82.0861
2000.21	79.3935
2000.46	83.7528
2000.7	77.0416
2000.95	75.0172
2001.19	77.552
2001.43	78.8476
2001.68	82.3313
2001.92	79.6321
2002.17	86.382
2002.41	82.484
2002.66	77.8639
2002.9	80.4529
2003.15	83.5015
2003.39	80.4858
2003.64	79.4001
2003.88	83.2369
2004.13	79.4007
2004.37	85.4651
2004.61	81.8862
2004.86	78.1202
2005.1	78.7091
2005.35	84.5777
2005.59	84.2241
2005.84	81.8124
2006.08	85.384
2006.33	86.4245
2006.57	86.0633
2006.81	82.6045
2007.06	81.5681
2007.3	82.398
2007.55	82.1734
2007.79	80.4313
2008.04	78.2598
2008.28	77.7766
2008.53	78.2448
2008.77	79.6773
2009.01	86.5406
2009.26	86.3383
2009.5	88.0633
2009.75	82.5854
2009.99	84.6571
2010.24	85.8035
2010.48	80.1761
2010.73	81.2169
2010.97	82.2157
2011.21	80.4905
2011.46	79.002
2011.7	77.8103
2011.95	88.0275
2012.19	82.5404
2012.43	79.8206
2012.68	83.5799
2012.92	77.9237
2013.17	84.4964
2013.42	86.3484
2013.67	82.5425
2013.91	78.757
2014.16	80.6073
2014.41	75.8736
2014.66	80.528
2014.9	84.2441
2015.15	76.7249
2015.4	77.6662
2015.64	74.8602
2015.89	77.6889
2016.14	76.7586
2016.39	81.4438
2016.63	73.9514
2016.88	73.0655
2017.13	78.7148
2017.37	75.8899
2017.62	82.4556
2017.87	82.4357
2018.11	78.6531
2018.36	79.561
2018.61	80.4658
2018.86	80.4357
2019.1	73.8415
2019.35	82.2477
2019.6	76.595
2019.84	82.2007
2020.09	75.6315
2020.34	79.3715
2020.58	70.9397
2020.83	76.5551
2021.08	80.2975
2021.33	74.6819
2021.57	76.5592
2021.82	76.559
2022.07	81.2378
2022.31	76.547
2022.56	79.3447
2022.81	79.329
2023.05	74.6291
2023.3	71.8003
2023.55	68.9778
2023.8	73.6385
2024.04	75.4919
2024.29	74.5399
2024.54	73.5901
2024.78	69.8277
2025.03	79.1438
2025.27	76.3155
2025.52	78.1578
2025.77	73.468
2026.02	75.3132
2026.26	72.4884
2026.51	78.0911
2026.76	79.9856
2027	71.6328
2027.25	70.7524
2027.5	75.4885
2027.74	76.4638
2027.99	70.8394
2028.23	72.6639
2028.48	68.8599
2028.73	70.535
2028.98	72.59
2029.22	70.9801
2029.47	69.9021
2029.72	70.903
2029.96	71.7137
2030.21	68.8334
2030.45	66.8891
2030.7	68.7502
2030.95	66.8296
2031.19	68.7427
2031.44	72.5155
2031.69	68.7717
2031.93	68.7716
2032.18	70.6391
2032.43	72.5257
2032.67	72.549
2032.92	76.3111
2033.17	69.7954
2033.41	70.7473
2033.66	74.5004
2033.91	72.6517
2034.15	72.6615
2034.4	73.5578
2034.64	68.8371
2034.89	70.6326
2035.14	70.6136
2035.38	68.7765
2035.63	66.9322
2035.87	68.8378
2036.12	72.6265
2036.37	67.9865
2036.61	67.0476
2036.86	66.0774
2037.11	70.7528
2037.35	71.7043
2037.6	72.6381
2037.84	69.8289
2038.09	73.5611
2038.34	67.9425
2038.58	72.6056
2038.83	63.2483
2039.08	64.1719
2039.32	70.7006
2039.57	68.8196
2039.81	70.675
2040.06	68.7913
2040.31	68.7711
2040.55	61.2862
2040.8	63.1355
2041.04	67.7832
2041.29	75.2285
2041.54	70.553
2041.78	61.224
2042.03	61.2195
2042.27	69.5993
2042.52	63.9985
2042.77	62.1208
2043.01	66.7738
2043.26	63.9777
2043.5	63.9827
2043.75	66.7955
2044	66.8216
2044.24	74.3113
2044.49	66.8583
2044.73	65.9215
2044.98	69.6359
2045.23	62.1456
2045.47	69.5412
2045.72	69.6258
2045.96	67.7809
2046.21	66.0082
2046.45	65.1794
2046.7	69.7981
2046.95	64.1257
2047.19	63.1445
2047.44	63.1465
2047.68	62.1941
2047.93	69.6029
2048.17	63.0621
2048.42	64.9286
2048.67	57.473
2048.91	61.2055
2049.16	60.2788
2049.4	63.0918
2049.65	63.1046
2049.89	60.3226
2050.14	63.1445
2050.39	60.3597
2050.63	62.2443
2050.88	61.3193
2051.12	62.2561
2051.37	65.0542
2051.61	60.3703
2051.86	62.2195
2052.11	62.2182
2052.35	64.0864
2052.6	57.5583
2052.84	63.1639
2053.09	62.2368
2053.33	63.1805
2053.58	65.0612
2053.82	65.0774
2054.07	62.3024
2054.31	61.3782
2054.56	65.1275
2054.8	67.9355
2055.05	61.3853
2055.3	66.0584
2055.54	63.2472
2055.79	61.3613
2056.03	60.4187
2056.28	65.09
2056.52	60.4088
2056.77	59.4669
2057.01	60.3971
2057.26	62.2656
2057.5	59.4637
2057.75	67.8812
2058	62.2794
2058.24	56.6777
2058.49	63.2325
2058.73	61.3765
2058.98	66.0684
2059.22	66.0817
2059.47	51.1144
2059.71	62.3505
2059.96	60.481
2060.2	64.2265
2060.45	59.5374
2060.69	56.7199
2060.94	61.3925
2061.18	55.7834
2061.43	62.3437
2061.67	60.4771
2061.92	61.4154
2062.16	60.4799
2062.41	54.8635
2062.65	60.4852
2062.9	58.6181
2063.14	52.0694
2063.39	59.5726
2063.63	62.393
2063.88	65.2121
2064.12	56.7838
2064.37	62.4119
2064.61	63.3538
2064.86	60.5481
2065.1	58.6812
2065.35	59.6322
2065.59	57.7734
2065.84	55.912
2066.08	59.6797
2066.33	55.9355
2066.57	61.5766
2066.82	56.8835
2067.06	55.9498
2067.31	53.1379
2067.55	55.0206
2067.8	58.7852
2068.04	56.9151
2068.29	60.6815
2068.53	63.507
2068.78	61.6304
2069.02	66.3396
2069.27	55.9987
2069.51	56.93
2069.76	56.9132
2070	64.4021
2070.25	60.6341
2070.49	53.1255
2070.73	57.8452
2070.98	54.1133
2071.22	58.8438
2071.47	66.3633
2071.71	58.8208
2071.96	61.7117
2072.2	59.8528
2072.45	57.9645
2072.69	60.7845
2072.94	57.9573
2073.18	56.0686
2073.43	59.834
2073.67	66.4205
2073.92	59.8322
2074.16	63.5999
2074.4	57.9534
2074.65	57.0176
2074.89	60.7953
2075.14	57.9844
2075.38	56.1189
2075.63	58.9721
2075.87	49.5682
2076.12	60.911
2076.36	52.4259
2076.6	57.1466
2076.85	59.9807
2077.09	59.0297
2077.34	55.2419
2077.58	58.0594
2077.83	55.2027
2078.07	58.9678
2078.31	65.5761
2078.56	56.1565
2078.8	58.0477
2079.05	56.1653
2079.29	50.511
2079.54	50.5223
2079.78	54.3227
2080.03	60.0002
2080.27	50.5631
2080.51	57.1846
2080.76	59.0814
2081	51.5217
2081.25	59.075
2081.49	58.1254
2081.74	56.2335
2081.98	56.2323
2082.22	52.4504
2082.47	57.1782
2082.71	57.182
2082.96	57.1847
2083.2	58.1302
2083.45	58.1287
2083.69	58.1257
2083.93	53.3981
2084.18	61.902
2084.42	54.3426
2084.67	57.1762
2084.91	54.3416
2085.15	59.0677
2085.4	56.2326
2085.64	59.0669
2085.89	56.2315
2086.13	57.1799
2086.37	55.3034
2086.62	60.0487
2086.86	47.7656
2087.11	56.2836
2087.35	54.3977
2087.59	61.0299
2087.84	54.4108
2088.08	59.1425
2088.32	56.3037
2088.57	57.251
2088.81	52.5207
2089.06	57.2555
2089.3	55.3645
2089.54	61.0529
2089.79	56.3282
2090.03	56.3426
2090.28	58.2418
2090.52	58.2443
2090.76	61.09
2091.01	58.2527
2091.25	55.4158
2091.5	60.1598
2091.74	56.3745
2091.98	53.5443
2092.23	59.2493
2092.47	58.3191
2092.72	54.5415
2092.96	57.4078
2093.2	58.3722
2093.45	59.336
2093.69	55.5504
2093.93	63.1658
2094.18	54.6238
2094.42	57.4856
2094.66	58.4391
2094.91	52.7339
2095.15	57.4843
2095.39	57.4796
2095.64	61.2713
2095.88	56.5078
2096.13	50.7982
2096.37	55.542
2096.61	53.6373
2096.86	59.3345
2097.1	55.5318
2097.34	55.5237
2097.59	55.512
2097.83	54.5509
2098.07	53.5964
2098.32	61.1873
2098.56	57.3866
2098.8	59.276
2099.05	58.3264
2099.29	55.477
2099.53	53.575
2099.78	57.368
2100.02	49.7743
2100.27	59.2642
2100.51	51.6732
2100.75	55.4717
2101	54.5275
2101.24	56.4391
2101.48	50.7517
2101.73	56.456
2101.97	47.9106
2102.21	52.6591
2102.45	59.3058
2102.7	56.4561
2102.94	58.3516
2103.18	57.392
2103.43	55.4808
2103.67	52.626
2103.92	57.3703
2104.16	59.2649
2104.4	57.3669
2104.64	59.2699
2104.89	53.5815
2105.13	50.7399
2105.37	56.4451
2105.62	60.2542
2105.86	60.2671
2106.1	53.6256
2106.35	57.4328
2106.59	56.4874
2106.83	56.4898
2107.08	56.4916
2107.32	52.6932
2107.56	64.1039
2107.8	54.5893
2108.05	59.3307
2108.29	51.7127
2108.53	54.5479
2108.78	56.432
2109.02	58.3185
2109.26	53.5658
2109.51	50.7189
2109.75	54.5302
2109.99	55.4907
2110.23	60.2405
2110.48	56.4402
2110.72	60.2394
2110.96	53.5887
2111.21	55.4882
2111.45	54.537
2111.69	53.5828
2111.93	52.625
2112.18	53.5686
2112.42	48.8166
2112.66	54.5135
2112.91	60.2167
2113.15	50.7239
2113.39	52.6292
2113.63	56.4423
2113.88	52.6516
2114.12	57.4085
2114.36	58.355
2114.61	60.2499
2114.85	54.546
2115.09	55.4982
2115.33	57.3998
2115.58	56.4456
2115.82	58.3407
2116.06	59.2857
2116.31	58.33
2116.55	54.5178
2116.79	50.7077
2117.03	58.2997
2117.28	57.3465
2117.52	60.1922
2117.76	55.4459
2118	57.3387
2118.25	49.7339
2118.49	56.3697
2118.73	53.5072
2118.97	47.7986
2119.22	53.478
2119.46	47.7763
2119.7	51.558
2119.94	58.1819
2120.19	53.432
2120.43	52.4761
2120.67	55.3152
2120.91	51.526
2121.16	59.1156
2121.4	55.3292
2121.64	54.3929
2121.88	54.4056
2122.13	54.417
2122.37	57.2738
2122.61	48.744
2122.85	53.4959
2123.1	52.5532
2123.34	53.5079
2123.58	50.6637
2123.82	59.2095
2124.07	51.6097
2124.31	53.5017
2124.55	54.441
2124.79	53.4775
2125.03	53.4556
2125.28	58.1693
2125.52	49.615
2125.76	57.1752
2126	57.157
2126.25	53.3531
2126.49	55.2313
2126.73	56.1652
2126.97	55.2067
2127.21	51.4109
2127.46	58.0187
2127.7	51.3943
2127.94	51.391
2128.18	54.2235
2128.43	53.2717
2128.67	55.1582
2128.91	53.2672
2129.15	53.2668
2129.39	53.264
2129.64	60.8203
2129.88	55.1449
2130.12	56.0868
2130.36	52.3034
2130.6	52.2995
2130.85	55.1296
2131.09	53.2339
2131.33	53.2267
2131.57	54.1628
2131.81	57.9312
2132.06	57.9223
2132.3	57.916
2132.54	56.9647
2132.78	56.0089
2133.02	55.0542
2133.27	55.9919
2133.51	53.1596
2133.75	60.7103
2133.99	47.5004
2134.23	54.1061
2134.48	53.1641
2134.72	55.9964
2134.96	56.938
2135.2	57.8794
2135.44	55.0459
2135.68	53.1552
2135.93	56.9234
2136.17	53.1393
2136.41	56.8949
2136.65	54.9915
2136.89	50.2693
2137.14	54.0417
2137.38	52.1578
2137.62	57.8149
2137.86	52.1631
2138.1	57.8323
2138.34	55.9412
2138.59	53.0962
2138.83	54.9694
2139.07	53.0933
2139.31	51.2237
2139.55	55.9513
2139.79	48.3803
2140.03	52.1311
2140.28	55.8905
2140.52	53.0549
2140.76	53.9895
2141	52.0992
2141.24	51.1525
2141.49	56.7983
2141.73	52.0896
2141.97	53.9615
2142.21	51.1246
2142.45	46.4129
2142.69	53.9427
2142.93	54.894
2143.18	56.7852
2143.42	61.5431
2143.66	55.8657
2143.9	53.846
2144.14	55.7243
2144.38	57.6138
2144.62	53.8726
2144.87	52.9499
2145.11	52.9598
2145.35	52.9286
2145.59	51.9921
2145.83	56.6952
2146.07	55.7511
2146.31	53.8655
2146.55	50.0999
2146.8	52.9151
2147.04	52.9102
2147.28	51.9644
2147.52	58.5342
2147.76	54.7674
2148	56.6388
2148.24	50.0567
2148.48	57.5642
2148.73	56.6176
2148.97	56.6095
2149.21	53.7835
2149.45	50.9557
2149.69	56.5736
2149.93	52.7971
2150.17	54.6599
2150.42	56.5194
2150.66	51.8204
2150.9	51.8143
2151.14	58.3736
2151.38	55.5658
2151.62	59.3245
2151.86	49.9536
2152.1	52.7741
2152.34	52.777
2152.58	59.3497
2152.83	49.9617
2153.07	55.5802
2153.31	55.5693
2153.55	52.7472
2153.79	51.8047
2154.03	49.9248
2154.27	59.2863
2154.51	54.5869
2154.75	51.7581
2154.99	55.4798
2155.24	48.9069
2155.48	54.496
2155.72	55.4129
2155.96	56.3304
2156.2	54.4463
2156.44	48.8294
2156.68	54.4288
2156.92	51.6232
2157.16	56.2919
2157.4	52.5548
2157.64	51.6238
2157.89	57.2363
2158.13	53.5081
2158.37	52.5814
2158.61	46.9746
2158.85	48.843
2159.09	50.7094
2159.33	53.5081
2159.57	50.6972
2159.81	53.4912
2160.05	53.4797
2160.29	56.2676
2160.53	54.3854
2160.77	54.3727
2161.01	58.0944
2161.25	53.4214
2161.5	59.9497
2161.74	50.613
2161.98	53.4063
2162.22	53.4036
2162.46	59.0002
2162.7	51.5364
2162.94	54.3335
2163.18	52.4624
2163.42	56.1856
2163.66	53.3808
2163.9	50.5771
2164.14	49.6385
2164.38	54.2934
2164.62	57.0772
2164.86	57.0615
2165.11	51.4614
2165.35	52.3944
2165.59	53.3308
2165.83	56.1263
2166.07	52.399
2166.31	47.7395
2166.55	51.4603
2166.79	53.3173
2167.03	46.7879
2167.27	48.6405
2167.51	49.5638
2167.75	50.4826
2167.99	51.3975
2168.23	51.3718
2168.47	51.3483
2168.71	53.1988
2168.95	52.2672
2169.19	56.9181
2169.43	54.1355
2169.67	52.2858
2169.91	51.3695
2170.15	51.3865
2170.39	49.5437
2170.63	56.0727
2170.87	52.3517
2171.11	54.2099
2171.35	52.3364
2171.59	53.2619
2171.83	56.9622
2172.07	55.0616
2172.31	52.2518
2172.56	55.0294
2172.79	50.3729
2173.04	56.8692
2173.28	56.8669
2173.51	54.078
2173.76	55.9347
2174	59.6546
2174.24	50.369
2174.48	51.3023
2174.72	54.0922
2174.96	53.1628
2175.2	51.3028
2175.44	50.3718
2175.68	54.0852
2175.92	55.9395
2176.16	50.3614
2176.4	53.1457
2176.64	46.6367
2176.88	59.6343
2177.12	51.2696
2177.36	50.3401
2177.6	50.3408
2177.84	50.3409
2178.08	49.4102
2178.32	49.4114
2178.55	52.1927
2178.8	45.6774
2179.03	50.3098
2179.28	51.2362
2179.52	53.0948
2179.75	54.0234
2180	51.2378
2180.23	52.1654
2180.47	54.0213
2180.71	52.1621
2180.95	54.9433
2181.19	52.154
2181.43	49.3669
2181.67	53.0762
2181.91	52.141
2182.15	52.1344
2182.39	50.2749
2182.63	55.8351
2182.87	49.3343
2183.11	52.1122
2183.35	51.1738
2183.59	49.3069
2183.83	53.0001
2184.07	53.9151
2184.31	46.4921
2184.55	52.9707
2184.79	52.041
2185.03	50.1889
2185.27	48.3398
2185.51	46.4893
2185.75	53.9067
2185.99	49.278
2186.23	54.8482
2186.47	53.003
2186.7	52.0842
2186.95	48.3875
2187.18	52.1134
2187.42	46.5585
2187.66	56.7853
2187.9	56.797
2188.14	54.0131
2188.38	54.0067
2188.62	50.2825
2188.86	48.4153
2189.1	53.9732
2189.34	55.8155
2189.58	51.161
2189.82	52.9983
2190.06	52.983
2190.3	45.5593
2190.54	52.0455
2190.78	48.338
2191.01	57.6123
2191.25	53.9078
2191.49	53.9071
2191.73	56.6913
2191.97	52.0589
2192.21	53.9177
2192.45	50.212
2192.69	52.9981
2192.93	51.147
2193.17	53.9383
2193.41	57.6589
2193.65	52.099
2193.89	48.3967
2194.13	53.9893
2194.36	53.0855
2194.6	54.0317
2194.84	47.5329
2195.08	45.6704
2195.32	56.8187
2195.56	48.4474
2195.8	54.9442
2196.04	51.2154
2196.28	53.0579
2196.52	55.8243
2196.76	51.1647
2197	50.2234
2197.23	51.141
2197.47	53.9147
2197.71	47.4135
2197.95	50.1957
2198.19	53.9067
2198.43	48.3459
2198.67	47.429
2198.91	51.1528
2199.15	52.0958
2199.38	52.1132
2199.62	49.3408
2199.86	48.4272
2200.1	53.0907
2200.34	59.6263
2200.58	49.4211
2200.82	53.1677
2201.06	54.1202
2201.3	54.1356
2201.54	51.3526
2201.77	53.1938
2202.01	49.4164
2202.25	56.7401
2202.49	51.0946
2202.73	55.7659
2202.97	55.862
2203.21	51.254
2203.45	51.2389
2203.68	49.368
2203.92	51.2716
2204.16	53.3032
2204.4	49.5072
2204.64	55.0972
2204.88	51.3757
2205.12	50.408
2205.36	52.2247
2205.59	53.1132
2205.83	51.2233
2206.07	53.0743
2206.31	49.356
2206.55	54.9464
2206.79	51.2277
2207.03	53.0674
2207.26	51.2107
2207.5	50.2878
2207.74	47.5065
2207.98	50.3064
2208.22	53.1079
2208.46	50.3268
2208.7	54.0598
2208.93	43.828
2209.17	55.9385
2209.41	52.2188
2209.65	49.4276
2209.89	50.3586
2210.13	51.2879
2210.36	51.2891
2210.6	55.021
2210.84	46.6439
2211.08	57.8319
2211.32	51.3174
2211.56	54.1208
2211.8	48.536
2212.03	51.3432
2212.27	48.5558
2212.51	51.3609
2212.75	49.4985
2212.99	49.4945
2213.23	45.7581
2213.46	48.551
2213.7	48.5427
2213.94	47.6012
2214.18	51.3328
2214.42	54.1401
2214.66	51.363
2214.89	49.5157
2215.13	46.7201
2215.37	52.3247
2215.61	49.5268
2215.85	52.3294
2216.08	49.5292
2216.32	48.5952
2216.56	47.6604
2216.8	48.5921
2217.04	52.3237
2217.28	46.7197
2217.51	50.4533
2217.75	50.4547
2217.99	48.5891
2218.23	50.4557
2218.47	50.4546
2218.7	49.5225
2218.94	51.3945
2219.18	45.7975
2219.42	49.5415
2219.66	49.5502
2219.9	43.9488
2220.13	49.5608
2220.37	48.6306
2220.61	47.6943
2220.85	52.3645
2221.09	50.493
2221.32	45.8151
2221.56	51.409
2221.8	52.3287
2222.04	51.3828
2222.27	46.7045
2222.51	45.7645
2222.75	48.563
2222.99	49.4995
2223.23	48.5725
2223.46	47.6453
2223.7	50.4548
2223.94	47.6636
2224.18	48.6115
2224.42	53.2999
2224.65	47.7043
2224.89	46.7802
2225.13	45.8544
2225.37	49.6067
2225.6	50.5544
2225.84	50.5684
2226.08	46.8333
2226.32	44.9692
2226.56	50.5997
2226.79	48.733
2227.03	49.6801
2227.27	44.0646
2227.51	46.8839
2227.74	48.7644
2227.98	50.6427
2228.22	54.392
2228.46	47.8235
2228.69	45.0066
2228.93	49.6908
2229.17	47.8126
2229.41	49.6844
2229.64	46.8714
2229.88	46.8787
2230.12	46.8904
2230.36	53.4682
2230.6	46.9092
2230.83	43.1636
2231.07	50.6814
2231.31	50.6917
2231.55	42.2509
2231.78	49.7755
2232.02	45.0869
2232.26	49.7941
2232.5	42.2839
2232.73	43.2318
2232.97	50.7616
2233.21	49.8303
2233.45	45.1354
2233.68	48.9065
2233.92	47.9742
2234.16	48.9216
2234.39	50.8092
2234.63	52.6884
2234.87	44.2131
2235.11	49.8536
2235.34	45.1397
2235.58	47.9449
2235.82	47.9321
2236.06	43.2308
2236.29	51.6958
2236.53	47.9363
2236.77	48.879
2237	48.8804
2237.24	51.7044
2237.48	48.8936
2237.72	50.7856
2237.95	44.2145
2238.19	46.1161
2238.43	45.191
2238.67	50.8578
2238.9	48.9852
2239.14	47.1135
2239.38	44.3
2239.61	51.8501
2239.85	49.9583
2240.09	50.8943
2240.33	39.5638
2240.56	48.9813
2240.8	48.975
2241.04	49.9384
2241.27	43.3529
2241.51	52.7901
2241.75	45.2446
2241.99	51.8531
2242.22	50.9122
2242.46	49.0286
2242.7	54.6969
2242.93	51.8712
2243.17	50.9277
2243.41	50.9253
2243.64	46.1985
2243.88	50.9099
2244.12	47.1306
2244.36	45.2414
2244.59	47.1298
2244.83	48.0803
2245.07	52.8148
2245.3	49.0576
2245.54	49.075
2245.78	47.1958
2246.01	44.3685
2246.25	48.1596
2246.49	48.1689
2246.72	48.1766
2246.96	53.8569
2247.2	46.2954
2247.43	49.1408
2247.67	49.1454
2247.91	44.4148
2248.14	52.9318
2248.38	46.3036
2248.62	45.3539
2248.85	51.0284
2249.09	45.3476
2249.33	42.5059
2249.56	49.1269
2249.8	48.1886
2250.04	46.301
2250.27	47.2465
2250.51	49.1328
2250.75	51.9613
2250.98	44.3822
2251.22	48.1542
2251.46	44.3624
2251.69	50.0284
2251.93	50.0251
2252.17	48.1356
2252.4	48.1404
2252.64	44.3644
2252.88	49.1025
2253.11	51.0102
2253.35	45.3567
2253.59	50.1092
2253.82	47.2814
2254.06	51.0827
2254.3	51.0917
2254.53	46.361
2254.77	47.3149
2255.01	47.3153
2255.24	43.5178
2255.48	46.3639
2255.72	43.5191
2255.95	49.2095
2256.19	50.1594
2256.42	49.2191
2256.66	49.2279
2256.9	44.492
2257.13	49.2435
2257.37	49.2513
2257.61	51.1574
2257.84	47.3672
2258.08	46.4223
2258.32	51.1725
2258.55	48.3253
2258.79	49.2778
2259.02	48.3322
2259.26	51.1885
2259.5	49.2955
2259.73	46.4492
2259.97	45.5023
2260.2	49.3087
2260.44	48.3629
2260.68	46.466
2260.91	47.4206
2261.15	48.3783
2261.39	49.3444
2261.62	41.7433
2261.86	44.599
2262.1	43.6497
2262.33	49.3625
2262.57	49.3663
2262.8	39.8544
2263.04	46.5266
2263.28	50.3456
2263.51	42.7383
2263.75	49.4207
2263.98	47.5312
2264.22	47.5496
2264.46	45.6593
2264.69	45.6746
2264.93	40.9147
2265.16	55.2459
2265.4	45.7069
2265.64	46.6698
2265.87	41.8948
2266.11	48.5828
2266.34	44.7578
2266.58	48.5674
2266.81	47.6007
2267.05	44.7248
2267.29	44.7144
2267.52	51.3858
2267.76	48.5155
2267.99	49.4613
2268.23	48.4961
2268.47	45.6268
2268.7	50.3909
2268.94	44.671
2269.17	42.7693
2269.41	48.5012
2269.65	53.2842
2269.88	49.4814
2270.12	47.5863
2270.35	50.4675
2270.59	46.6616
2270.82	43.8035
2271.06	48.5869
2271.3	51.4648
2271.53	40.9567
2271.77	43.83
2272	46.7048
2272.24	54.3655
2272.47	44.8042
2272.71	48.6314
2272.95	47.6765
2273.18	48.6354
2273.42	48.6377
2273.65	49.5968
2273.89	45.7712
2274.12	46.7302
2274.36	42.9038
2274.6	45.7767
2274.83	45.7786
2275.07	50.5669
2275.3	45.7835
2275.54	45.7855
2275.77	50.5753
2276.01	48.6584
2276.24	46.75
2276.48	48.6763
2276.72	49.6461
2276.95	45.8234
2277.18	47.7492
2277.42	53.5118
2277.66	47.7748
2277.89	44.9141
2278.13	46.8508
2278.36	46.8704
2278.6	47.8374
2278.83	43.0383
2279.07	46.8801
2279.3	43.9966
2279.54	49.7555
2279.78	47.8256
2280.01	46.8438
2280.24	50.6676
2280.48	47.7757
2280.72	48.7231
2280.95	45.8365
2281.19	46.7881
2281.42	43.9071
2281.66	44.8595
2281.89	46.7715
2282.13	46.7762
2282.36	46.7791
2282.6	41.9916
2282.83	49.6711
2283.07	47.7639
2283.3	52.5716
2283.54	53.5459
2283.77	44.9259
2284.01	49.7492
2284.24	44.004
2284.48	42.1014
2284.71	44.9973
2284.95	48.8494
2285.19	45.9741
2285.42	45.0217
2285.65	44.0623
2285.89	45.0255
2286.12	46.9397
2286.36	44.9978
2286.59	44.9958
2286.83	47.8843
2287.06	44.0435
2287.3	50.8013
2287.54	46.0063
2287.77	47.9388
2288	46.9805
2288.24	48.9198
2288.47	39.282
2288.71	45.0549
2288.94	47.937
2289.18	44.0761
2289.41	45.0247
2289.65	46.9319
2289.88	51.725
2290.12	45.9336
2290.35	43.0423
2290.59	43.9988
2290.82	47.8438
2291.06	43.9988
2291.29	45.9279
2291.53	44.9778
2291.76	44.0302
2292	47.8891
2292.23	42.1219
2292.47	46.9422
2292.7	46.9508
2292.94	48.8877
2293.17	52.7515
2293.41	47.9428
2293.64	47.9495
2293.88	48.9182
2294.11	46.9929
2294.34	47.9527
2294.58	46.0191
2294.81	49.8656
2295.05	48.8922
2295.28	44.0687
2295.52	44.062
2295.75	43.0922
2295.99	46.937
2296.22	44.0427
2296.46	50.7694
2296.69	44.9753
2296.93	47.8585
2297.16	42.0891
2297.39	47.8683
2297.63	45.9518
2297.86	46.9244
2298.1	44.0483
2298.33	46.9528
2298.57	48.8898
2298.8	46.9689
2299.04	49.8695
2299.27	46.9895
2299.51	46.9992
2299.74	46.0426
2299.97	45.082
2300.21	45.0808
2300.44	44.1159
2300.68	45.0789
2300.91	47.9779
2301.15	46.0559
2301.38	47.0264
2301.61	52.8223
2301.85	41.2425
2302.08	47.0345
2302.32	46.0673
2302.55	46.0626
2302.79	46.0589
2303.02	47.9898
2303.25	47.0231
2303.49	43.1596
2303.72	50.8789
2303.96	45.0889
2304.19	46.058
2304.43	47.9962
2304.66	44.1412
2304.89	46.077
2305.13	50.9121
2305.36	45.1255
2305.6	42.2318
2305.83	46.098
2306.07	43.2026
2306.3	45.1404
2306.53	49.0114
2306.77	46.1135
2307	46.1139
2307.24	44.1796
2307.47	46.1108
2307.7	51.9047
2307.94	43.2006
2308.17	46.0956
2308.41	40.2937
2308.64	40.2897
2308.87	45.1197
2309.11	41.2566
2309.34	47.0602
2309.58	48.0342
2309.81	45.1456
2310.04	44.1923
2310.28	46.1359
2310.51	46.1399
2310.75	47.1081
2310.98	42.2693
2311.21	48.068
2311.45	45.155
2311.68	43.1955
2311.92	47.0306
2312.15	48.9445
2312.38	48.9315
2312.62	41.2023
2312.85	47.9495
2313.08	46.0129
2313.32	43.1171
2313.55	42.1566
2313.79	48.926
2314.02	48.9447
2314.25	47.9927
2314.49	40.2763
2314.72	51.887
2314.95	43.2036
2315.19	46.1196
2315.42	48.062
2315.66	42.2454
2315.89	47.0691
2316.12	47.059
2316.36	45.1127
2316.59	47.0193
2316.82	41.211
2317.06	43.1357
2317.29	44.0997
2317.52	46.9984
2317.76	45.0692
2317.99	40.251
2318.23	49.919
2318.46	44.1065
2318.69	43.1329
2318.93	46.9887
2319.16	46.0153
2319.39	45.0418
2319.63	40.2091
2319.86	46.9589
2320.09	48.8847
2320.33	54.6739
2320.56	45.9903
2320.79	45.0245
2321.03	42.1331
2321.26	46.9649
2321.5	46.9723
2321.73	48.9117
2321.96	46.0245
2322.2	45.0711
2322.43	44.1183
2322.66	41.2295
2322.9	48.967
2323.13	54.7643
2323.36	51.8661
2323.6	44.1349
2323.83	50.9052
2324.06	49.9412
2324.3	48.0083
2324.53	50.9065
2324.76	47.0359
2325	53.7905
2325.23	51.8405
2325.46	51.8212
2325.7	50.8427
2325.93	55.6602
2326.16	54.6831
2326.4	66.2542
2326.63	71.0646
2326.86	80.6969
2327.09	96.1129
2327.33	110.558
2327.56	118.246
2327.79	111.479
2328.03	100.857
2328.26	78.6779
2328.49	72.8982
2328.73	61.3319
2328.96	60.369
2329.19	63.2474
2329.43	61.3074
2329.66	57.4373
2329.89	66.0999
2330.13	63.207
2330.36	57.4352
2330.59	57.4306
2330.82	50.6834
2331.06	45.8629
2331.29	44.8976
2331.52	46.8262
2331.76	46.8326
2331.99	47.8032
2332.22	44.9234
2332.46	47.8005
2332.69	47.7903
2332.92	46.8197
2333.16	44.8867
2333.39	44.8801
2333.62	42.9484
2333.85	47.7558
2334.09	47.7507
2334.32	44.8564
2334.55	44.8481
2334.79	45.7977
2335.02	46.7519
2335.25	44.8231
2335.48	40.0125
2335.72	47.7025
2335.95	41.9338
2336.18	43.8596
2336.41	44.8193
2336.65	42.8907
2336.88	45.7719
2337.11	45.7693
2337.34	50.5743
2337.58	47.6868
2337.81	44.8
2338.04	48.6408
2338.28	45.753
2338.51	42.8667
2338.74	51.5145
2338.97	43.8232
2339.21	42.863
2339.44	41.9022
2339.67	41.9014
2339.91	44.7831
2340.14	43.8176
2340.37	47.6555
2340.6	43.8035
2340.84	38.9919
2341.07	44.7453
2341.3	49.533
2341.53	43.7571
2341.77	40.8611
2342	50.4411
2342.23	45.6358
2342.46	49.4632
2342.7	42.7436
2342.93	51.3661
2343.16	45.6107
2343.39	51.3608
2343.63	49.4435
2343.86	42.7306
2344.09	45.6038
2344.32	43.6867
2344.56	48.4822
2344.79	48.4833
2345.02	46.564
2345.25	42.7261
2345.49	43.6793
2345.72	45.5882
2345.95	51.3241
2346.18	44.6086
2346.41	48.4304
2346.65	44.5956
2346.88	44.5925
2347.11	42.6745
2347.34	41.7126
2347.58	44.5809
2347.81	47.4515
2348.04	42.6649
2348.27	43.6244
2348.5	46.5019
2348.74	44.5897
2348.97	41.7158
2349.2	46.4992
2349.43	44.5759
2349.67	51.2555
2349.9	45.493
2350.13	44.5132
2350.36	41.6191
2350.59	43.4976
2350.83	45.3473
2351.06	46.2015
2351.29	48.1809
2351.52	42.6082
2351.75	44.5668
2351.99	46.3853
2352.22	46.3325
2352.45	48.245
2352.68	41.5683
2352.91	47.2661
2353.15	45.3158
2353.38	48.1403
2353.61	47.1994
2353.84	43.3841
2354.07	45.28
2354.31	43.3751
2354.54	37.6582
2354.77	48.1464
2355	46.2515
2355.23	44.3437
2355.47	47.1986
2355.7	47.1938
2355.93	43.378
2356.16	49.0876
2356.39	45.2688
2356.63	38.589
2356.86	43.328
2357.09	46.1646
2357.32	48.0566
2357.55	46.1458
2357.79	46.1376
2358.02	40.4263
2358.25	44.2219
2358.48	44.2165
2358.71	41.3614
2358.94	47.0525
2359.18	45.147
2359.41	48.943
2359.64	41.3402
2359.87	45.1337
2360.1	41.3267
2360.33	47.0136
2360.57	38.4591
2360.8	44.1434
2361.03	43.1837
2361.26	42.2243
2361.49	43.1615
2361.72	42.202
2361.96	48.8255
2362.19	47.8645
2362.42	45.0083
2362.65	44.0485
2362.88	45.9315
2363.11	46.8682
2363.34	44.0195
2363.58	44.012
2363.81	44.9523
2364.04	44.0005
2364.27	49.6709
2364.5	43.9875
2364.73	37.3598
2364.97	46.8098
