#Acq. time (s)=	30
#Accumulations=	2
#Range (cm-¹)=	1200...2365
#Windows=	3
#Auto scanning=	Off
#Autofocus=	Off
#Macrospot=	Off
#AutoExposure=	Off
#Spike filter=	Multiple accum.
#Delay time (s)=	2
#Binning=	1
#Readout mode=	Signal
#DeNoise=	Off
#ICS correction=	On
#Dark correction=	Off
#Inst. Process=	Off
#Detector Gain=	Best Dynamic
#Detector ADC=	50 kHz HS
#Detector temperature (°C)=	-60.09
#Instrument=	LabRAM HR Evol
#Detector=	SIN-EM FIVIS
#Objective=	x100_VIS_LWD
#Grating=	1800 (450-850nm)
#ND Filter=	100%
#Laser=	532nm_Edge
#Hole=	49.98
#Temperature=	0
#Range=	Visible
#StageXY=	75x50mm Scan+
#StageZ=	Z motor
#X (µm)=	0
#Y (µm)=	0
#Z (µm)=	70.2
#Full time(mm:ss)=	3:18
#Project=	21_11_22
#Sample=	BU19w
#Site=	
#Title=	BU19w-D-FF2-FI09-V_1800 (450-850nm)_532nm_Edge_100%_x100_VIS_LWD_H50um_30sX2
#Remark=	
#Date=	22.11.2021 13:31
#Acquired=	22.11.2021 13:31:07
1202.84	47.7768
1203.12	49.8993
1203.4	53.0929
1203.67	42.3463
1203.95	49.827
1204.23	48.7351
1204.51	46.5793
1204.78	47.6382
1205.06	55.1221
1205.34	47.6193
1205.62	39.0457
1205.9	46.5214
1206.17	48.6474
1206.45	47.5705
1206.73	44.3602
1207.01	45.425
1207.29	43.2782
1207.56	48.6032
1207.84	47.5148
1208.12	44.2953
1208.39	48.5475
1208.67	44.264
1208.95	49.579
1209.23	46.3609
1209.51	49.5441
1209.78	45.2673
1210.06	46.3183
1210.34	42.0479
1210.62	49.4952
1210.89	46.2906
1211.17	44.1615
1211.45	45.2272
1211.72	40.9687
1212	45.2265
1212.28	38.8365
1212.56	46.286
1212.84	43.0891
1213.11	48.3993
1213.39	41.9989
1213.67	43.0434
1213.94	41.962
1214.22	43.011
1214.5	45.1229
1214.78	37.6745
1215.05	39.7886
1215.33	42.9637
1215.61	35.5242
1215.89	46.1308
1216.16	44.005
1216.44	46.1222
1216.72	41.873
1216.99	39.7426
1217.27	41.8615
1217.55	38.6795
1217.83	40.7979
1218.1	35.4914
1218.38	36.5445
1218.66	40.7784
1218.93	40.7666
1219.21	41.8099
1219.49	44.9674
1219.77	39.6521
1220.04	40.69
1220.32	40.6712
1220.6	41.7096
1220.88	40.6382
1221.15	43.7914
1221.43	42.7234
1221.71	42.7146
1221.98	40.5962
1222.26	39.5384
1222.54	43.7641
1222.81	39.5457
1223.09	41.6617
1223.37	45.8836
1223.64	42.7121
1223.92	42.7042
1224.2	43.7515
1224.48	45.8405
1224.75	45.7987
1225.03	43.6611
1225.31	44.688
1225.58	48.8543
1225.86	45.6622
1226.14	47.7551
1226.41	40.4851
1226.69	49.0175
1226.97	48.9884
1227.24	44.7255
1227.52	54.1846
1227.8	52.0827
1228.07	52.0603
1228.35	54.0542
1228.63	61.4135
1228.9	54.0565
1229.18	55.1055
1229.46	65.6042
1229.73	69.8047
1230.01	59.2948
1230.29	75.045
1230.56	80.2936
1230.84	81.3473
1231.12	72.9494
1231.39	84.5131
1231.67	76.1175
1231.95	77.1817
1232.22	83.4938
1232.5	90.8587
1232.78	90.8695
1233.05	87.7231
1233.33	94.0311
1233.61	97.1732
1233.88	89.7995
1234.16	106.596
1234.43	85.5482
1234.71	87.6173
1234.99	92.8347
1235.26	90.7019
1235.54	80.1773
1235.82	78.0552
1236.09	73.8462
1236.37	73.8352
1236.65	72.7781
1236.92	71.7241
1237.2	67.528
1237.47	68.5749
1237.75	60.1902
1238.03	60.1926
1238.3	66.4845
1238.58	64.3831
1238.85	55.9861
1239.13	57.0262
1239.41	54.9295
1239.68	59.1247
1239.96	51.794
1240.24	55.9947
1240.51	54.9458
1240.79	49.7034
1241.06	48.6577
1241.34	52.8507
1241.62	57.0396
1241.89	51.793
1242.17	57.022
1242.45	51.7682
1242.72	50.7033
1243	53.8261
1243.27	46.4884
1243.55	54.8581
1243.83	53.81
1244.1	49.6221
1244.38	52.7575
1244.65	54.8482
1244.93	59.0289
1245.2	56.9164
1245.48	58.9938
1245.76	60.0355
1246.03	62.1294
1246.31	67.3634
1246.59	65.2679
1246.86	65.2643
1247.14	65.2641
1247.41	65.2522
1247.69	75.689
1247.96	65.219
1248.24	71.4753
1248.51	77.7308
1248.79	78.7613
1249.07	67.2576
1249.34	72.4657
1249.62	78.7158
1249.89	73.4797
1250.17	74.5084
1250.45	81.8041
1250.72	76.5851
1251	75.5515
1251.27	70.3456
1251.55	77.6684
1251.82	80.8084
1252.1	75.5876
1252.38	78.7252
1252.65	76.6367
1252.93	77.6766
1253.2	71.4132
1253.48	80.8167
1253.75	79.7836
1254.03	72.4761
1254.3	71.4282
1254.58	67.2396
1254.86	67.2328
1255.13	58.8736
1255.41	69.309
1255.68	58.8621
1255.96	61.9772
1256.23	61.9735
1256.51	52.5865
1256.78	55.7214
1257.06	64.1056
1257.33	59.9112
1257.61	61.9854
1257.88	63.0049
1258.16	66.118
1258.44	65.0629
1258.71	58.805
1258.99	57.8104
1259.26	55.7901
1259.54	54.8044
1259.81	54.7091
1260.09	49.4261
1260.36	53.5583
1260.64	52.5684
1260.91	54.6976
1261.19	53.6989
1261.46	64.2016
1261.74	59.9754
1262.01	58.9122
1262.29	67.2718
1262.56	69.3584
1262.84	80.8367
1263.11	89.1936
1263.39	98.6029
1263.66	97.5697
1263.94	102.813
1264.21	94.4718
1264.49	81.9472
1264.76	73.6017
1265.04	67.3464
1265.31	62.1402
1265.59	55.8809
1265.86	50.6543
1266.14	56.9479
1266.41	51.7158
1266.69	46.4752
1266.96	44.3695
1267.24	52.7337
1267.51	45.3919
1267.79	47.4742
1268.06	45.3717
1268.34	44.3209
1268.61	49.5466
1268.89	45.3625
1269.16	45.3716
1269.44	46.4306
1269.71	51.6836
1269.99	45.4119
1270.26	43.3275
1270.54	43.3384
1270.81	49.6398
1271.09	47.555
1271.36	44.4162
1271.64	43.3694
1271.91	46.5142
1272.18	44.4156
1272.46	48.6154
1272.74	46.5241
1273.01	51.7784
1273.28	41.2938
1273.56	43.4007
1273.83	45.5084
1274.11	41.3137
1274.38	48.6757
1274.66	40.2817
1274.93	45.5455
1275.21	46.6053
1275.48	45.5617
1275.76	46.6261
1276.03	44.5296
1276.3	42.4334
1276.58	45.5866
1276.85	43.4788
1277.13	46.6279
1277.4	47.6764
1277.68	47.6796
1277.95	51.8899
1278.23	51.9017
1278.5	49.8135
1278.77	51.9264
1279.05	57.1868
1279.32	50.8748
1279.6	58.2517
1279.87	56.1376
1280.15	58.2184
1280.42	67.6251
1280.69	73.8992
1280.97	67.5961
1281.24	97.0327
1281.52	101.479
1281.79	128.893
1282.07	173.159
1282.34	215.205
1282.61	285.662
1282.89	390.938
1283.16	565.837
1283.44	776.487
1283.71	983.735
1283.99	1105.86
1284.26	949.985
1284.53	642.472
1284.81	381.337
1285.08	242.378
1285.36	172.918
1285.63	121.355
1285.9	99.2606
1286.18	81.3801
1286.45	72.9719
1286.73	60.3489
1287	62.4671
1287.28	56.1578
1287.55	58.2656
1287.82	58.2583
1288.1	51.9347
1288.37	44.5606
1288.64	42.4531
1288.92	49.8235
1289.19	44.5567
1289.47	43.5058
1289.74	45.6103
1290.01	44.5523
1290.29	47.7128
1290.56	45.6189
1290.84	44.5837
1291.11	43.5475
1291.38	39.3366
1291.66	40.3901
1291.93	41.442
1292.21	38.2828
1292.48	39.3528
1292.75	39.3733
1293.03	32.0056
1293.3	35.1909
1293.57	39.4229
1293.85	39.4235
1294.12	39.4195
1294.4	37.2987
1294.67	37.2907
1294.94	34.1128
1295.22	40.4395
1295.49	40.4413
1295.76	38.3273
1296.04	36.2086
1296.31	37.2587
1296.58	37.2523
1296.86	39.3616
1297.13	36.2
1297.4	34.092
1297.68	37.2603
1297.95	36.2024
1298.22	36.2004
1298.5	35.1454
1298.77	35.1503
1299.04	33.043
1299.32	36.2144
1299.59	36.2151
1299.87	31.989
1300.14	36.2116
1300.41	34.0949
1300.69	39.3683
1300.96	34.0861
1301.23	29.8623
1301.51	35.1416
1301.78	34.0847
1302.05	34.0804
1302.33	37.241
1302.6	34.0658
1302.87	36.168
1303.15	34.0487
1303.42	38.2599
1303.69	36.1463
1303.97	36.1451
1304.24	37.2026
1304.51	35.0939
1304.79	35.0929
1305.06	36.1464
1305.33	29.8197
1305.6	39.3093
1305.88	29.8175
1306.15	29.8217
1306.42	37.2109
1306.7	35.1054
1306.97	32.998
1307.24	32.9968
1307.52	34.0491
1307.79	30.8826
1308.06	37.2151
1308.34	35.1059
1308.61	35.1069
1308.88	29.8313
1309.15	36.1699
1309.43	34.0634
1309.7	31.9535
1309.97	35.1202
1310.25	33.0023
1310.52	33
1310.79	31.9412
1311.06	38.2713
1311.34	34.0483
1311.61	36.1607
1311.88	37.2193
1312.16	34.0559
1312.43	29.8356
1312.7	30.895
1312.98	27.7299
1313.25	33.0097
1313.52	31.9509
1313.79	37.2293
1314.07	33.0034
1314.34	39.3391
1314.61	31.9501
1314.89	33.0092
1315.16	27.7289
1315.43	37.2374
1315.7	34.0684
1315.98	36.181
1316.25	29.8409
1316.52	31.9519
1316.79	31.9501
1317.07	33.0078
1317.34	29.8385
1317.61	37.2314
1317.88	29.832
1318.16	34.0491
1318.43	31.9275
1318.7	34.0274
1318.97	34.0208
1319.25	35.0651
1319.52	34.0049
1319.79	28.7263
1320.06	36.1033
1320.34	40.3113
1320.61	27.6631
1320.88	36.0993
1321.16	28.7183
1321.43	31.8799
1321.7	29.7712
1321.97	31.878
1322.25	29.7716
1322.52	31.8726
1322.79	33.9655
1323.06	31.8399
1323.33	31.8149
1323.61	29.7001
1323.88	32.8521
1324.15	36.0174
1324.42	28.6711
1324.7	30.7875
1324.97	31.8514
1325.24	32.9173
1325.51	30.8207
1325.79	31.8852
1326.06	37.1649
1326.33	30.8284
1326.6	30.8318
1326.87	32.94
1327.15	33.9919
1327.42	36.0967
1327.69	31.8711
1327.96	25.5368
1328.23	30.799
1328.51	31.8406
1328.78	33.9323
1329.05	31.8138
1329.32	28.6466
1329.6	30.7418
1329.87	32.8345
1330.14	29.6675
1330.41	32.8107
1330.68	31.7491
1330.96	31.7393
1331.23	31.7298
1331.5	30.6708
1331.77	32.7621
1332.04	31.7049
1332.32	34.8461
1332.59	36.9371
1332.86	32.7342
1333.13	31.6793
1333.4	28.5281
1333.67	33.7659
1333.95	31.6646
1334.22	27.4679
1334.49	37.9466
1334.76	27.4614
1335.03	31.6459
1335.3	31.6374
1335.58	34.7742
1335.85	30.579
1336.12	29.5276
1336.39	33.7143
1336.66	30.5733
1336.94	30.5745
1337.21	26.3858
1337.48	27.4333
1337.75	30.5756
1338.02	31.6218
1338.29	28.4782
1338.57	24.287
1338.84	33.7072
1339.11	28.4669
1339.38	34.7403
1339.65	31.5914
1339.93	29.4901
1340.2	31.5769
1340.47	33.6655
1340.74	31.5719
1341.01	25.296
1341.28	31.5709
1341.55	30.5245
1341.82	26.3383
1342.1	32.6072
1342.37	31.554
1342.64	29.4536
1342.91	24.2212
1343.18	33.6128
1343.45	31.508
1343.73	29.4093
1344	28.3565
1344.27	31.476
1344.54	34.5945
1344.81	28.3322
1345.08	31.4549
1345.35	32.4936
1345.63	27.2797
1345.9	27.275
1346.17	32.4785
1346.44	30.3883
1346.71	30.382
1346.98	32.4584
1347.25	33.4931
1347.52	29.3228
1347.8	32.4371
1348.07	33.4686
1348.34	29.3014
1348.61	33.4532
1348.88	29.29
1349.15	29.2886
1349.42	34.4907
1349.69	26.176
1349.96	32.4265
1350.24	31.3891
1350.51	33.4968
1350.78	30.4051
1351.05	30.3785
1351.32	31.3712
1351.59	34.4512
1351.86	29.2592
1352.13	38.6148
1352.41	35.4848
1352.68	29.2441
1352.95	34.4468
1353.22	31.3346
1353.49	31.3266
1353.76	31.3228
1354.03	32.358
1354.3	31.3158
1354.57	33.3879
1354.84	34.4204
1355.11	31.2997
1355.39	32.3313
1355.66	37.5135
1355.93	28.1681
1356.2	32.311
1356.47	31.2684
1356.74	28.1528
1357.01	29.1822
1357.28	34.3549
1357.55	30.2
1357.82	35.373
1358.09	35.3693
1358.36	31.2246
1358.63	29.1513
1358.9	35.3635
1359.18	35.359
1359.45	32.2478
1359.72	35.3503
1359.99	31.2066
1360.26	30.1723
1360.53	36.3902
1360.8	31.2158
1361.07	34.3266
1361.34	35.3622
1361.61	34.3234
1361.88	33.2836
1362.15	35.3483
1362.42	36.3752
1362.69	38.4361
1362.97	38.4266
1363.24	35.3136
1363.51	38.4078
1363.78	36.3281
1364.05	41.4837
1364.32	37.3414
1364.59	38.3705
1364.86	39.4075
1365.13	38.3768
1365.4	41.4796
1365.67	35.279
1365.94	38.382
1366.21	39.4184
1366.48	35.2847
1366.75	40.4499
1367.02	38.377
1367.29	38.372
1367.56	43.529
1367.83	41.4556
1368.1	38.3484
1368.37	44.5342
1368.64	48.6487
1368.91	63.078
1369.18	76.4651
1369.45	70.2497
1369.72	51.6714
1369.99	46.5072
1370.26	43.4081
1370.54	41.3409
1370.81	44.4273
1371.08	37.2101
1371.34	34.1159
1371.62	37.2038
1371.89	40.2909
1372.16	40.285
1372.43	39.2555
1372.7	43.3807
1372.97	40.2886
1373.24	47.5029
1373.51	42.3404
1373.78	47.4785
1374.05	50.551
1374.32	43.3241
1374.59	44.3575
1374.86	38.1917
1375.13	42.3249
1375.4	51.6168
1375.67	47.5235
1375.94	45.4698
1376.21	51.654
1376.48	52.6775
1376.75	53.7004
1377.02	54.7198
1377.29	55.7285
1377.56	52.5929
1377.83	57.7124
1378.09	59.7428
1378.36	57.6976
1378.64	67.9666
1378.91	60.7397
1379.18	58.6538
1379.44	67.8704
1379.71	66.8189
1379.98	66.7918
1380.25	74.9798
1380.52	77.0073
1380.79	75.968
1381.06	74.9298
1381.33	69.8054
1381.6	81.0887
1381.87	85.2048
1382.14	90.3546
1382.41	89.3649
1382.68	85.282
1382.95	92.4888
1383.22	88.3919
1383.49	92.5186
1383.76	98.6904
1384.03	97.6627
1384.3	114.025
1384.57	118.925
1384.84	115.651
1385.11	141.109
1385.38	170.931
1385.65	219.364
1385.92	272.982
1386.19	417.949
1386.45	654.121
1386.72	1091.69
1386.99	1827.45
1387.26	2342.11
1387.53	1975.94
1387.8	1143.42
1388.07	586.354
1388.34	331.103
1388.61	209.128
1388.88	153.755
1389.15	125.034
1389.42	95.3073
1389.69	87.0993
1389.96	82.9916
1390.23	69.6741
1390.49	70.6901
1390.76	66.5892
1391.03	57.3729
1391.3	58.3916
1391.57	52.248
1391.84	51.222
1392.11	52.2493
1392.38	45.0935
1392.65	46.1221
1392.92	48.1715
1393.19	50.2169
1393.46	43.0475
1393.73	46.1122
1393.99	40.9893
1394.26	45.0737
1394.53	40.9729
1394.8	44.0366
1395.07	41.9897
1395.34	43.0146
1395.61	44.0419
1395.88	39.9525
1396.15	38.9309
1396.42	38.9366
1396.68	44.0577
1396.95	35.8733
1397.22	38.9433
1397.49	39.9714
1397.76	38.9567
1398.03	41.0093
1398.3	36.9117
1398.57	35.891
1398.84	36.9147
1399.11	36.9257
1399.38	37.9705
1399.64	37.9932
1399.91	41.0885
1400.18	38.0223
1400.45	38.0282
1400.72	39.0553
1400.99	36.9947
1401.26	36.9728
1401.53	34.925
1401.79	32.8698
1402.06	35.943
1402.33	32.8591
1402.6	36.9543
1402.87	42.0736
1403.14	35.9154
1403.41	36.936
1403.68	32.8324
1403.94	34.8833
1404.21	35.9103
1404.48	37.9632
1404.75	38.9902
1405.02	34.8909
1405.29	43.0951
1405.56	37.9701
1405.82	41.0488
1406.09	44.1288
1406.36	40.0294
1406.63	52.3411
1406.9	55.4211
1407.17	56.4476
1407.44	64.6415
1407.7	81.0297
1407.97	88.1791
1408.24	111.729
1408.51	127.079
1408.78	129.11
1409.05	129.103
1409.31	101.456
1409.58	80.9857
1409.85	67.7002
1410.12	54.435
1410.39	45.2271
1410.66	44.1697
1410.92	36.9274
1411.19	35.9081
1411.46	37.9839
1411.73	34.9236
1412	30.8139
1412.27	31.8413
1412.53	30.8143
1412.8	31.8413
1413.07	33.897
1413.34	34.9265
1413.61	33.9025
1413.88	30.8242
1414.14	29.8002
1414.41	29.8033
1414.68	26.7237
1414.95	33.9176
1415.22	26.7249
1415.48	30.8358
1415.75	28.7817
1416.02	28.7814
1416.29	23.6432
1416.56	28.7784
1416.82	30.8275
1417.09	30.8207
1417.36	29.7874
1417.63	25.6734
1417.9	31.8271
1418.17	26.6882
1418.43	29.7641
1418.7	28.7386
1418.97	28.7452
1419.24	27.7279
1419.5	24.6543
1419.77	26.7228
1420.04	31.8881
1420.31	28.8283
1420.58	24.6614
1420.84	29.7209
1421.11	28.7084
1421.38	29.7047
1421.65	28.6755
1421.92	25.6116
1422.18	24.5998
1422.45	25.6338
1422.72	26.651
1422.99	26.6617
1423.26	25.6334
1423.52	24.603
1423.79	24.596
1424.06	27.6641
1424.33	30.7299
1424.59	27.644
1424.86	26.6096
1425.13	26.6046
1425.4	26.6021
1425.66	29.6736
1425.93	24.555
1426.2	26.6046
1426.47	26.6072
1426.73	21.4892
1427	24.5669
1427.27	23.5481
1427.54	26.6281
1427.81	27.6607
1428.07	25.6207
1428.34	25.6296
1428.61	23.5811
1428.88	21.5282
1429.14	24.6027
1429.41	22.5443
1429.68	25.6176
1429.94	23.5586
1430.21	23.5491
1430.48	26.6128
1430.75	23.5286
1431.02	24.5459
1431.28	24.5427
1431.55	25.5768
1431.82	21.4843
1432.08	23.5341
1432.35	24.5586
1432.62	25.5823
1432.89	28.6546
1433.15	22.5046
1433.42	26.6008
1433.69	23.5245
1433.96	22.4972
1434.22	25.5676
1434.49	24.542
1434.76	25.5631
1435.02	23.5129
1435.29	19.4167
1435.56	19.4191
1435.83	20.4449
1436.09	23.5186
1436.36	20.4457
1436.63	22.4977
1436.89	23.5271
1437.16	25.5837
1437.43	22.5107
1437.7	23.5371
1437.96	23.537
1438.23	19.4358
1438.5	21.4848
1438.77	23.5313
1439.03	22.5033
1439.3	27.6342
1439.57	25.5837
1439.83	22.5116
1440.1	24.5595
1440.37	22.504
1440.63	22.5002
1440.9	21.4721
1441.17	23.5209
1441.43	22.4963
1441.7	25.5787
1441.97	17.3788
1442.24	22.5148
1442.5	21.4864
1442.77	19.432
1443.03	22.5072
1443.3	19.4276
1443.57	18.3999
1443.84	19.4235
1444.1	22.4979
1444.37	20.4443
1444.64	18.3905
1444.9	22.4887
1445.17	25.5633
1445.44	21.4657
1445.7	25.5728
1445.97	22.497
1446.24	23.5219
1446.5	20.4427
1446.77	21.465
1447.04	21.4609
1447.3	22.4818
1447.57	21.4542
1447.84	19.402
1448.1	21.4497
1448.37	20.4225
1448.64	17.3457
1448.9	21.4419
1449.17	22.4642
1449.44	20.4136
1449.7	21.4378
1449.97	20.4136
1450.24	19.3908
1450.5	21.4418
1450.77	21.4416
1451.04	19.39
1451.3	21.4377
1451.57	19.3877
1451.83	23.4862
1452.1	24.5097
1452.37	20.4089
1452.63	23.4825
1452.9	20.4117
1453.17	21.4382
1453.43	20.4128
1453.7	17.336
1453.97	19.3818
1454.23	21.4271
1454.5	21.4249
1454.77	19.3741
1455.03	19.3726
1455.3	21.4209
1455.56	20.3965
1455.83	17.3237
1456.1	18.3485
1456.36	20.3977
1456.63	18.3485
1456.9	19.3718
1457.16	19.37
1457.43	21.4169
1457.69	23.4633
1457.96	19.3632
1458.23	24.4807
1458.49	20.3809
1458.76	19.3536
1459.02	21.3971
1459.29	18.322
1459.56	20.3643
1459.82	19.3361
1460.09	18.3082
1460.36	21.371
1460.62	20.3433
1460.89	19.3193
1461.15	20.3471
1461.42	21.3795
1461.69	18.3162
1461.95	22.42
1462.22	21.3829
1462.48	21.3408
1462.75	19.2805
1463.02	21.3178
1463.28	19.2826
1463.55	20.3017
1463.81	18.2514
1464.08	17.2275
1464.35	18.2491
1464.61	20.2877
1464.88	23.346
1465.14	19.264
1465.41	21.3032
1465.67	18.242
1465.94	21.3004
1466.21	17.2181
1466.47	20.2747
1466.74	20.2703
1467	20.2648
1467.27	21.2794
1467.54	21.2758
1467.8	20.2537
1468.07	22.2892
1468.33	17.1922
1468.6	19.2251
1468.86	21.2585
1469.13	15.1465
1469.39	19.2183
1469.66	19.2172
1469.93	21.2524
1470.19	24.3047
1470.46	19.2106
1470.72	21.2427
1470.99	18.1863
1471.25	21.2373
1471.52	23.2718
1471.79	19.2023
1472.05	18.1853
1472.32	19.2028
1472.58	19.2016
1472.85	18.1816
1473.11	18.1785
1473.38	19.1935
1473.64	20.2086
1473.91	18.1704
1474.17	17.1496
1474.44	22.2324
1474.71	20.197
1474.97	17.1451
1475.24	20.1931
1475.5	20.1885
1475.77	22.2178
1476.03	21.1975
1476.3	16.1124
1476.56	17.1246
1476.83	23.2149
1477.09	20.1626
1477.36	17.1092
1477.62	17.1034
1477.89	19.1287
1478.15	16.0823
1478.42	19.1223
1478.68	21.1523
1478.95	17.0963
1479.22	19.1286
1479.48	17.1018
1479.75	18.1193
1480.01	20.1493
1480.28	23.1973
1480.54	20.152
1480.81	19.136
1481.07	18.1194
1481.34	20.1417
1481.6	20.1299
1481.87	21.1212
1482.13	18.0548
1482.4	19.0568
1482.66	20.0498
1482.93	18.071
1483.19	18.076
1483.46	21.1254
1483.72	17.0496
1483.99	20.0978
1484.25	23.1411
1484.52	21.1072
1484.78	22.1144
1485.05	21.0979
1485.31	20.0813
1485.58	19.0638
1485.84	17.0341
1486.11	21.0779
1486.37	15.004
1486.64	20.0607
1486.9	18.0353
1487.17	25.1162
1487.43	14.9988
1487.7	21.0656
1487.96	21.0607
1488.22	18.0223
1488.49	20.0419
1488.75	17.0074
1489.02	17.0066
1489.28	18.0179
1489.55	20.0387
1489.81	20.037
1490.08	20.0356
1490.34	23.0679
1490.61	18.0113
1490.87	22.0532
1491.14	16.9986
1491.4	16.9991
1491.67	15.9891
1491.93	15.9879
1492.19	19.0172
1492.46	22.0425
1492.72	15.9727
1492.99	17.987
1493.25	17.983
1493.52	16.9702
1493.78	18.9863
1494.05	17.9736
1494.31	16.9635
1494.58	17.9721
1494.84	13.9335
1495.1	22.0061
1495.37	15.9504
1495.63	16.9594
1495.9	19.9871
1496.16	17.9688
1496.43	17.9693
1496.69	15.9514
1496.96	18.9809
1497.22	18.981
1497.48	18.9803
1497.75	20.9981
1498.01	18.9778
1498.28	22.0035
1498.54	17.9615
1498.81	14.9322
1499.07	19.9767
1499.34	17.9571
1499.6	21.9909
1499.86	15.9328
1500.13	18.9545
1500.39	17.9433
1500.66	19.9558
1500.92	18.9466
1501.18	19.9563
1501.45	17.9398
1501.71	18.9478
1501.98	16.9295
1502.24	17.9354
1502.5	18.9402
1502.77	18.9343
1503.03	14.8964
1503.3	19.9319
1503.56	21.9455
1503.83	19.9307
1504.09	15.9028
1504.35	17.9181
1504.62	18.926
1504.88	20.9407
1505.15	18.9233
1505.41	18.9216
1505.67	17.9137
1505.94	17.9138
1506.2	19.9288
1506.47	16.9049
1506.73	18.9195
1506.99	18.9208
1507.26	16.9062
1507.52	17.9098
1507.78	18.9131
1508.05	20.9224
1508.31	18.902
1508.58	16.8807
1508.84	19.889
1509.1	17.8666
1509.37	16.8519
1509.63	19.8576
1509.9	16.8386
1510.16	17.8381
1510.42	18.8378
1510.69	20.843
1510.95	18.8389
1511.21	20.8549
1511.48	18.8476
1511.74	17.8403
1512.01	19.8441
1512.27	18.834
1512.53	17.8248
1512.8	20.8288
1513.06	16.8094
1513.32	19.8136
1513.59	22.8193
1513.85	15.7978
1514.11	18.8041
1514.38	17.8003
1514.64	16.7973
1514.9	20.8087
1515.17	19.809
1515.43	18.8067
1515.7	17.8044
1515.96	16.8018
1516.22	19.8122
1516.49	15.8002
1516.75	21.8202
1517.01	17.806
1517.28	20.8134
1517.54	19.8081
1517.8	18.8054
1518.07	19.8099
1518.33	20.8145
1518.59	16.801
1518.86	20.8133
1519.12	19.8075
1519.38	18.8015
1519.65	17.7954
1519.91	21.8047
1520.17	21.8005
1520.44	17.7832
1520.7	17.7754
1520.96	16.768
1521.23	19.7685
1521.49	19.7644
1521.75	19.7605
1522.02	18.7606
1522.28	20.7639
1522.54	17.7595
1522.81	19.7648
1523.07	19.768
1523.33	21.7769
1523.59	17.7717
1523.86	17.7727
1524.12	19.7765
1524.38	17.7685
1524.65	16.7645
1524.91	19.7687
1525.17	16.7604
1525.44	20.7653
1525.7	21.7641
1525.96	19.7581
1526.23	16.7514
1526.49	20.7571
1526.75	20.7551
1527.02	17.7467
1527.28	18.7466
1527.54	17.7462
1527.8	18.751
1528.07	17.7525
1528.33	17.7548
1528.59	19.7587
1528.86	14.7468
1529.12	18.7547
1529.38	17.7495
1529.64	19.7549
1529.91	20.7619
1530.17	19.7664
1530.43	19.7722
1530.69	20.7776
1530.96	19.7756
1531.22	17.7685
1531.48	18.77
1531.75	19.7709
1532.01	18.7652
1532.27	19.7657
1532.53	20.7642
1532.8	19.7506
1533.06	18.7419
1533.32	17.7353
1533.59	17.7284
1533.85	19.7228
1534.11	19.7153
1534.37	18.7115
1534.64	18.7062
1534.9	21.7067
1535.16	16.7014
1535.42	20.6941
1535.69	18.6921
1535.95	20.6885
1536.21	20.6934
1536.48	20.7049
1536.74	19.7188
1537	16.7238
1537.26	19.7365
1537.53	19.7449
1537.79	16.7417
1538.05	20.7548
1538.31	19.7426
1538.58	16.734
1538.84	19.735
1539.1	14.7199
1539.36	18.7219
1539.62	19.7179
1539.89	21.7148
1540.15	20.7083
1540.41	17.7003
1540.67	19.6946
1540.94	17.6867
1541.2	18.687
1541.46	19.6876
1541.72	17.6905
1541.98	18.6961
1542.25	18.6996
1542.51	19.708
1542.77	19.7119
1543.03	27.7268
1543.3	17.7122
1543.56	20.7155
1543.82	19.7141
1544.08	19.7158
1544.35	21.7215
1544.61	18.7172
1544.87	19.7145
1545.13	18.7016
1545.39	20.7037
1545.66	21.705
1545.92	16.7035
1546.18	18.6886
1546.44	22.6666
1546.71	16.6632
1546.97	20.6723
1547.23	19.6923
1547.49	20.7254
1547.75	17.7369
1548.02	23.7837
1548.28	16.7379
1548.54	18.7473
1548.8	20.7509
1549.06	16.7287
1549.33	17.7398
1549.59	19.756
1549.85	18.7483
1550.11	18.7426
1550.37	18.7274
1550.64	19.7268
1550.9	20.7276
1551.16	20.7227
1551.42	18.7108
1551.68	17.7015
1551.94	20.6999
1552.21	18.693
1552.47	19.6928
1552.73	16.6868
1552.99	21.6961
1553.25	17.6888
1553.52	21.6918
1553.78	22.693
1554.04	18.6871
1554.3	19.6894
1554.56	20.6909
1554.82	18.6857
1555.09	21.6863
1555.35	22.6798
1555.61	23.6745
1555.87	22.6649
1556.13	18.6556
1556.39	18.6498
1556.65	16.6452
1556.92	18.6409
1557.18	17.6379
1557.44	16.6359
1557.7	22.6302
1557.96	14.6335
1558.22	23.6265
1558.49	18.6306
1558.75	18.6335
1559.01	22.6374
1559.27	19.6435
1559.53	19.6431
1559.79	18.6414
1560.05	20.6391
1560.32	17.6394
1560.58	18.6369
1560.84	17.6351
1561.1	21.6418
1561.36	22.6507
1561.62	20.6515
1561.88	18.6481
1562.15	19.6375
1562.41	17.6044
1562.67	21.5434
1562.93	18.5278
1563.19	18.6074
1563.45	19.6309
1563.71	19.6201
1563.98	21.603
1564.24	22.6199
1564.5	22.6407
1564.76	19.634
1565.02	21.618
1565.28	22.6197
1565.54	20.6226
1565.8	20.6236
1566.07	20.621
1566.33	19.613
1566.59	20.6072
1566.85	20.6066
1567.11	17.6096
1567.37	21.607
1567.63	19.6078
1567.89	20.6062
1568.15	20.6046
1568.42	21.6014
1568.68	17.6008
1568.94	16.5979
1569.2	18.5945
1569.46	22.5866
1569.72	19.5857
1569.98	17.5851
1570.24	24.57
1570.5	19.5745
1570.77	20.569
1571.03	20.5687
1571.29	15.5809
1571.55	20.5761
1571.81	23.5766
1572.07	14.5919
1572.33	19.5907
1572.59	22.5918
1572.85	23.5917
1573.11	20.5913
1573.37	24.5875
1573.64	23.5849
1573.9	18.5823
1574.16	22.5682
1574.42	16.5703
1574.68	23.5482
1574.94	20.5474
1575.2	23.5319
1575.46	22.5297
1575.72	22.5277
1575.98	25.5176
1576.24	23.5229
1576.5	21.5286
1576.76	20.5322
1577.03	20.5347
1577.29	22.53
1577.55	21.5326
1577.81	20.5338
1578.07	21.5278
1578.33	22.5206
1578.59	18.5298
1578.85	20.5184
1579.11	23.5022
1579.37	20.5109
1579.63	23.4974
1579.89	16.5218
1580.15	21.5007
1580.41	18.5111
1580.67	15.5219
1580.93	21.4952
1581.19	22.4904
1581.46	25.4798
1581.72	22.4927
1581.98	23.4891
1582.24	21.496
1582.5	22.4902
1582.76	18.5048
1583.02	25.4739
1583.28	19.4929
1583.54	23.4691
1583.8	20.4782
1584.06	22.4651
1584.32	20.4718
1584.58	16.4895
1584.84	16.4879
1585.1	19.4722
1585.36	21.4631
1585.62	18.4797
1585.88	20.4723
1586.14	17.4882
1586.4	20.4764
1586.66	20.4777
1586.92	20.4778
1587.18	22.4683
1587.44	20.4781
1587.7	22.4716
1587.96	24.4649
1588.22	22.4718
1588.48	24.4627
1588.74	21.4729
1589	22.4657
1589.26	21.4644
1589.52	19.4664
1589.78	18.466
1590.04	23.4364
1590.3	20.4436
1590.56	24.4108
1590.82	17.4442
1591.08	18.4322
1591.34	21.4086
1591.6	25.3809
1591.86	21.4099
1592.12	19.4266
1592.38	26.3845
1592.64	21.4156
1592.9	20.4114
1593.16	19.4171
1593.42	21.4028
1593.68	20.4091
1593.94	18.4227
1594.2	19.4167
1594.46	22.3981
1594.72	21.406
1594.98	19.4178
1595.24	21.402
1595.5	20.4042
1595.76	24.3695
1596.02	22.3774
1596.28	19.3948
1596.54	18.3984
1596.8	20.3788
1597.06	23.3506
1597.32	21.3623
1597.58	22.349
1597.84	17.3856
1598.1	20.3526
1598.36	23.3173
1598.62	19.347
1598.88	17.3605
1599.14	21.316
1599.4	23.2907
1599.66	19.3264
1599.92	23.2783
1600.18	21.294
1600.44	22.2782
1600.7	17.3305
1600.96	24.2495
1601.22	22.2708
1601.48	18.3156
1601.73	24.2481
1601.99	22.2701
1602.25	21.2812
1602.51	21.2813
1602.77	25.2381
1603.03	25.2404
1603.29	19.3083
1603.55	22.2781
1603.81	21.2904
1604.07	20.3022
1604.33	22.2811
1604.59	20.3012
1604.85	20.2998
1605.11	20.2988
1605.37	19.3084
1605.63	20.2968
1605.89	22.2731
1606.14	20.2885
1606.4	20.2813
1606.66	20.2754
1606.92	20.2686
1607.18	21.2484
1607.44	21.2105
1607.7	20.3192
1607.96	22.217
1608.22	22.2514
1608.48	23.0837
1608.74	21.2127
1609	21.1416
1609.26	18.4286
1609.51	21.3677
1609.77	24.8434
1610.03	22.1937
1610.29	22.6163
1610.55	22.1945
1610.81	22.4579
1611.07	20.4722
1611.33	22.5465
1611.59	22.5639
1611.85	20.1983
1612.11	26.6024
1612.36	20.0954
1612.62	24.5699
1612.88	20.9644
1613.14	23.1423
1613.4	21.1658
1613.66	22.8716
1613.92	23.4889
1614.18	23.076
1614.44	22.8056
1614.7	22.7566
1614.95	22.8746
1615.21	21.0369
1615.47	22.9464
1615.73	22.5894
1615.99	22.5528
1616.25	23.5817
1616.51	22.0762
1616.77	23.0975
1617.03	24.4585
1617.28	21.7515
1617.54	21.1639
1617.8	21.6006
1618.06	20.198
1618.32	23.0809
1618.58	23.1665
1618.84	24.4189
1619.1	22.8856
1619.35	24.972
1619.61	24.0647
1619.87	21.9253
1620.13	25.7749
1620.39	21.6565
1620.65	23.2703
1620.91	24.6155
1621.17	23.5336
1621.42	25.0525
1621.68	24.9246
1621.94	21.6336
1622.2	23.9367
1622.46	21.4344
1622.72	21.5688
1622.98	22.7798
1623.23	25.9088
1623.49	23.9427
1623.75	21.6835
1624.01	22.0747
1624.27	21.4672
1624.53	22.3841
1624.79	20.901
1625.04	22.857
1625.3	23.6806
1625.56	23.0992
1625.82	23.2055
1626.08	22.2087
1626.34	24.8778
1626.59	22.8926
1626.85	24.2764
1627.11	25.3734
1627.37	23.2138
1627.63	25.9527
1627.89	20.9098
1628.14	24.4465
1628.4	23.734
1628.66	24.8104
1628.92	23.3908
1629.18	23.9137
1629.44	22.9897
1629.69	21.396
1629.95	22.0332
1630.21	19.7126
1630.47	26.6887
1630.73	25.3407
1630.99	19.2011
1631.24	22.0949
1631.29	22.9811
1631.55	22.9815
1631.81	24.9527
1632.07	24.9517
1632.33	24.95
1632.59	24.9479
1632.86	24.9452
1633.12	21.9858
1633.38	24.9384
1633.64	24.9347
1633.9	24.9307
1634.16	21.9715
1634.42	22.9522
1634.68	20.9807
1634.95	19.9945
1635.21	23.93
1635.47	24.9115
1635.73	22.941
1635.99	22.9407
1636.25	20.9714
1636.51	26.8767
1636.77	23.9229
1637.03	23.9218
1637.3	21.9519
1637.56	19
1637.82	24.9102
1638.08	21.9584
1638.34	22.9427
1638.6	23.9248
1638.86	22.9374
1639.12	27.8577
1639.39	24.9026
1639.65	21.9478
1639.91	24.8993
1640.17	24.8979
1640.43	22.9284
1640.69	23.9111
1640.95	21.9401
1641.21	24.8893
1641.47	21.9327
1641.73	20.9464
1641.99	22.9127
1642.25	23.8991
1642.52	26.8528
1642.78	22.9182
1643.04	25.8692
1643.3	23.8979
1643.56	22.9107
1643.82	24.8753
1644.08	22.9061
1644.34	28.8041
1644.6	22.9
1644.86	24.864
1645.12	23.8804
1645.38	22.8972
1645.65	20.934
1645.91	25.8569
1646.17	22.9189
1646.43	24.8867
1646.69	23.8999
1646.95	21.9276
1647.21	20.9438
1647.47	21.9357
1647.73	23.9086
1647.99	22.9278
1648.25	25.8872
1648.51	23.9187
1648.77	22.9336
1649.03	21.9475
1649.29	26.8743
1649.55	23.9186
1649.82	22.9291
1650.08	24.8966
1650.34	25.8804
1650.6	26.8655
1650.86	26.8665
1651.12	24.898
1651.38	19.9713
1651.64	28.8412
1651.9	22.9293
1652.16	21.9463
1652.42	21.9505
1652.68	23.9292
1652.94	21.9637
1653.2	20.9808
1653.46	22.9571
1653.72	25.9196
1653.98	19.0099
1654.24	27.8923
1654.5	22.9541
1654.76	24.925
1655.02	23.936
1655.28	22.9468
1655.54	23.9302
1655.81	24.9128
1656.07	20.9632
1656.33	28.8493
1656.58	25.8863
1656.84	18.9801
1657.11	23.9057
1657.37	22.9215
1657.63	23.91
1657.89	21.9409
1658.15	25.8897
1658.41	24.9075
1658.67	22.9377
1658.93	21.953
1659.19	21.9461
1659.45	25.8894
1659.71	23.9561
1659.97	21.0027
1660.23	26.923
1660.49	21.9804
1660.75	25.9073
1661.01	21.9349
1661.27	22.9391
1661.53	23.9295
1661.79	22.9467
1662.05	20.9813
1662.31	21.9666
1662.57	21.9339
1662.83	21.9437
1663.09	20.0056
1663.35	22.9716
1663.61	22.9741
1663.87	24.8742
1664.13	21.9075
1664.39	22.9326
1664.65	21.9401
1664.91	24.8973
1665.17	20.9466
1665.43	20.9431
1665.69	21.9315
1665.95	25.8927
1666.21	20.9642
1666.47	20.9651
1666.72	20.965
1666.99	24.9165
1667.25	20.9608
1667.51	22.9394
1667.76	23.9406
1668.02	25.9204
1668.28	20.9749
1668.54	22.9498
1668.8	21.9599
1669.06	26.9034
1669.32	19.9851
1669.58	22.9506
1669.84	22.9496
1670.1	20.9722
1670.36	22.9494
1670.62	22.9499
1670.88	22.951
1671.14	26.9083
1671.4	23.9447
1671.66	22.9577
1671.92	22.9603
1672.18	20.9856
1672.44	19.0085
1672.7	18.0197
1672.96	24.9464
1673.22	23.9558
1673.48	22.9668
1673.74	23.9571
1674	19.998
1674.25	20.9866
1674.51	19.0053
1674.77	24.9403
1675.03	20.9782
1675.29	22.9518
1675.55	21.9573
1675.81	20.9643
1676.07	21.9497
1676.33	20.958
1676.59	20.9558
1676.85	21.9414
1677.11	22.927
1677.37	21.9365
1677.63	19.9573
1677.89	23.907
1678.15	19.9526
1678.4	22.9151
1678.66	19.9504
1678.92	20.9376
1679.18	19.9491
1679.44	22.9125
1679.7	21.9242
1679.96	19.9469
1680.22	19.9458
1680.48	19.945
1680.74	21.92
1681	18.9551
1681.25	21.9162
1681.51	23.8879
1681.77	22.898
1682.03	24.8713
1682.29	19.9326
1682.55	21.9066
1682.81	18.9436
1683.07	19.9307
1683.33	23.8808
1683.59	18.9449
1683.84	19.9354
1684.1	17.9606
1684.36	18.9478
1684.62	19.9334
1684.88	20.9182
1685.14	22.8906
1685.4	22.8878
1685.66	19.9224
1685.92	20.9057
1686.18	19.914
1686.43	21.8838
1686.69	21.8793
1686.95	20.8878
1687.21	19.8965
1687.47	21.87
1687.73	21.8734
1687.99	18.9154
1688.25	19.903
1688.51	17.9297
1688.76	22.866
1689.02	18.9189
1689.28	22.8658
1689.54	15.9554
1689.8	18.9122
1690.06	18.9081
1690.32	19.8893
1690.58	19.8832
1690.84	20.8624
1691.09	20.8585
1691.35	20.8535
1691.61	18.8785
1691.87	19.8605
1692.13	19.8604
1692.39	20.8462
1692.64	16.906
1692.9	19.8621
1693.16	17.8923
1693.42	17.8945
1693.68	22.8227
1693.94	19.8648
1694.2	19.8619
1694.46	21.8276
1694.71	21.8212
1694.97	18.8611
1695.23	16.888
1695.49	21.8061
1695.75	20.8179
1696.01	18.8467
1696.26	20.813
1696.52	20.8122
1696.78	17.8607
1697.04	20.8122
1697.3	21.7952
1697.56	16.8717
1697.81	16.8706
1698.07	19.8204
1698.33	16.8675
1698.59	16.8651
1698.85	17.845
1699.11	20.7907
1699.37	22.7524
1699.62	17.8332
1699.88	18.8126
1700.14	18.8111
1700.4	15.862
1700.66	17.8253
1700.91	20.7705
1701.17	20.7695
1701.43	16.8409
1701.69	18.8073
1701.95	21.7548
1702.21	15.8574
1702.46	17.8212
1702.72	21.751
1702.98	18.8018
1703.24	19.7804
1703.5	15.8469
1703.75	19.7702
1704.01	19.7647
1704.27	18.7781
1704.53	21.7169
1704.79	18.7675
1705.04	18.7611
1705.3	18.7547
1705.56	19.7279
1705.82	17.7611
1706.08	15.7967
1706.33	17.7511
1706.59	18.7273
1706.85	18.7256
1707.11	14.8092
1707.37	20.6826
1707.62	14.8088
1707.88	19.7054
1708.14	17.7488
1708.4	17.7497
1708.66	16.7712
1708.91	20.6896
1709.17	17.7503
1709.43	14.809
1709.69	16.7616
1709.95	17.7329
1710.2	18.7028
1710.46	17.7178
1710.72	15.7553
1710.98	18.6813
1711.23	19.6546
1711.49	17.698
1711.75	18.6728
1712.01	18.6712
1712.27	14.7637
1712.52	18.6748
1712.78	14.7681
1713.04	15.7441
1713.3	17.6959
1713.55	19.6461
1713.81	17.6879
1714.07	19.6346
1714.33	19.6269
1714.58	13.7648
1714.84	17.6573
1715.1	18.6245
1715.36	15.694
1715.61	17.6368
1715.87	19.5802
1716.13	19.5777
1716.39	15.6826
1716.64	17.6288
1716.9	17.6271
1717.16	16.6551
1717.42	15.6806
1717.68	16.6516
1717.93	18.5944
1718.19	16.6422
1718.45	18.5846
1718.71	16.6347
1718.96	18.5752
1719.22	17.5977
1719.48	17.5926
1719.74	20.5028
1719.99	17.5831
1720.25	16.6076
1720.51	18.5467
1720.76	17.5732
1721.02	16.6018
1721.28	19.5121
1721.54	18.5398
1721.79	18.5355
1722.05	16.5888
1722.31	15.6114
1722.56	15.6056
1722.82	16.5686
1723.08	18.5029
1723.34	16.5628
1723.59	16.5635
1723.85	16.561
1724.11	18.495
1724.37	19.457
1724.62	19.4576
1724.88	17.5233
1725.14	18.4894
1725.39	18.4848
1725.65	19.4411
1725.91	17.4793
1726.17	15.526
1726.42	17.4514
1726.68	17.461
1726.94	16.5027
1727.19	16.5041
1727.45	17.4604
1727.71	16.4906
1727.96	14.5628
1728.22	17.4732
1728.48	20.3729
1728.74	16.5065
1728.99	14.5725
1729.25	19.4027
1729.51	16.5014
1729.76	18.4312
1730.02	16.4955
1730.28	15.5253
1730.53	17.4506
1730.79	16.4778
1731.05	17.4358
1731.3	15.5012
1731.56	16.4599
1731.82	17.4178
1732.08	16.4482
1732.33	14.5162
1732.59	18.3635
1732.85	16.434
1733.1	16.4313
1733.36	16.4292
1733.62	16.4267
1733.87	16.424
1734.13	17.3832
1734.39	17.3801
1734.64	16.4155
1734.9	16.4126
1735.16	16.409
1735.41	17.3662
1735.67	15.4398
1735.93	16.3969
1736.18	18.3136
1736.44	18.3075
1736.7	15.4196
1736.95	20.2099
1737.21	16.3645
1737.47	15.3992
1737.72	18.2698
1737.98	17.3067
1738.24	15.3861
1738.49	16.3401
1738.75	17.2939
1739.01	17.2908
1739.26	16.3312
1739.52	17.2873
1739.78	18.2422
1740.03	16.3254
1740.29	18.2384
1740.54	17.2802
1740.8	16.3202
1741.06	17.2728
1741.31	16.3131
1741.57	18.223
1741.83	18.2219
1742.08	15.3518
1742.34	15.3515
1742.6	17.2637
1742.85	15.3491
1743.11	20.1277
1743.36	14.3862
1743.62	18.2051
1743.88	18.1989
1744.13	18.1947
1744.39	16.2783
1744.65	16.2746
1744.9	17.2246
1745.16	15.3139
1745.42	16.2676
1745.67	16.2674
1745.93	18.1768
1746.18	18.1775
1746.44	16.2696
1746.7	18.1817
1746.95	17.2296
1747.21	16.2775
1747.46	15.325
1747.72	16.2832
1747.98	19.1511
1748.23	16.2847
1748.49	16.2839
1748.74	14.3688
1749	17.2305
1749.26	18.1802
1749.51	17.2207
1749.77	17.2164
1750.02	15.3027
1750.28	16.2533
1750.54	15.2955
1750.79	17.2006
1751.05	16.2431
1751.31	16.2389
1751.56	17.1885
1751.82	17.1854
1752.07	16.2293
1752.33	15.2737
1752.59	15.271
1752.84	15.2677
1753.1	16.2164
1753.35	17.1641
1753.61	16.2067
1753.86	16.2009
1754.12	15.2438
1754.38	17.1422
1754.63	16.1883
1754.89	19.0399
1755.14	18.0905
1755.4	14.2883
1755.66	17.1433
1755.91	11.4338
1756.17	17.1427
1756.42	15.2393
1756.68	16.1908
1756.93	16.1897
1757.19	14.2848
1757.44	15.2344
1757.7	14.2809
1757.96	18.0834
1758.21	19.0308
1758.47	15.223
1758.72	12.3678
1758.98	16.1684
1759.23	17.1171
1759.49	18.0677
1759.75	18.0699
1760	15.2183
1760.26	13.3159
1760.51	17.1183
1760.77	16.1676
1761.02	16.1683
1761.28	14.2674
1761.53	17.1249
1761.79	16.1777
1762.05	17.1313
1762.3	17.1327
1762.56	15.2296
1762.81	18.086
1763.07	17.1339
1763.32	15.229
1763.58	18.0838
1763.83	16.1777
1764.09	15.2246
1764.34	15.2235
1764.6	13.3179
1764.85	16.1701
1765.11	17.1191
1765.37	15.2133
1765.62	15.2124
1765.88	14.258
1766.13	17.1026
1766.39	14.2426
1766.64	15.1841
1766.9	15.1808
1767.15	17.0802
1767.41	18.0353
1767.66	13.2867
1767.92	18.0368
1768.17	14.2373
1768.43	16.1427
1768.68	18.9996
1768.94	14.2455
1769.19	15.1971
1769.45	17.1017
1769.7	14.2505
1769.96	16.1548
1770.21	14.2528
1770.47	19.0125
1770.72	17.1101
1770.98	16.1592
1771.23	16.1598
1771.49	16.16
1771.74	13.304
1772	19.0189
1772.26	15.2105
1772.51	15.2135
1772.76	16.1729
1773.02	15.2223
1773.27	14.2699
1773.53	16.1761
1773.78	16.1744
1774.04	16.1715
1774.29	14.2624
1774.55	18.0716
1774.8	19.0204
1775.06	17.1114
1775.31	14.2507
1775.57	18.0561
1775.82	15.1956
1776.08	15.191
1776.33	14.2352
1776.59	17.087
1776.84	14.2332
1777.1	14.236
1777.35	18.0432
1777.61	16.1404
1777.86	15.1894
1778.12	18.0459
1778.37	15.1898
1778.63	16.1421
1778.88	16.1432
1779.13	17.0972
1779.39	16.1473
1779.65	16.1501
1779.9	16.1517
1780.15	16.153
1780.41	17.1073
1780.66	17.109
1780.92	15.204
1781.17	14.2522
1781.43	13.3008
1781.68	16.1649
1781.94	18.0746
1782.19	13.3045
1782.45	15.2119
1782.7	14.2563
1782.95	15.2081
1783.21	17.1142
1783.46	14.2525
1783.72	15.2075
1783.97	17.118
1784.23	17.1213
1784.48	17.1258
1784.74	16.1777
1784.99	18.0984
1785.24	13.3275
1785.5	18.1195
1785.75	19.0821
1786.01	16.2125
1786.26	17.1745
1786.52	16.2216
1786.77	14.3077
1787.03	13.3505
1787.28	14.3103
1787.54	16.2284
1787.79	17.1862
1788.04	17.1851
1788.3	15.2602
1788.55	16.2116
1788.81	17.1671
1789.06	17.1655
1789.31	14.2923
1789.57	14.2921
1789.82	16.2086
1790.08	15.2518
1790.33	19.0846
1790.59	11.4195
1790.84	15.2524
1791.09	14.2948
1791.35	15.2533
1791.6	17.1674
1791.86	15.2489
1792.11	16.2154
1792.36	14.3075
1792.62	15.2727
1792.87	17.195
1793.13	17.1974
1793.38	18.1602
1793.64	16.2422
1793.89	15.2842
1794.14	16.2475
1794.4	18.1719
1794.65	17.2129
1794.9	16.2531
1795.16	15.2929
1795.41	16.2551
1795.67	15.2937
1795.92	14.3314
1796.17	16.2528
1796.43	16.2503
1796.68	13.3633
1796.94	14.321
1797.19	16.2398
1797.44	14.3155
1797.7	15.274
1797.95	14.3117
1798.21	16.2314
1798.46	14.3094
1798.71	16.23
1798.97	20.0724
1799.22	16.2308
1799.47	13.3497
1799.73	14.3119
1799.98	14.3138
1800.24	15.2774
1800.49	14.3187
1800.74	17.2052
1801	15.2823
1801.25	17.206
1801.5	14.3225
1801.76	16.2489
1802.01	15.2889
1802.27	17.2171
1802.52	15.2952
1802.77	16.2613
1803.03	13.3743
1803.28	14.3393
1803.53	15.3045
1803.79	18.1969
1804.04	15.3063
1804.29	13.3785
1804.55	16.2693
1804.8	15.305
1805.05	16.2685
1805.31	14.3405
1805.56	15.3042
1805.81	14.3402
1806.07	13.3762
1806.32	16.2681
1806.58	14.34
1806.83	16.2682
1807.08	16.2683
1807.34	16.2682
1807.59	17.2317
1807.84	17.2301
1808.1	15.3007
1808.35	15.2999
1808.6	15.299
1808.86	15.2983
1809.11	15.298
1809.36	15.2985
1809.62	16.2639
1809.87	16.2659
1810.12	16.2681
1810.38	16.2692
1810.63	17.2348
1810.88	14.3422
1811.14	16.2755
1811.39	16.2791
1811.64	15.3179
1811.9	16.2875
1812.15	16.29
1812.4	17.2579
1812.65	14.3592
1812.91	16.2923
1813.16	17.2591
1813.41	15.3261
1813.67	15.3271
1813.92	16.2932
1814.17	17.2588
1814.43	16.287
1814.68	14.3466
1814.93	14.3435
1815.19	16.2759
1815.44	16.2788
1815.69	16.283
1815.95	15.3163
1816.2	13.383
1816.45	15.3165
1816.7	14.3513
1816.96	14.3521
1817.21	15.3198
1817.46	17.255
1817.72	11.4542
1817.97	13.389
1818.22	18.2262
1818.47	15.3261
1818.73	17.2631
1818.98	16.2971
1819.23	16.2983
1819.49	14.3632
1819.74	20.1714
1819.99	14.3637
1820.24	14.3637
1820.5	17.2664
1820.75	14.3605
1821	17.2619
1821.26	16.2939
1821.51	16.2948
1821.76	16.2956
1822.01	14.3601
1822.27	12.4245
1822.52	15.3303
1822.77	15.3305
1823.03	16.2985
1823.28	14.3609
1823.53	15.3293
1823.78	17.266
1824.04	15.3288
1824.29	18.2353
1824.54	15.3304
1824.79	16.3004
1825.05	17.2702
1825.3	14.3623
1825.55	14.3612
1825.8	15.3274
1826.06	14.3561
1826.31	15.323
1826.56	15.3221
1826.81	15.3208
1827.07	14.3508
1827.32	17.253
1827.57	16.2826
1827.82	14.344
1828.08	15.3124
1828.33	16.2821
1828.58	19.1889
1828.83	15.3168
1829.09	16.2867
1829.34	17.2571
1829.59	12.4142
1829.84	16.293
1830.1	14.3556
1830.35	14.3547
1830.6	18.232
1830.85	15.3252
1831.11	16.2944
1831.36	15.3253
1831.61	14.3496
1831.86	17.2466
1832.12	15.3018
1832.37	14.3268
1832.62	16.2577
1832.87	12.384
1833.13	15.2857
1833.38	13.3525
1833.63	14.3861
1833.88	16.3027
1834.13	15.3145
1834.39	15.3089
1834.64	15.2962
1834.89	15.2859
1835.14	14.3031
1835.39	15.2624
1835.65	16.232
1835.9	16.2607
1836.15	18.2043
1836.4	16.2716
1836.65	14.3347
1836.91	15.3056
1837.16	14.3362
1837.41	14.321
1837.66	15.2792
1837.92	12.3688
1838.17	15.262
1838.42	14.2882
1838.67	12.3501
1838.92	16.2061
1839.18	14.2698
1839.43	18.1231
1839.68	15.2254
1839.93	16.1916
1840.18	14.2608
1840.43	17.1555
1840.69	14.2607
1840.94	15.2242
1841.19	15.2224
1841.44	14.2578
1841.7	16.1879
1841.95	15.222
1842.2	15.2198
1842.45	16.1842
1842.7	15.2211
1842.95	14.2618
1843.2	14.2672
1843.46	16.2056
1843.71	15.2435
1843.96	12.3338
1844.21	14.2426
1844.46	14.2245
1844.72	16.146
1844.97	15.1855
1845.22	17.119
1845.47	15.1939
1845.72	13.2608
1845.97	16.1465
1846.23	12.2941
1846.48	14.2158
1846.73	16.1356
1846.98	15.1682
1847.23	13.2392
1847.48	14.1955
1847.74	14.1908
1847.99	16.1085
1848.24	17.0651
1848.49	14.1802
1848.74	15.138
1848.99	15.1361
1849.25	16.0953
1849.5	16.0946
1849.75	16.0941
1850	15.1331
1850.25	12.2513
1850.5	15.1302
1850.75	14.1676
1851.01	15.1235
1851.26	16.078
1851.51	17.9903
1851.76	14.1497
1852.01	15.1062
1852.26	13.1854
1852.51	17.9719
1852.76	16.05
1853.02	15.0894
1853.27	14.1297
1853.52	16.0442
1853.77	16.0438
1854.02	16.0428
1854.27	15.0836
1854.52	12.2084
1854.78	14.1215
1855.03	15.0765
1855.28	14.1161
1855.53	16.9836
1855.78	15.0654
1856.03	14.1048
1856.28	15.057
1856.53	16.0087
1856.79	14.0941
1857.04	16.9619
1857.29	16.961
1857.54	16.9623
1857.79	14.0964
1858.04	14.0977
1858.29	17.9259
1858.54	13.1447
1858.79	15.0597
1859.04	16.0163
1859.3	15.0575
1859.55	17.9244
1859.8	16.9632
1860.05	16.0022
1860.3	13.1297
1860.55	14.082
1860.8	16.9454
1861.05	14.0752
1861.3	15.9826
1861.56	15.0242
1861.81	15.0208
1862.06	15.9717
1862.31	14.0578
1862.56	15.007
1862.81	14.0474
1863.06	12.1342
1863.31	13.0816
1863.56	17.8387
1863.81	14.974
1864.06	13.0633
1864.32	16.8635
1864.57	16.8567
1864.82	16.8517
1865.07	15.8982
1865.32	15.8959
1865.57	15.8945
1865.82	14.944
1866.07	14.9442
1866.32	15.8937
1866.57	14.9415
1866.82	16.8411
1867.07	14.9385
1867.32	15.8876
1867.57	15.8862
1867.83	15.8851
1868.08	13.033
1868.33	15.8832
1868.58	16.8314
1868.83	14.9284
1869.08	13.0251
1869.33	14.923
1869.58	13.0211
1869.83	15.8666
1870.08	16.8124
1870.33	14.9113
1870.58	15.8595
1870.83	13.9589
1871.08	15.8542
1871.33	15.8504
1871.58	14.8975
1871.84	16.7899
1872.08	15.8368
1872.33	14.8839
1872.59	15.8265
1872.84	13.9251
1873.09	12.9701
1873.34	15.8046
1873.59	15.7995
1873.84	15.7955
1874.09	12.0088
1874.34	13.8916
1874.59	15.77
1874.84	15.7571
1875.09	16.7286
1875.34	12.0342
1875.59	14.851
1875.84	18.6325
1876.09	15.7957
1876.34	12.0211
1876.59	14.8651
1876.84	14.859
1877.09	14.8549
1877.34	16.7474
1877.59	16.7469
1877.84	14.8546
1878.09	14.8508
1878.34	13.9017
1878.59	15.7869
1878.84	12.9414
1879.09	12.9343
1879.34	13.8712
1879.59	14.8062
1879.84	14.7971
1880.1	13.8474
1880.34	14.8115
1880.59	17.7065
1880.84	14.801
1881.1	16.6599
1881.34	10.0659
1881.59	17.6107
1881.84	13.835
1882.1	17.6125
1882.34	14.7886
1882.59	15.7335
1882.85	15.7368
1883.1	14.7984
1883.34	13.8565
1883.59	18.5791
1883.85	15.7418
1884.09	16.6796
1884.34	14.7878
1884.59	16.6707
1884.84	16.6659
1885.09	15.7179
1885.34	15.7122
1885.59	13.821
1885.84	13.8158
1886.09	11.9273
1886.34	14.7479
1886.59	13.8044
1886.84	14.7443
1887.09	16.6263
1887.34	13.8038
1887.59	15.69
1887.84	13.8083
1888.09	14.7501
1888.34	16.632
1888.59	15.6888
1888.84	18.5128
1889.09	14.7442
1889.34	16.6265
1889.59	13.7998
1889.84	14.7384
1890.09	15.6755
1890.34	13.7862
1890.59	15.6585
1890.84	15.6513
1891.09	14.7129
1891.34	14.7104
1891.59	15.6452
1891.84	15.6423
1892.09	13.7622
1892.34	13.7623
1892.59	15.642
1892.83	14.7034
1893.08	13.7648
1893.33	15.6459
1893.58	13.768
1893.83	14.7103
1894.08	13.7715
1894.33	13.7725
1894.58	17.5356
1894.83	14.7135
1895.08	16.5938
1895.33	14.7108
1895.58	13.7677
1895.83	14.7047
1896.08	12.8204
1896.33	18.4555
1896.58	14.6935
1896.83	16.5705
1897.08	11.8702
1897.32	14.6866
1897.57	14.6858
1897.82	14.6861
1898.07	15.6267
1898.32	13.7498
1898.57	11.8721
1898.82	13.7541
1899.07	14.6965
1899.32	12.8188
1899.57	15.642
1899.82	11.8781
1900.07	12.8171
1900.31	18.4577
1900.57	15.634
1900.81	12.8113
1901.06	14.6904
1901.31	15.6295
1901.56	15.6284
1901.81	11.8666
1902.06	13.7455
1902.31	13.7446
1902.56	15.6238
1902.81	11.862
1903.06	14.6752
1903.31	16.55
1903.55	15.6081
1903.8	15.6056
1904.05	12.7864
1904.3	14.663
1904.55	15.6024
1904.8	15.6024
1905.05	13.7264
1905.3	15.6067
1905.55	14.6675
1905.79	14.6679
1906.04	15.6088
1906.29	13.7312
1906.54	14.6737
1906.79	15.6174
1907.04	14.681
1907.29	15.6264
1907.54	13.7487
1907.79	16.5766
1908.04	16.5794
1908.28	12.8135
1908.53	12.8139
1908.78	15.6395
1909.03	14.6966
1909.28	16.5784
1909.53	14.6934
1909.78	17.5181
1910.03	15.6339
1910.27	17.517
1910.52	19.4013
1910.77	15.6363
1911.02	17.5257
1911.27	17.5304
1911.52	16.5903
1911.77	14.7071
1912.02	16.5963
1912.26	15.6554
1912.51	14.713
1912.76	11.8818
1913.01	13.7678
1913.26	12.8224
1913.51	17.5389
1913.76	15.648
1914	13.758
1914.25	14.6981
1914.5	13.7527
1914.75	14.6937
1915	17.5205
1915.25	14.6928
1915.49	17.5236
1915.74	14.6978
1915.99	14.7013
1916.24	16.5928
1916.49	15.6536
1916.74	13.7713
1916.99	16.609
1917.23	13.776
1917.48	16.6101
1917.73	15.6618
1917.98	15.6644
1918.23	14.723
1918.48	14.7262
1918.72	15.6726
1918.97	14.7288
1919.22	18.5121
1919.47	14.728
1919.72	14.7258
1919.97	13.7771
1920.21	14.7202
1920.46	16.609
1920.71	17.5523
1920.96	11.8791
1921.21	15.6565
1921.46	17.5427
1921.7	15.6511
1921.95	16.595
1922.2	13.7612
1922.45	14.7078
1922.7	17.5463
1922.94	14.7149
1923.19	17.5554
1923.44	15.6674
1923.69	13.7788
1923.94	13.7823
1924.19	14.7309
1924.43	14.7324
1924.68	13.7868
1924.93	14.735
1925.18	15.6834
1925.43	13.7896
1925.67	14.7375
1925.92	16.6342
1926.17	14.7404
1926.42	14.7425
1926.66	15.6937
1926.91	17.5949
1927.16	13.8041
1927.41	13.8077
1927.66	14.7595
1927.91	11.9141
1928.15	11.9139
1928.4	13.8123
1928.65	19.5064
1928.9	14.757
1929.15	12.8562
1929.39	11.9048
1929.64	15.6979
1929.89	17.5926
1930.14	16.6425
1930.38	13.7945
1930.63	13.7959
1930.88	15.6985
1931.13	16.6562
1931.37	15.7174
1931.62	13.8287
1931.87	17.6473
1932.12	12.8959
1932.37	11.9495
1932.61	12.9077
1932.86	13.8616
1933.11	17.6645
1933.36	13.8515
1933.61	14.8027
1933.85	11.9413
1934.1	16.7011
1934.35	15.7442
1934.6	15.7404
1934.84	17.6406
1935.09	14.7812
1935.34	14.7783
1935.59	13.8275
1935.83	17.6398
1936.08	15.7366
1936.33	15.7386
1936.58	15.7405
1936.82	17.6474
1937.07	11.9324
1937.32	15.7444
1937.57	14.7948
1937.81	17.66
1938.06	14.8081
1938.31	15.7655
1938.56	17.6724
1938.8	16.7141
1939.05	17.6598
1939.3	14.7933
1939.55	14.8021
1939.79	15.7685
1940.04	15.7698
1940.29	14.8129
1940.54	15.76
1940.78	17.6607
1941.03	11.9359
1941.28	15.76
1941.52	13.853
1941.77	15.7651
1942.02	14.8132
1942.27	14.8163
1942.51	12.9082
1942.76	16.7339
1943.01	15.7808
1943.26	16.7392
1943.5	15.7846
1943.75	14.8291
1944	15.7854
1944.24	17.6969
1944.49	13.8694
1944.74	14.824
1944.99	16.7356
1945.23	14.8224
1945.48	12.909
1945.73	18.6448
1945.97	13.8647
1946.22	13.8668
1946.47	13.8691
1946.71	18.656
1946.96	16.746
1947.21	15.7933
1947.46	13.884
1947.7	14.8476
1947.95	14.8524
1948.2	12.9398
1948.44	17.7414
1948.69	15.8276
1948.94	16.7913
1949.19	16.7937
1949.43	16.7958
1949.68	15.8363
1949.93	12.9549
1950.17	16.7997
1950.42	13.9181
1950.67	13.913
1950.91	15.8258
1951.16	13.8966
1951.41	17.7238
1951.65	16.7559
1951.9	13.8753
1952.15	14.8313
1952.39	13.873
1952.64	18.6657
1952.89	13.8789
1953.14	13.8857
1953.38	13.8929
1953.63	16.7759
1953.88	14.8597
1954.12	13.9017
1954.37	15.8253
1954.62	15.828
1954.86	17.7519
1955.11	14.8706
1955.36	14.8714
1955.6	18.7164
1955.85	14.8712
1956.1	13.9077
1956.34	15.8267
1956.59	14.8641
1956.84	12.9408
1957.08	12.9381
1957.33	14.8565
1957.58	12.9328
1957.82	14.8503
1958.07	15.8069
1958.31	16.7635
1958.56	12.9218
1958.81	12.9206
1959.05	14.8399
1959.3	11.9608
1959.55	15.7999
1959.79	13.8803
1960.04	14.8402
1960.29	13.8802
1960.53	13.8801
1960.78	15.8001
1961.03	15.8008
1961.27	15.8021
1961.52	16.7628
1961.77	12.9205
1962.01	13.8796
1962.26	13.879
1962.5	11.9578
1962.75	14.8385
1963	16.7608
1963.24	14.8425
1963.49	15.8061
1963.74	13.8866
1963.98	15.8104
1964.23	14.8496
1964.48	13.8876
1964.72	14.8488
1964.97	16.772
1965.21	17.7332
1965.46	15.8106
1965.71	13.8865
1965.95	14.8455
1966.2	15.8029
1966.44	14.8372
1966.69	15.7921
1966.94	14.8265
1967.18	16.7423
1967.43	10.9798
1967.68	14.8164
1967.92	13.8536
1968.17	14.8105
1968.41	13.849
1968.66	14.8063
1968.91	13.8459
1969.15	16.7247
1969.4	12.8882
1969.64	14.8067
1969.89	14.8056
1970.14	13.844
1970.38	13.8407
1970.63	13.837
1970.87	15.7514
1971.12	12.8733
1971.37	14.7889
1971.61	15.7464
1971.86	11.9121
1972.1	16.7049
1972.35	14.7887
1972.6	13.8314
1972.84	14.7919
1973.09	14.7932
1973.33	13.8348
1973.58	16.7126
1973.82	13.8347
1974.07	17.6709
1974.32	14.792
1974.56	15.7493
1974.81	12.8696
1975.05	18.6199
1975.3	17.6577
1975.55	15.7377
1975.79	15.7356
1976.04	13.8174
1976.28	16.6925
1976.53	12.8584
1976.77	13.8163
1977.02	14.775
1977.26	14.7742
1977.51	16.6884
1977.76	13.8099
1978	14.7653
1978.25	12.8475
1978.49	15.7185
1978.74	14.7588
1978.98	17.6306
1979.23	14.7563
1979.48	12.8394
1979.72	15.7088
1979.97	13.7908
1980.21	15.7007
1980.46	17.6091
1980.7	13.7788
1980.95	13.7773
1981.19	14.7321
1981.44	12.8171
1981.69	12.8152
1981.93	16.6384
1982.18	16.6343
1982.42	17.5852
1982.67	11.8491
1982.91	16.6279
1983.16	13.761
1983.4	13.7627
1983.65	14.7204
1983.89	17.5891
1984.14	14.7191
1984.38	15.6759
1984.63	15.6709
1984.88	11.8427
1985.12	14.704
1985.37	14.6975
1985.61	14.6895
1985.86	14.6774
1986.1	13.7141
1986.35	13.7056
1986.59	16.5543
1986.84	16.5492
1987.08	14.6423
1987.33	15.5936
1987.57	17.4993
1987.82	13.6977
1988.06	16.558
1988.31	15.6091
1988.55	15.614
1988.8	15.6249
1989.04	16.5722
1989.29	16.5492
1989.53	14.6853
1989.78	14.6399
1990.02	16.4671
1990.27	10.2143
1990.52	12.8648
1990.76	13.7416
1991.01	14.596
1991.25	13.7958
1991.49	16.3055
1991.74	15.5171
1991.99	17.1971
1992.23	14.7098
1992.47	15.2047
1992.72	15.1823
1992.97	13.7789
1993.21	15.8611
1993.45	13.6273
1993.7	15.3937
1993.95	15.6627
1994.19	14.1433
1994.43	12.4306
1994.68	13.6136
1994.93	15.1101
1995.17	15.74
1995.41	16.0315
1995.66	13.1339
1995.9	15.0523
1996.15	16.0961
1996.39	15.0379
1996.64	16.5789
1996.88	14.45
1997.13	14.9571
1997.37	14.5084
1997.62	15.7534
1997.86	16.5597
1998.11	14.7389
1998.35	13.8864
1998.6	14.2898
1998.84	15.6866
1999.09	14.4377
1999.33	15.6825
1999.57	13.3889
1999.82	15.2277
2000.06	14.7948
2000.31	15.2822
2000.55	14.8108
2000.8	13.8945
2001.04	15.7383
2001.29	15.707
2001.53	13.3482
2001.78	16.5436
2002.02	14.0876
2002.27	14.8276
2002.51	13.6655
2002.75	15.0772
2003	15.7318
2003.24	13.8458
2003.49	12.4538
2003.73	16.9445
2003.98	14.5708
2004.22	14.2455
2004.47	14.1266
2004.71	14.3723
2004.95	14.303
2005.2	13.7763
2005.44	16.291
2005.69	14.5785
2005.93	15.0005
2006.18	14.8349
2006.42	16.1205
2006.66	15.1293
2006.91	14.3998
2007.15	15.0437
2007.4	14.7925
2007.64	14.1374
2007.89	13.8283
2008.13	14.4633
2008.38	14.9133
2008.62	15.2429
2008.86	14.5465
2009.11	13.8999
2009.35	14.0673
2009.6	15.3503
2009.84	14.5935
2010.08	14.253
2010.33	14.5039
2010.57	15.7836
2010.82	15.1758
2011.06	13.1532
2011.3	14.3293
2011.55	15.8319
2011.79	14.7261
2012.04	13.8399
2012.18	14.9499
2012.43	14.9515
2012.68	17.7702
2012.93	18.7111
2013.17	14.0158
2013.42	14.9551
2013.67	13.088
2013.91	15.9099
2014.16	14.969
2014.41	12.1476
2014.66	18.7212
2014.9	15.8978
2015.15	14.0139
2015.4	15.8849
2015.64	14.9406
2015.89	15.8729
2016.14	15.8664
2016.38	13.0491
2016.63	15.8565
2016.88	14.9175
2017.13	16.7891
2017.37	13.042
2017.62	14.9144
2017.87	15.85
2018.11	16.787
2018.36	16.7879
2018.61	13.9779
2018.86	15.8504
2019.1	13.0391
2019.35	15.8464
2019.6	15.8433
2019.84	16.7754
2020.09	14.899
2020.34	15.831
2020.58	13.9567
2020.83	11.148
2021.08	14.8851
2021.32	15.8166
2021.57	13.9428
2021.82	13.0036
2022.06	14.8667
2022.31	15.7953
2022.56	16.7236
2022.8	14.8529
2023.05	13.915
2023.3	13.9151
2023.54	16.7186
2023.79	14.8611
2024.04	13.9376
2024.28	14.8841
2024.53	16.7637
2024.78	13.9559
2025.02	14.8829
2025.27	15.8038
2025.52	13.901
2025.76	15.7944
2026.01	13.04
2026.26	13.9569
2026.5	16.7767
2026.75	14.8806
2027	13.9297
2027.24	14.8453
2027.49	13.9121
2027.74	12.9667
2027.98	14.8403
2028.23	13.9172
2028.48	15.7807
2028.72	17.6467
2028.97	12.048
2029.22	14.8511
2029.46	17.6565
2029.71	19.5307
2029.96	15.7999
2030.2	14.8693
2030.45	14.872
2030.69	14.8759
2030.94	17.6854
2031.19	14.8715
2031.43	12.9943
2031.68	14.8462
2031.93	15.773
2032.17	13.9133
2032.42	13.9175
2032.66	14.8585
2032.91	16.7389
2033.16	14.8771
2033.4	13.9429
2033.65	13.9346
2033.9	12.0641
2034.14	15.8076
2034.39	13.9372
2034.63	14.8714
2034.88	16.7396
2035.13	14.8677
2035.37	14.8654
2035.62	16.732
2035.87	12.0571
2036.11	16.7262
2036.36	12.9868
2036.6	17.654
2036.85	14.8489
2037.1	15.778
2037.34	17.6398
2037.59	9.2384
2037.83	14.8323
2038.08	15.7615
2038.33	14.8261
2038.57	15.7567
2038.82	14.8233
2039.06	13.8892
2039.31	15.7511
2039.56	17.6115
2039.8	14.8142
2040.05	14.8139
2040.3	15.7465
2040.54	14.8181
2040.79	15.7559
2041.03	15.7622
2041.28	18.564
2041.52	14.8315
2041.77	12.9626
2042.02	14.8216
2042.26	14.8093
2042.51	14.8217
2042.75	15.7624
2043	16.7149
2043.25	16.7421
2043.49	15.7987
2043.74	14.8483
2043.98	14.8368
2044.23	12.9688
2044.47	13.8988
2044.72	15.7534
2044.97	14.8162
2045.21	14.8162
2045.46	15.749
2045.7	12.9528
2045.95	15.7511
2046.19	15.7548
2046.44	17.6235
2046.69	15.7619
2046.93	15.7673
2047.18	14.8378
2047.42	16.7097
2047.67	16.7124
2047.91	14.8447
2048.16	13.9096
2048.41	12.9728
2048.65	15.7702
2048.9	12.9681
2049.14	15.7693
2049.39	16.7051
2049.63	15.7719
2049.88	14.8394
2050.12	14.8414
2050.37	16.7128
2050.62	15.7821
2050.86	12.0489
2051.11	15.7923
2051.35	14.8589
2051.6	16.7303
2051.84	15.7943
2052.09	14.8579
2052.33	15.7923
2052.58	14.853
2052.82	11.1109
2053.07	15.7851
2053.31	15.7834
2053.56	15.7814
2053.8	15.7801
2054.05	12.9755
2054.3	13.9106
2054.54	12.0417
2054.79	13.9128
2055.03	12.9797
2055.28	13.9164
2055.52	15.7906
2055.77	14.8582
2056.01	13.9253
2056.26	15.7995
2056.5	15.8003
2056.75	14.8647
2056.99	14.8652
2057.24	13.927
2057.48	15.7968
2057.73	14.8584
2057.97	14.8599
2058.22	15.798
2058.46	14.8633
2058.71	16.7363
2058.95	13.9276
2059.2	14.8641
2059.45	12.9921
2059.69	12.0567
2059.94	15.8046
2060.18	19.5543
2060.43	14.8727
2060.67	15.8116
2060.92	15.8132
2061.16	14.8771
2061.4	16.7528
2061.65	13.942
2061.9	14.8814
2062.14	16.76
2062.39	15.8268
2062.63	15.831
2062.88	15.8347
2063.12	12.0824
2063.37	16.7788
2063.61	14.9015
2063.86	13.9634
2064.1	13.9649
2064.34	13.0265
2064.59	13.9674
2064.83	14.909
2065.08	15.8507
2065.32	14.9124
2065.57	15.8531
2065.81	16.795
2066.06	13.9753
2066.3	13.0332
2066.55	14.909
2066.79	13.9632
2067.04	17.7165
2067.28	15.8391
2067.53	13.9657
2067.77	13.0324
2068.02	14.92
2068.26	15.8606
2068.51	14.9155
2068.75	13.0467
2069	16.8209
2069.24	14.9365
2069.48	16.8183
2069.73	15.8759
2069.97	15.8745
2070.22	14.9325
2070.46	13.9901
2070.71	15.8734
2070.95	17.7568
2071.2	16.816
2071.44	19.6427
2071.69	14.9366
2071.93	15.8823
2072.18	15.8874
2072.42	15.8941
2072.66	15.9021
2072.91	17.7954
2073.15	14.023
2073.4	17.7994
2073.64	15.9119
2073.89	13.0783
2074.13	15.9069
2074.38	14.9597
2074.62	18.7253
2074.87	14.9502
2075.11	14.9515
2075.35	15.8978
2075.6	14.0123
2075.84	14.9568
2076.09	13.0713
2076.33	15.9052
2076.58	14.9686
2076.82	14.027
2077.06	17.8079
2077.31	15.9209
2077.55	16.868
2077.8	16.8683
2078.04	14.9764
2078.29	15.9199
2078.53	13.0847
2078.77	14.9741
2079.02	14.9731
2079.26	17.8086
2079.51	16.8648
2079.75	15.9206
2080	13.0858
2080.24	10.2503
2080.48	14.0296
2080.73	14.0288
2080.97	14.9734
2081.22	16.8634
2081.46	14.9731
2081.7	14.973
2081.95	14.9733
2082.19	14.0283
2082.44	15.918
2082.68	17.8079
2082.93	16.8634
2083.17	14.9767
2083.41	14.0357
2083.66	14.039
2083.9	15.9322
2084.14	15.9338
2084.39	15.9361
2084.63	15.9378
2084.88	14.0449
2085.12	13.0986
2085.36	14.9915
2085.61	17.8313
2085.85	16.8855
2086.1	12.1533
2086.34	16.8883
2086.58	16.891
2086.83	14.0536
2087.07	17.8441
2087.32	15.9502
2087.56	18.7932
2087.8	15.9523
2088.05	17.849
2088.29	15.0077
2088.54	15.9569
2088.78	16.9085
2089.02	14.0683
2089.27	14.0725
2089.51	17.8725
2089.75	16.9292
2090	15.9842
2090.24	15.988
2090.48	14.0917
2090.73	15.9955
2090.97	15.0482
2091.22	14.1001
2091.46	16.9532
2091.7	16.0023
2091.95	15.0507
2092.19	15.0494
2092.43	15.0468
2092.68	16.9446
2092.92	19.7924
2093.17	17.8897
2093.41	16.9381
2093.65	15.0373
2093.9	15.0365
2094.14	15.9842
2094.38	16.9305
2094.63	15.9774
2094.87	14.077
2095.11	14.076
2095.36	17.8723
2095.6	15.971
2095.84	16.92
2096.09	14.0721
2096.33	17.8672
2096.57	13.1211
2096.82	14.0696
2097.06	17.8655
2097.3	15.0187
2097.55	13.1211
2097.79	13.1219
2098.03	17.872
2098.28	14.0769
2098.52	15.0283
2098.76	15.9789
2099.01	16.9286
2099.25	16.9279
2099.5	14.0784
2099.74	15.0273
2099.98	16.924
2100.22	16.9202
2100.47	15.0193
2100.71	15.0188
2100.95	15.9668
2101.2	14.0683
2101.44	16.9171
2101.68	16.9194
2101.93	15.0225
2102.17	15.9741
2102.41	15.9766
2102.66	15.9799
2102.9	15.0327
2103.14	17.8854
2103.39	15.0354
2103.63	15.0361
2103.87	13.1351
2104.12	15.0375
2104.36	15.0381
2104.6	15.9871
2104.85	15.0333
2105.09	17.8802
2105.33	14.0749
2105.57	17.87
2105.82	14.0676
2106.06	16.9145
2106.3	14.0662
2106.55	13.1195
2106.79	16.9222
2107.03	15.0223
2107.27	14.0721
2107.52	15.9718
2107.76	17.8715
2108	14.0714
2108.25	18.821
2108.49	15.0199
2108.73	14.0679
2108.98	15.0158
2109.22	15.9643
2109.46	15.0142
2109.7	18.8142
2109.95	15.0167
2110.19	15.0182
2110.43	15.0214
2110.68	15.0245
2110.92	15.0258
2111.16	14.0745
2111.4	15.9737
2111.65	15.973
2111.89	16.9238
2112.13	15.0233
2112.38	16.9231
2112.62	16.9215
2112.86	14.0692
2113.1	15.018
2113.35	14.065
2113.59	15.0118
2113.83	15.01
2114.07	16.9082
2114.32	15.9577
2114.56	16.9076
2114.8	13.1078
2115.04	18.802
2115.29	17.8494
2115.53	14.0487
2115.77	14.993
2116.01	14.0408
2116.26	15.9342
2116.5	17.8268
2116.74	17.8229
2116.99	14.9762
2117.23	14.0262
2117.47	13.0776
2117.71	16.8678
2117.96	14.0271
2118.2	15.9238
2118.44	14.9789
2118.68	14.9823
2118.92	15.9339
2119.17	13.091
2119.41	13.0932
2119.65	15.9421
2119.9	15.944
2120.14	16.8949
2120.38	13.0988
2120.62	14.9979
2120.86	15.946
2121.11	16.8932
2121.35	14.9921
2121.59	15.9371
2121.83	14.9822
2122.08	18.7669
2122.32	14.0203
2122.56	13.068
2122.8	14.9577
2123.04	16.8464
2123.29	16.8417
2123.53	14.9455
2123.77	15.8881
2124.01	14.9387
2124.26	12.0984
2124.5	14.9336
2124.74	15.878
2124.98	15.8769
2125.22	15.875
2125.47	17.7641
2125.71	14.9282
2125.95	16.8186
2126.19	14.9273
2126.44	17.7614
2126.68	14.9246
2126.92	19.649
2127.16	16.8128
2127.4	16.8115
2127.65	13.9754
2127.89	15.8634
2128.13	14.9166
2128.37	12.0805
2128.61	15.856
2128.86	17.7421
2129.1	15.8517
2129.34	17.7379
2129.58	15.8465
2129.82	14.8995
2130.06	16.785
2130.31	14.8972
2130.55	15.8412
2130.79	13.9542
2131.03	14.8979
2131.27	16.7856
2131.52	16.7861
2131.76	17.7292
2132	13.0098
2132.24	13.9529
2132.48	13.952
2132.73	16.7811
2132.97	14.8913
2133.21	14.8868
2133.45	16.7676
2133.69	18.65
2133.94	16.7648
2134.18	14.88
2134.42	16.7655
2134.66	16.767
2134.9	15.8271
2135.14	12.9972
2135.39	17.7073
2135.63	13.9328
2135.87	14.8771
2136.11	15.8248
2136.35	13.9419
2136.59	12.9931
2136.84	15.8146
2137.08	12.9847
2137.32	13.9246
2137.56	15.8066
2137.8	12.9789
2138.04	13.9194
2138.28	13.9181
2138.53	14.8597
2138.77	14.8569
2139.01	16.736
2139.25	12.9689
2139.49	14.8512
2139.74	13.9121
2139.98	13.9141
2140.22	15.8089
2140.46	15.8047
2140.7	14.828
2140.94	13.8838
2141.18	15.7663
2141.43	16.7113
2141.67	18.5978
2141.91	14.8389
2142.15	13.891
2142.39	16.7115
2142.63	14.8317
2142.87	14.8308
2143.12	17.6498
2143.36	15.7679
2143.6	14.8264
2143.84	14.825
2144.08	16.7029
2144.32	16.7004
2144.56	14.8187
2144.8	15.7561
2145.05	15.7542
2145.29	15.7522
2145.53	16.6892
2145.77	14.8088
2146.01	14.8063
2146.25	16.6805
2146.49	14.7994
2146.73	17.6074
2146.98	16.6651
2147.22	16.6603
2147.46	12.9069
2147.7	16.6545
2147.94	14.7792
2148.18	14.7801
2148.42	14.7824
2148.66	17.5964
2148.9	15.7235
2149.15	17.5999
2149.39	14.7886
2149.63	14.7862
2149.87	15.7216
2150.11	15.7185
2150.35	16.6529
2150.59	14.7766
2150.83	11.0262
2151.07	17.5837
2151.31	14.7688
2151.56	15.7001
2151.8	14.757
2152.04	14.7511
2152.28	16.6146
2152.52	14.7391
2152.76	14.7344
2153	13.7958
2153.24	16.5958
2153.48	16.5937
2153.72	15.6585
2153.97	16.592
2154.21	16.5918
2154.45	12.8558
2154.69	15.6603
2154.93	16.5974
2155.17	16.6
2155.41	13.7964
2155.65	17.535
2155.89	13.7953
2156.13	16.5977
2156.37	15.6609
2156.61	14.7238
2156.86	16.589
2157.1	14.7169
2157.34	16.5803
2157.58	13.7759
2157.82	14.7062
2158.06	14.7042
2158.3	14.7032
2158.54	15.6347
2158.78	15.6329
2159.02	17.4978
2159.26	18.4304
2159.5	18.4303
2159.74	15.6311
2159.98	16.5624
2160.22	15.6272
2160.47	15.6252
2160.71	16.5559
2160.95	15.6215
2161.19	15.6194
2161.43	13.7518
2161.67	16.5434
2161.91	17.472
2162.15	15.6087
2162.39	17.4738
2162.63	15.6101
2162.87	16.542
2163.11	13.7463
2163.35	13.7446
2163.59	12.8112
2163.83	17.4667
2164.07	15.6004
2164.31	14.6665
2164.55	14.663
2164.79	14.6584
2165.03	12.7908
2165.27	12.7848
2165.51	15.5713
2165.76	14.6409
2166	17.4305
2166.24	14.6431
2166.48	15.5757
2166.72	14.6495
2166.96	16.5155
2167.2	14.6596
2167.44	14.6628
2167.68	14.664
2167.92	15.5942
2168.16	17.4532
2168.4	15.5892
2168.64	16.5137
2168.88	16.5022
2169.12	15.5659
2169.36	17.4214
2169.6	15.5595
2169.84	16.4863
2170.08	15.5564
2170.32	15.5558
2170.56	16.4844
2170.8	15.5562
2171.04	14.6286
2171.28	16.4885
2171.52	13.7009
2171.76	15.5596
2172	17.4181
2172.24	16.4882
2172.48	16.4869
2172.72	13.6978
2172.96	16.4848
2173.2	14.6253
2173.44	14.6239
2173.68	17.4082
2173.92	16.4779
2174.16	16.4777
2174.4	14.62
2174.64	14.6201
2174.88	15.5484
2175.12	15.5488
2175.36	18.3341
2175.6	16.4715
2175.84	14.6109
2176.08	17.3954
2176.32	15.5391
2176.56	14.6106
2176.8	16.4675
2177.04	17.3957
2177.28	15.5384
2177.52	15.5377
2177.76	11.8228
2178	15.5352
2178.24	14.6062
2178.48	17.39
2178.72	16.4595
2178.96	16.4573
2179.2	17.3843
2179.44	13.6702
2179.68	16.452
2179.92	15.5227
2180.16	14.5919
2180.4	15.5158
2180.64	16.4381
2180.88	15.5074
2181.12	16.4314
2181.35	16.4287
2181.59	17.3542
2181.83	16.4278
2182.07	17.3559
2182.31	12.7233
2182.55	14.5776
2182.79	16.433
2183.03	15.5083
2183.27	16.4383
2183.51	18.2956
2183.75	16.4452
2183.99	16.4499
2184.23	18.3111
2184.47	16.4591
2184.71	15.5339
2184.95	15.5347
2185.19	17.3904
2185.43	14.6015
2185.67	17.3836
2185.91	18.3078
2186.15	16.4473
2186.38	14.5872
2186.62	18.2919
2186.86	15.5049
2187.1	17.3566
2187.34	17.3555
2187.58	16.4287
2187.82	17.3567
2188.06	15.5039
2188.3	19.2122
2188.54	17.3587
2188.78	14.578
2189.02	16.4339
2189.26	16.4351
2189.5	17.3638
2189.74	16.4374
2189.97	16.4399
2190.21	15.5146
2190.45	17.3731
2190.69	18.3051
2190.93	17.3836
2191.17	13.6752
2191.41	17.3976
2191.65	15.5412
2191.89	15.5405
2192.13	17.3974
2192.37	15.5366
2192.61	15.534
2192.85	18.3178
2193.08	17.3836
2193.32	19.2345
2193.56	18.2997
2193.8	18.2949
2194.04	15.5078
2194.28	16.4326
2194.52	20.14
2194.76	16.4295
2195	17.3574
2195.24	17.3589
2195.47	16.4348
2195.71	14.5826
2195.95	17.3718
2196.19	17.3776
2196.43	16.4535
2196.67	16.4587
2196.91	15.5343
2197.15	18.3315
2197.39	13.6883
2197.63	18.3496
2197.86	16.4941
2198.1	18.3623
2198.34	17.4347
2198.58	19.2915
2198.82	16.48
2199.06	14.5886
2199.3	15.4939
2199.54	15.5015
2199.78	17.3871
2200.01	16.4716
2200.25	20.1866
2200.49	16.463
2200.73	16.4726
2200.97	18.3985
2201.21	14.6444
2201.45	17.4397
2201.69	18.376
2201.92	16.4997
2202.16	17.4158
2202.4	14.6105
2202.64	17.3913
2202.88	17.3883
2203.12	19.2477
2203.36	19.2519
2203.59	16.4631
2203.83	13.6674
2204.07	14.5976
2204.31	17.3891
2204.55	14.602
2204.79	17.3954
2205.03	16.4686
2205.27	17.4025
2205.5	14.6134
2205.74	17.4089
2205.98	22.0669
2206.22	17.4129
2206.46	16.4825
2206.7	16.4825
2206.93	15.5505
2207.17	19.276
2207.41	18.3468
2207.65	17.4177
2207.89	15.5568
2208.13	17.4229
2208.37	15.5613
2208.6	15.5637
2208.84	15.5668
2209.08	19.3005
2209.32	15.5721
2209.56	15.5733
2209.8	16.5049
2210.03	17.4357
2210.27	14.6359
2210.51	19.2961
2210.75	14.6306
2210.99	18.3605
2211.23	16.4988
2211.47	16.5051
2211.7	16.5117
2211.94	17.4467
2212.18	15.581
2212.42	18.3826
2212.66	13.7151
2212.89	19.3172
2213.13	17.4498
2213.37	15.5821
2213.61	17.4488
2213.85	18.3814
2214.09	18.3805
2214.32	15.5795
2214.56	18.3807
2214.8	14.6468
2215.04	14.6466
2215.28	18.3808
2215.51	18.3813
2215.75	15.5816
2215.99	17.4514
2216.23	17.4543
2216.47	18.3916
2216.71	19.328
2216.94	16.5266
2217.18	16.5282
2217.42	16.5277
2217.66	16.5267
2217.9	16.526
2218.13	13.7208
2218.37	16.5202
2218.61	16.5155
2218.85	17.4455
2219.08	18.3755
2219.32	17.4395
2219.56	18.3722
2219.8	16.5062
2220.04	16.5083
2220.27	15.5768
2220.51	13.7112
2220.75	16.5168
2220.99	18.3904
2221.23	19.3307
2221.46	16.531
2221.7	16.5349
2221.94	16.5384
2222.18	16.5418
2222.42	17.4816
2222.65	17.4864
2222.89	17.4902
2223.13	14.6837
2223.37	19.371
2223.6	16.5629
2223.84	17.5034
2224.08	17.5067
2224.32	16.5718
2224.55	17.5113
2224.79	17.5124
2225.03	16.5741
2225.27	18.448
2225.5	18.4465
2225.74	17.5075
2225.98	16.5689
2226.22	14.6928
2226.46	14.6926
2226.69	16.57
2226.93	16.5741
2227.17	18.4542
2227.41	16.5808
2227.64	18.4608
2227.88	16.587
2228.12	13.7737
2228.36	16.594
2228.59	17.5372
2228.83	14.7219
2229.07	17.5438
2229.31	17.5471
2229.54	17.5504
2229.78	17.5535
2230.02	16.6162
2230.26	19.441
2230.49	17.5627
2230.73	16.6248
2230.97	19.4505
2231.21	13.8049
2231.44	16.6278
2231.68	17.5675
2231.92	16.6241
2232.16	14.7392
2232.39	18.4963
2232.63	15.6702
2232.87	15.6702
2233.11	15.6707
2233.34	19.4332
2233.58	16.6126
2233.82	17.5537
2234.05	16.6138
2234.29	16.6174
2234.53	17.5619
2234.77	16.6269
2235	15.6918
2235.24	16.6398
2235.48	17.5868
2235.72	17.5913
2235.95	16.6534
2236.19	17.6026
2236.43	17.6039
2236.66	18.5457
2236.9	16.6565
2237.14	14.7659
2237.37	15.7047
2237.61	16.6453
2237.85	15.7086
2238.09	13.828
2238.32	16.6592
2238.56	16.6601
2238.8	19.4922
2239.04	18.5496
2239.27	17.6072
2239.51	14.7772
2239.75	15.7229
2239.98	19.4995
2240.22	15.7224
2240.46	19.4959
2240.69	18.549
2240.93	14.7725
2241.17	15.7156
2241.4	15.7159
2241.64	17.6057
2241.88	13.8341
2242.11	16.673
2242.35	15.7341
2242.59	15.7378
2242.83	15.7407
2243.06	19.5259
2243.3	15.7469
2243.54	15.7494
2243.77	17.6429
2244.01	15.753
2244.25	14.8089
2244.48	17.6495
2244.72	15.7573
2244.96	17.6499
2245.19	20.488
2245.43	15.7548
2245.67	12.9147
2245.91	15.7526
2246.14	16.6978
2246.38	16.6969
2246.61	16.6995
2246.85	15.755
2247.09	14.8082
2247.32	17.6454
2247.56	15.7494
2247.8	15.746
2248.03	16.6879
2248.27	17.6302
2248.51	15.7366
2248.74	16.6809
2248.98	18.5722
2249.22	15.7373
2249.45	15.7396
2249.69	15.7426
2249.93	14.8011
2250.16	17.649
2250.4	18.603
2250.64	14.8187
2250.87	15.7697
2251.11	16.7203
2251.35	18.6194
2251.58	15.7773
2251.82	16.7257
2252.06	13.8797
2252.29	14.8282
2252.53	14.8282
2252.77	12.9321
2253	15.7773
2253.24	14.8313
2253.48	16.7311
2253.71	16.7339
2253.95	16.7364
2254.18	13.8918
2254.42	15.7924
2254.66	15.7947
2254.89	16.7458
2255.13	16.7467
2255.37	13.8983
2255.6	11.9995
2255.84	14.85
2256.08	13.9019
2256.31	13.9038
2256.55	16.7556
2256.78	16.7569
2257.02	17.7091
2257.26	16.7603
2257.49	16.7618
2257.73	13.911
2257.96	15.8147
2258.2	15.8195
2258.44	16.7741
2258.67	16.7749
2258.91	12.9697
2259.15	15.8254
2259.38	14.8749
2259.62	15.8286
2259.85	15.8317
2260.09	14.8828
2260.33	15.8391
2260.56	18.7023
2260.8	17.7555
2261.03	17.7624
2261.27	12.9994
2261.51	13.958
2261.74	16.8255
2261.98	14.9199
2262.21	13.9678
2262.45	15.8805
2262.69	16.8361
2262.92	14.9261
2263.16	15.88
2263.39	13.9664
2263.63	18.7369
2263.87	16.823
2264.1	16.8191
2264.34	15.8619
2264.57	12.9973
2264.81	15.8567
2265.05	17.7604
2265.28	14.8966
2265.52	16.8025
2265.75	14.8958
2265.99	12.9903
2266.22	15.8545
2266.46	16.8127
2266.7	16.8173
2266.93	13.9581
2267.17	13.9627
2267.4	17.7884
2267.64	13.9695
2267.87	15.8824
2268.11	15.8857
2268.35	15.8885
2268.58	14.9341
2268.82	15.8924
2269.05	16.8518
2269.29	15.8968
2269.53	13.9836
2269.76	13.9841
2270	13.9847
2270.23	16.8559
2270.47	15.8997
2270.7	14.9434
2270.94	14.9441
2271.18	15.9018
2271.41	14.9452
2271.65	16.8602
2271.88	13.032
2272.12	16.862
2272.35	15.9054
2272.59	15.9064
2272.82	14.9482
2273.06	13.9926
2273.3	13.9958
2273.53	15.9152
2273.77	15.9186
2274	15.9217
2274.24	14.9663
2274.47	17.8482
2274.71	14.9765
2274.94	14.0224
2275.18	16.909
2275.41	15.9511
2275.65	14.0312
2275.88	15.9522
2276.12	14.991
2276.36	14.0295
2276.59	14.0269
2276.83	14.9801
2277.06	15.9351
2277.3	16.8898
2277.53	17.8447
2277.77	14.9645
2278	14.0034
2278.24	14.9605
2278.47	16.8755
2278.71	15.9152
2278.94	16.8753
2279.18	13.0419
2279.41	15.9199
2279.65	16.8818
2279.89	14.9673
2280.12	14.0111
2280.36	14.0149
2280.59	15.9404
2280.83	13.0661
2281.06	14.9934
2281.3	16.9232
2281.53	16.9276
2281.77	17.8913
2282	15.9712
2282.24	15.9746
2282.47	15.0134
2282.71	14.0513
2282.94	13.086
2283.18	16.9281
2283.41	15.9655
2283.65	12.119
2283.88	14.0449
2284.12	11.1637
2284.35	16.9453
2284.59	17.9108
2284.82	18.8757
2285.06	15.0271
2285.29	15.9893
2285.53	15.0234
2285.76	15.9841
2286	15.0182
2286.23	16.9387
2286.47	16.9322
2286.7	13.0784
2286.94	14.9958
2287.17	15.9549
2287.41	14.0304
2287.64	15.953
2287.88	14.0304
2288.11	14.9938
2288.35	13.074
2288.58	15.0024
2288.82	16.9304
2289.05	15.9707
2289.28	14.0479
2289.52	15.9762
2289.75	15.9798
2289.99	15.9832
2290.22	17.9129
2290.46	15.9882
2290.69	15.9898
2290.93	16.9544
2291.16	15.9892
2291.4	12.1324
2291.63	14.0575
2291.87	15.0179
2292.1	12.1259
2292.34	15.0134
2292.57	15.011
2292.81	11.1574
2293.04	20.7831
2293.28	15.0031
2293.51	14.9967
2293.74	14.9957
2293.98	14.9967
2294.21	14.9987
2294.45	15.0013
2294.68	15.0045
2294.92	14.0456
2295.15	12.1236
2295.39	14.0532
2295.62	12.1277
2295.86	15.9854
2296.09	13.0969
2296.32	15.0283
2296.56	12.1372
2296.79	18.8908
2297.03	14.0672
2297.26	15.0317
2297.5	13.1019
2297.73	12.1384
2297.97	18.8948
2298.2	14.0719
2298.43	16.0036
2298.67	16.9698
2298.9	16.0048
2299.14	16.0041
2299.37	15.0373
2299.61	15.0361
2299.84	17.9317
2300.07	15.0358
2300.31	14.0697
2300.54	15.0343
2300.78	13.1042
2301.01	14.0705
2301.25	15.0381
2301.48	17.9369
2301.71	16.0075
2301.95	14.0781
2302.18	15.0465
2302.42	14.082
2302.65	13.1164
2302.89	12.151
2303.12	15.0515
2303.35	16.0197
2303.59	14.0872
2303.82	17.9536
2304.05	16.9866
2304.29	13.1197
2304.52	16.0177
2304.76	13.1165
2304.99	16.9804
2305.23	15.0463
2305.46	16.0109
2305.69	13.1124
2305.93	16.0113
2306.16	15.0472
2306.4	14.0831
2306.63	16.0199
2306.86	14.0907
2307.1	18.93
2307.33	14.0948
2307.57	13.1276
2307.8	16.0292
2308.03	16.0273
2308.27	14.0893
2308.5	14.0811
2308.74	14.0717
2308.97	13.101
2309.2	14.0627
2309.44	13.0953
2309.67	14.0578
2309.91	15.9855
2310.14	15.9851
2310.37	11.1618
2310.61	15.9915
2310.84	14.0662
2311.07	14.0702
2311.31	14.0742
2311.54	16.0115
2311.78	16.0174
2312.01	14.088
2312.24	15.0578
2312.48	15.0536
2312.71	16.9835
2312.94	13.1128
2313.18	14.0756
2313.41	15.0337
2313.65	15.0292
2313.88	15.9924
2314.11	13.0952
2314.35	14.0613
2314.58	15.9933
2314.81	15.0314
2315.05	14.0678
2315.28	14.0628
2315.51	15.0259
2315.75	12.1271
2315.98	14.0558
2316.22	17.9141
2316.45	14.0509
2316.68	15.0141
2316.92	16.9427
2317.15	15.9776
2317.38	15.0129
2317.62	15.9776
2317.85	16.944
2318.08	15.9812
2318.32	17.9144
2318.55	15.9865
2318.78	17.9214
2319.02	16.9602
2319.25	15.999
2319.48	16.9697
2319.72	16.9712
2319.95	15.0369
2320.19	17.9376
2320.42	12.1378
2320.65	16.0059
2320.89	16.0068
2321.12	17.9411
2321.35	16.0063
2321.58	16.0053
2321.82	16.0012
2322.05	14.0632
2322.28	19.8542
2322.52	19.8494
2322.75	16.9484
2322.98	16.9448
2323.22	16.9411
2323.45	19.8323
2323.68	21.7575
2323.92	24.6464
2324.15	22.712
2324.38	23.6709
2324.62	26.5594
2324.85	21.7352
2325.08	23.6601
2325.32	26.5527
2325.55	31.372
2325.78	29.4449
2326.02	38.112
2326.25	37.141
2326.48	51.5797
2326.71	57.3538
2326.95	76.6139
2327.18	98.7792
2327.41	145.006
2327.65	193.15
2327.88	234.543
2328.11	215.276
2328.35	176.768
2328.58	119.965
2328.81	87.2296
2329.05	56.4149
2329.28	45.802
2329.51	34.2347
2329.75	31.3404
2329.98	28.4472
2330.21	22.6665
2330.44	24.5888
2330.68	19.773
2330.91	14.9586
2331.14	18.8057
2331.38	18.8023
2331.61	16.8733
2331.84	18.7941
2332.07	15.9069
2332.31	13.0211
2332.54	14.9434
2332.77	13.9821
2333	14.9446
2333.24	14.9439
2333.47	16.8653
2333.7	14.9409
2333.94	15.9016
2334.17	13.9778
2334.4	16.8612
2334.63	14.9374
2334.87	13.0133
2335.1	16.8572
2335.33	13.9726
2335.56	13.0105
2335.8	13.9711
2336.03	16.8549
2336.26	13.9715
2336.5	14.9324
2336.73	14.9318
2336.96	15.8914
2337.19	13.9672
2337.43	13.9646
2337.66	16.844
2337.89	16.84
2338.12	14.9147
2338.36	12.9899
2338.59	12.9847
2338.82	15.8584
2339.05	12.019
2339.29	14.8935
2339.52	13.9323
2339.75	13.9305
2339.98	15.8466
2340.22	15.8461
2340.45	13.9289
2340.68	14.8866
2340.91	14.8857
2341.15	13.9272
2341.38	13.9279
2341.61	12.9695
2341.84	13.9276
2342.08	14.885
2342.31	13.9247
2342.54	18.7138
2342.77	13.9183
2343.01	13.9155
2343.24	13.9127
2343.47	13.9115
2343.7	14.8681
2343.93	18.6974
2344.17	15.8231
2344.4	11.0346
2344.63	13.9063
2344.86	13.9064
2345.1	14.8645
2345.33	16.7814
2345.56	12.9518
2345.79	14.8668
2346.03	13.9076
2346.26	14.8625
2346.49	12.9418
2346.72	14.8492
2346.95	12.9292
2347.19	13.8768
2347.42	13.8663
2347.65	15.7551
2347.88	14.7695
2348.12	14.7937
2348.35	15.8014
2348.58	15.817
2348.81	13.8727
2349.04	12.9028
2349.28	13.8584
2349.51	13.8599
2349.74	13.851
2349.97	12.8849
2350.2	13.828
2350.44	13.8316
2350.67	16.6879
2350.9	13.8271
2351.13	14.7796
2351.36	14.7788
2351.6	15.7351
2351.83	13.8327
2352.06	14.785
2352.29	14.7838
2352.52	13.8295
2352.76	15.7333
2352.99	12.8736
2353.22	12.8711
2353.45	14.7708
2353.68	15.7151
2353.92	14.7577
2354.15	12.8523
2354.38	12.8498
2354.61	12.8475
2354.84	15.6972
2355.07	17.5957
2355.31	9.0402
2355.54	13.7908
2355.77	14.7377
2356	10.9359
2356.23	14.7347
2356.46	11.8839
2356.7	15.6814
2356.93	13.7792
2357.16	14.7254
2357.39	12.8233
2357.62	14.718
2357.86	12.8169
2358.09	13.7621
2358.32	16.6035
2358.55	14.7029
2358.78	13.7511
2359.01	14.6949
2359.25	15.6378
2359.48	15.6334
2359.71	10.8953
2359.94	14.6796
2360.17	15.6232
2360.4	13.7279
2360.63	13.726
2360.87	14.6704
2361.1	13.7223
2361.33	11.8283
2361.56	17.5009
2361.79	11.8243
2362.02	13.7139
2362.26	13.711
2362.49	14.6531
2362.72	17.4801
2362.95	12.7485
2363.18	11.7985
2363.41	15.5711
2363.64	14.6266
2363.88	15.5711
2364.11	11.8016
2364.34	14.6423
2364.57	11.8136
2364.8	14.6471
