#Acq. time (s)=	30
#Accumulations=	2
#Range (cm-¹)=	1200...2365
#Windows=	3
#Auto scanning=	Off
#Autofocus=	Off
#Macrospot=	Off
#AutoExposure=	Off
#Spike filter=	Multiple accum.
#Delay time (s)=	2
#Binning=	1
#Readout mode=	Signal
#DeNoise=	Off
#ICS correction=	On
#Dark correction=	Off
#Inst. Process=	Off
#Detector Gain=	Best Dynamic
#Detector ADC=	50 kHz HS
#Detector temperature (°C)=	-60.09
#Instrument=	LabRAM HR Evol
#Detector=	SIN-EM FIVIS
#Objective=	x100_VIS_LWD
#Grating=	1800 (450-850nm)
#ND Filter=	100%
#Laser=	532nm_Edge
#Hole=	49.98
#Temperature=	0
#Range=	Visible
#StageXY=	75x50mm Scan+
#StageZ=	Z motor
#X (µm)=	0
#Y (µm)=	0
#Z (µm)=	58.6
#Full time(mm:ss)=	3:23
#Project=	21_11_22
#Sample=	BU19w
#Site=	
#Title=	BU19w-D-FF2-FI07-V_1800 (450-850nm)_532nm_Edge_100%_x100_VIS_LWD_H50um_30sX2
#Remark=	
#Date=	22.11.2021 13:19
#Acquired=	22.11.2021 13:19:23
1202.84	47.7768
1203.12	49.8998
1203.4	41.2954
1203.67	46.6364
1203.95	41.2565
1204.23	50.8803
1204.51	45.5118
1204.78	41.2185
1205.06	43.3519
1205.34	46.5542
1205.62	43.331
1205.9	42.2491
1206.17	48.6542
1206.45	42.232
1206.73	51.8521
1207.01	46.5026
1207.29	48.6316
1207.56	42.2022
1207.84	46.457
1208.12	48.5767
1208.39	49.6262
1208.67	47.4768
1208.95	54.9242
1209.23	46.3739
1209.51	50.6236
1209.78	45.2815
1210.06	49.5286
1210.34	45.2581
1210.62	44.1871
1210.89	40.9842
1211.17	47.3723
1211.45	45.2448
1211.72	46.3102
1212	46.3099
1212.28	45.2436
1212.56	44.1767
1212.84	40.9805
1213.11	46.2918
1213.39	44.1482
1213.67	40.9387
1213.94	44.1107
1214.22	38.7836
1214.5	43.022
1214.78	44.0711
1215.05	44.0607
1215.33	37.6815
1215.61	42.9796
1215.89	38.7293
1216.16	39.7878
1216.44	42.9669
1216.72	41.9014
1216.99	44.0143
1217.27	40.8303
1217.55	40.8309
1217.83	46.1315
1218.1	40.8252
1218.38	42.9382
1218.66	34.4499
1218.93	39.7397
1219.21	40.784
1219.49	45.0014
1219.77	38.6283
1220.04	36.4935
1220.32	36.4771
1220.6	40.6889
1220.88	43.845
1221.15	43.8289
1221.43	41.7054
1221.71	39.5859
1221.98	40.6354
1222.26	35.3558
1222.54	44.86
1222.81	41.6982
1223.09	42.7591
1223.37	42.758
1223.64	41.6989
1223.92	48.0256
1224.2	39.5733
1224.48	50.1047
1224.75	47.9516
1225.03	43.7065
1225.31	45.7867
1225.58	40.4867
1225.86	44.6583
1226.14	46.752
1226.41	46.8513
1226.69	46.9556
1226.97	51.1473
1227.24	48.9903
1227.52	47.9156
1227.8	54.2405
1228.07	50.0062
1228.35	56.208
1228.63	53.0596
1228.9	58.3131
1229.18	60.4134
1229.46	66.7094
1229.73	61.4546
1230.01	68.8057
1230.29	66.6973
1230.56	75.0982
1230.84	71.9503
1231.12	76.159
1231.39	78.2675
1231.67	80.3799
1231.95	91.9556
1232.22	94.065
1232.5	95.1243
1232.78	95.1362
1233.05	91.9907
1233.33	91.9907
1233.61	101.441
1233.88	100.374
1234.16	89.8453
1234.43	90.8659
1234.71	100.285
1234.99	93.9504
1235.26	83.4221
1235.54	79.1952
1235.82	83.3665
1236.09	83.3515
1236.37	72.8554
1236.65	79.1372
1236.92	66.5527
1237.2	67.5984
1237.47	66.5495
1237.75	69.6957
1238.03	70.7473
1238.3	66.5571
1238.58	65.5046
1238.85	61.3002
1239.13	61.2922
1239.41	56.0524
1239.68	55.0083
1239.96	53.9663
1240.24	61.3127
1240.51	56.0713
1240.79	61.3121
1241.06	53.9777
1241.34	57.123
1241.62	48.733
1241.89	57.1139
1242.17	59.1986
1242.45	52.8971
1242.72	47.643
1243	53.9084
1243.27	49.7118
1243.55	61.222
1243.83	57.0342
1244.1	61.2206
1244.38	58.0759
1244.65	63.3067
1244.93	50.7431
1245.2	61.1879
1245.48	60.1272
1245.76	67.4445
1246.03	66.4015
1246.31	67.4525
1246.59	71.6332
1246.86	69.5381
1247.14	69.5385
1247.41	73.7093
1247.69	68.4629
1247.96	69.4923
1248.24	71.5684
1248.51	83.0485
1248.79	78.8556
1249.07	79.8856
1249.34	84.0478
1249.62	82.988
1249.89	80.8831
1250.17	87.1291
1250.45	91.2934
1250.72	96.5099
1251	80.8686
1251.27	78.7957
1251.55	88.209
1251.82	89.2623
1252.1	81.9538
1252.38	79.8711
1252.65	83.0046
1252.93	86.1331
1253.2	81.9591
1253.48	81.9649
1253.75	75.7101
1254.03	78.8484
1254.3	83.0234
1254.58	71.5232
1254.86	74.6494
1255.13	66.2902
1255.41	69.4169
1255.68	70.4546
1255.96	64.1737
1256.23	69.3888
1256.51	69.3976
1256.78	62.0955
1257.06	65.2613
1257.33	64.1997
1257.61	63.1418
1257.88	68.3356
1258.16	65.1883
1258.44	63.0909
1258.71	58.9197
1258.99	57.9256
1259.26	63.2229
1259.54	53.8744
1259.81	57.96
1260.09	57.8907
1260.36	58.8894
1260.64	59.9926
1260.91	58.9947
1261.19	62.1815
1261.46	60.1373
1261.74	58.0054
1262.01	68.4401
1262.29	67.3938
1262.56	71.5712
1262.84	88.274
1263.11	83.0482
1263.39	96.6374
1263.66	98.7397
1263.94	97.7123
1264.21	94.5979
1264.49	81.0281
1264.76	68.4986
1265.04	62.2421
1265.31	64.3622
1265.59	50.7734
1265.86	52.8787
1266.14	50.792
1266.41	50.7987
1266.69	46.6063
1266.96	52.8815
1267.24	53.9132
1267.51	55.9947
1267.79	44.4674
1268.06	44.4591
1268.34	46.5484
1268.61	45.4964
1268.89	44.4518
1269.16	43.4147
1269.44	45.5206
1269.71	45.5372
1269.99	45.5499
1270.26	45.5617
1270.54	49.7664
1270.81	45.5858
1271.09	44.5491
1271.36	47.7036
1271.64	48.7555
1271.91	47.7051
1272.18	46.656
1272.46	45.6114
1272.74	41.4218
1273.01	45.6264
1273.28	46.6866
1273.56	38.297
1273.83	40.4043
1274.11	47.7612
1274.38	46.7219
1274.66	46.7333
1274.93	49.8974
1275.21	46.754
1275.48	42.557
1275.76	49.9309
1276.03	46.7836
1276.3	44.6885
1276.58	48.8941
1276.85	47.8385
1277.13	48.8841
1277.4	48.8814
1277.68	44.6781
1277.95	46.7851
1278.23	49.9525
1278.5	53.1264
1278.77	49.9772
1279.05	57.3435
1279.32	58.4008
1279.6	53.1454
1279.87	57.3487
1280.15	66.7954
1280.42	68.8359
1280.69	71.9577
1280.97	73.0111
1281.24	90.888
1281.52	103.748
1281.79	110.089
1282.07	155.408
1282.34	213.262
1282.61	257.399
1282.89	398.472
1283.16	556.525
1283.44	796.662
1283.71	1066.03
1283.99	1080.76
1284.26	803.809
1284.53	492.106
1284.81	280.466
1285.08	198.347
1285.36	139.412
1285.63	105.74
1285.9	88.907
1286.18	76.2886
1286.45	66.8272
1286.73	67.8923
1287	67.9063
1287.28	65.8121
1287.55	54.2262
1287.82	56.3266
1288.1	59.4828
1288.37	52.1092
1288.64	53.1619
1288.92	46.8411
1289.19	50.0003
1289.47	54.2166
1289.74	50.002
1290.01	47.8911
1290.29	48.9459
1290.56	48.9598
1290.84	42.657
1291.11	45.8379
1291.38	43.737
1291.66	43.7365
1291.93	51.1157
1292.21	50.0675
1292.48	45.8676
1292.75	44.8365
1293.03	38.5293
1293.3	40.6614
1293.57	41.7237
1293.85	42.7819
1294.12	43.8351
1294.4	41.7142
1294.67	44.8755
1294.94	36.4151
1295.22	43.7978
1295.49	43.8004
1295.76	37.4626
1296.04	38.5123
1296.31	40.6184
1296.58	41.6677
1296.86	40.6108
1297.13	39.5613
1297.4	39.5659
1297.68	37.4556
1297.95	39.5659
1298.22	41.6759
1298.5	37.4541
1298.77	38.5159
1299.04	38.5221
1299.32	39.582
1299.59	41.6961
1299.87	37.4704
1300.14	42.7496
1300.41	34.2959
1300.69	36.402
1300.96	39.5678
1301.23	38.5125
1301.51	38.5127
1301.78	38.5123
1302.05	38.5081
1302.33	34.279
1302.6	33.216
1302.87	39.5397
1303.15	35.3103
1303.42	40.5766
1303.69	34.2449
1303.97	38.4627
1304.24	36.3568
1304.51	39.5224
1304.79	34.2482
1305.06	36.357
1305.33	38.4692
1305.6	37.4117
1305.88	39.5227
1306.15	34.2544
1306.42	38.4795
1306.7	35.3195
1306.97	38.4894
1307.24	36.378
1307.52	39.5412
1307.79	35.32
1308.06	37.432
1308.34	34.268
1308.61	36.3804
1308.88	39.5494
1309.15	33.2221
1309.43	39.5623
1309.7	37.4535
1309.97	40.6206
1310.25	35.3352
1310.52	30.055
1310.79	37.4419
1311.06	33.2168
1311.34	38.4941
1311.61	34.2738
1311.88	40.6111
1312.16	40.6161
1312.43	32.1735
1312.7	36.402
1312.98	32.1819
1313.25	34.2936
1313.52	34.2914
1313.79	33.2338
1314.07	32.1767
1314.34	33.2327
1314.61	38.5178
1314.89	32.184
1315.16	35.3553
1315.43	37.4697
1315.7	32.1883
1315.98	34.3014
1316.25	32.1877
1316.52	34.2992
1316.79	34.2979
1317.07	37.4692
1317.34	37.4699
1317.61	34.299
1317.88	31.1256
1318.16	36.3991
1318.43	33.2218
1318.7	34.2664
1318.97	34.2604
1319.25	35.3053
1319.52	35.3004
1319.79	34.2408
1320.06	34.2362
1320.34	31.0654
1320.61	34.2324
1320.88	35.2884
1321.16	31.0714
1321.43	28.9613
1321.7	38.4522
1321.97	25.7974
1322.25	32.127
1322.52	34.2281
1322.79	33.1592
1323.06	31.0348
1323.33	33.1161
1323.61	36.2621
1323.88	29.9459
1324.15	33.1109
1324.42	35.2402
1324.7	31.039
1324.97	34.2111
1325.24	30.0074
1325.51	30.0193
1325.79	32.139
1326.06	35.3091
1326.33	37.4129
1326.6	30.0322
1326.87	34.2511
1327.15	33.1936
1327.42	33.1894
1327.69	34.2382
1327.96	33.1759
1328.23	35.2743
1328.51	28.939
1328.78	31.0326
1329.05	33.1272
1329.32	28.9078
1329.6	33.1081
1329.87	35.2007
1330.14	34.1365
1330.41	30.9718
1330.68	35.1657
1330.96	29.9028
1331.23	29.8944
1331.5	35.1366
1331.77	29.8792
1332.04	35.1204
1332.32	31.9656
1332.59	31.9595
1332.86	37.1985
1333.13	29.8509
1333.4	31.9436
1333.67	29.8423
1333.95	30.8871
1334.22	31.9323
1334.49	35.0741
1334.76	34.0223
1335.03	34.0146
1335.3	36.1013
1335.58	30.8589
1335.85	33.9956
1336.12	30.8501
1336.39	35.0373
1336.66	31.8969
1336.94	27.71
1337.21	29.8051
1337.48	29.806
1337.75	30.8544
1338.02	32.9484
1338.29	32.947
1338.57	32.9447
1338.84	30.8471
1339.11	30.8423
1339.38	33.9758
1339.65	30.8278
1339.93	36.0502
1340.2	32.9067
1340.47	36.0417
1340.74	32.9028
1341.01	33.9483
1341.28	28.7195
1341.55	34.9947
1341.82	32.9003
1342.1	32.8951
1342.37	34.9786
1342.64	32.8778
1342.91	27.6452
1343.18	32.8585
1343.45	32.8427
1343.73	30.7441
1344	32.8215
1344.27	34.8973
1344.54	33.8448
1344.81	31.7532
1345.08	39.0454
1345.35	30.7038
1345.63	29.6593
1345.9	29.6549
1346.17	30.6913
1346.44	30.6853
1346.71	34.8453
1346.98	32.7565
1347.25	29.6274
1347.52	31.7038
1347.8	29.6149
1348.07	33.769
1348.34	28.5621
1348.61	34.7946
1348.88	35.8312
1349.15	33.7505
1349.42	29.5942
1349.69	29.6002
1349.96	32.7308
1350.24	31.694
1350.51	30.6779
1350.78	31.7537
1351.05	34.8518
1351.32	31.6784
1351.59	33.72
1351.86	31.6455
1352.13	30.6104
1352.41	26.4449
1352.68	27.477
1352.95	31.6407
1353.22	31.6458
1353.49	29.5607
1353.76	32.6738
1354.03	29.555
1354.3	33.7062
1354.57	33.7019
1354.84	33.6967
1355.11	33.6909
1355.39	32.6469
1355.66	32.6413
1355.93	27.4475
1356.2	34.7029
1356.47	33.6607
1356.74	37.8043
1357.01	33.6483
1357.28	37.7839
1357.55	36.7372
1357.82	32.586
1358.09	33.6189
1358.36	34.654
1358.63	34.6529
1358.9	33.6151
1359.18	34.647
1359.45	35.6786
1359.72	37.746
1359.99	34.6381
1360.26	34.6399
1360.53	34.6455
1360.8	31.5429
1361.07	36.726
1361.34	35.6903
1361.61	36.7238
1361.88	33.6129
1362.15	34.6426
1362.42	34.635
1362.69	37.732
1362.97	39.7931
1363.24	37.7149
1363.51	33.5687
1363.78	36.6614
1364.05	32.514
1364.32	41.81
1364.59	39.7389
1364.86	41.8102
1365.13	40.7802
1365.4	38.7152
1365.67	37.6838
1365.94	37.686
1366.21	39.7568
1366.48	38.7256
1366.75	36.6539
1367.02	32.5145
1367.29	40.78
1367.56	37.6698
1367.83	38.6976
1368.1	37.6577
1368.37	44.8771
1368.64	55.187
1368.91	76.8389
1369.18	82.9998
1369.45	48.9374
1369.72	40.6758
1369.99	39.6376
1370.26	40.6629
1370.54	34.4742
1370.81	36.5315
1371.08	37.5587
1371.34	39.6167
1371.62	39.614
1371.89	37.5507
1372.16	30.3355
1372.43	39.6069
1372.7	42.7026
1372.97	40.6412
1373.24	37.5534
1373.51	33.4241
1373.78	35.4756
1374.05	40.6115
1374.32	37.5057
1374.59	34.4227
1374.86	42.6657
1375.13	44.7415
1375.4	38.5816
1375.67	37.5735
1375.94	44.7976
1376.21	40.6724
1376.48	40.6671
1376.75	41.6922
1377.02	40.6535
1377.29	42.6984
1377.56	44.7209
1377.83	47.7871
1378.09	41.5957
1378.36	48.8044
1378.64	47.7645
1378.91	44.659
1379.18	51.828
1379.44	46.6715
1379.71	48.7079
1379.98	47.6624
1380.25	51.7528
1380.52	55.8392
1380.79	50.7026
1381.06	52.7448
1381.33	51.7212
1381.6	55.8264
1381.87	54.8109
1382.14	56.8762
1382.41	58.9518
1382.68	56.9143
1382.95	60.0079
1383.22	66.1759
1383.49	71.3254
1383.76	70.3055
1384.03	67.224
1384.3	84.6325
1384.57	98.8119
1384.84	105.801
1385.11	126.158
1385.38	146.756
1385.65	200.274
1385.92	276.44
1386.19	402.929
1386.45	694.545
1386.72	1260.49
1386.99	2087.57
1387.26	2191.69
1387.53	1334.45
1387.8	632.117
1388.07	352.02
1388.34	221.827
1388.61	150.076
1388.88	117.257
1389.15	92.6433
1389.42	91.5983
1389.69	78.272
1389.96	75.1899
1390.23	69.0394
1390.49	61.8677
1390.76	53.6745
1391.03	58.7869
1391.3	49.5731
1391.57	57.7559
1391.84	51.6143
1392.11	48.5491
1392.38	49.5808
1392.65	47.5398
1392.92	45.4951
1393.19	48.5649
1393.46	42.4197
1393.73	42.4148
1393.99	46.5027
1394.26	44.4481
1394.53	45.4627
1394.8	45.458
1395.07	47.5029
1395.34	44.4372
1395.61	43.4192
1395.88	41.3764
1396.15	42.4018
1396.42	42.4085
1396.68	44.4603
1396.95	39.347
1397.22	41.394
1397.49	38.3283
1397.76	36.2898
1398.03	43.4628
1398.3	42.4378
1398.57	37.3217
1398.84	35.2736
1399.11	44.5045
1399.38	38.3788
1399.64	34.2995
1399.91	37.3935
1400.18	40.4852
1400.45	41.5186
1400.72	44.5996
1400.99	43.5651
1401.26	43.5403
1401.53	40.4678
1401.79	39.4388
1402.06	38.4085
1402.33	36.3506
1402.6	39.4203
1402.87	45.5651
1403.14	39.4069
1403.41	36.3277
1403.68	37.3494
1403.94	41.451
1404.21	37.3538
1404.48	40.4325
1404.75	41.4602
1405.02	40.4375
1405.29	40.4398
1405.56	39.4168
1405.82	45.5726
1406.09	46.6024
1406.36	52.7603
1406.63	45.5844
1406.9	51.742
1407.17	66.1048
1407.44	73.2719
1407.7	94.7854
1407.97	103.981
1408.24	126.503
1408.51	135.703
1408.78	135.685
1409.05	104.945
1409.31	86.5164
1409.58	75.2662
1409.85	54.7996
1410.12	51.7858
1410.39	45.6586
1410.66	40.4947
1410.92	40.436
1411.19	38.3923
1411.46	32.2608
1411.73	33.3046
1412	35.3553
1412.27	33.3035
1412.53	37.4104
1412.8	34.3313
1413.07	38.4413
1413.34	32.2836
1413.61	29.2058
1413.88	33.3173
1414.14	36.403
1414.41	33.3254
1414.68	29.2192
1414.95	29.2211
1415.22	32.3045
1415.48	32.3057
1415.75	32.3076
1416.02	32.3079
1416.29	30.2535
1416.56	33.3335
1416.82	29.2178
1417.09	30.2391
1417.36	33.3149
1417.63	31.2545
1417.9	29.1946
1418.17	28.1627
1418.43	32.2654
1418.7	27.1349
1418.97	32.2749
1419.24	34.3404
1419.5	30.2419
1419.77	31.2858
1420.04	31.3113
1420.31	29.2809
1420.58	28.1978
1420.84	28.1244
1421.11	31.2137
1421.38	29.1349
1421.65	30.1553
1421.92	28.1173
1422.18	29.1579
1422.45	31.2197
1422.72	29.1596
1422.99	30.1976
1423.26	32.2471
1423.52	31.2163
1423.79	26.0813
1424.06	33.2503
1424.33	31.191
1424.59	28.1056
1424.86	21.9513
1425.13	31.1631
1425.4	29.1132
1425.66	28.0897
1425.93	27.0674
1426.2	30.1418
1426.47	26.0486
1426.73	29.1256
1427	28.1073
1427.27	25.0402
1427.54	27.0959
1427.81	30.1798
1428.07	25.0639
1428.34	27.1253
1428.61	30.2094
1428.88	26.1045
1429.14	27.1264
1429.41	24.0421
1429.68	25.0641
1429.94	25.0571
1430.21	28.1233
1430.48	25.0374
1430.75	25.0276
1431.02	26.0453
1431.28	25.0185
1431.55	29.1264
1431.82	24.0106
1432.08	25.0364
1432.35	26.0614
1432.62	22.9868
1432.89	26.0598
1433.15	29.1322
1433.42	26.0566
1433.69	25.0298
1433.96	25.0275
1434.22	21.9525
1434.49	24.0003
1434.76	25.0221
1435.02	21.9484
1435.29	22.9735
1435.56	21.9527
1435.83	20.9304
1436.09	24.0046
1436.36	19.9078
1436.63	22.9848
1436.89	22.9899
1437.16	19.9207
1437.43	24.0249
1437.7	23.0011
1437.96	21.9761
1438.23	20.9519
1438.5	21.976
1438.77	26.0736
1439.03	22.9956
1439.3	29.1525
1439.57	21.9754
1439.83	26.0825
1440.1	20.9519
1440.37	25.0499
1440.63	22.9958
1440.9	25.0438
1441.17	21.9675
1441.43	24.0188
1441.7	20.9495
1441.97	23.0058
1442.24	21.9878
1442.5	19.9341
1442.77	21.984
1443.03	20.9564
1443.3	24.0318
1443.57	21.9788
1443.84	24.0283
1444.1	19.9245
1444.37	21.9734
1444.64	20.9453
1444.9	17.8676
1445.17	16.8421
1445.44	20.9463
1445.7	20.9513
1445.97	21.9784
1446.24	21.9782
1446.5	21.9765
1446.77	22.9992
1447.04	19.9196
1447.3	19.9162
1447.57	20.9396
1447.84	18.888
1448.1	19.9115
1448.37	17.8602
1448.64	18.8831
1448.9	20.9305
1449.17	18.8798
1449.44	24.0015
1449.7	17.8547
1449.97	22.9784
1450.24	20.9316
1450.5	20.9337
1450.77	21.9589
1451.04	18.8831
1451.3	17.8573
1451.57	20.9314
1451.83	19.9068
1452.1	17.8569
1452.37	19.905
1452.63	18.8805
1452.9	21.9583
1453.17	18.8857
1453.43	20.9357
1453.7	19.9092
1453.97	17.8565
1454.23	17.8535
1454.5	19.9011
1454.77	16.8266
1455.03	20.9233
1455.3	18.8747
1455.56	18.8751
1455.83	17.8517
1456.1	19.9016
1456.36	18.8778
1456.63	17.8537
1456.9	18.8776
1457.16	17.8519
1457.43	21.9484
1457.69	16.8248
1457.96	17.8473
1458.23	15.7967
1458.49	18.8667
1458.76	18.864
1459.02	21.9319
1459.29	17.8339
1459.56	20.9003
1459.82	17.8265
1460.09	17.8224
1460.36	19.8634
1460.62	14.7471
1460.89	20.8805
1461.15	20.8864
1461.42	18.85
1461.69	19.8803
1461.95	17.8412
1462.22	18.8544
1462.48	18.8186
1462.75	19.8233
1463.02	20.8407
1463.28	17.785
1463.55	17.784
1463.81	17.7762
1464.08	17.7731
1464.35	16.7548
1464.61	18.7941
1464.88	19.8129
1465.14	19.8119
1465.41	14.7113
1465.67	18.7911
1465.94	17.7701
1466.21	18.7882
1466.47	16.7464
1466.74	15.7237
1467	18.778
1467.27	16.736
1467.54	14.6956
1467.8	19.7884
1468.07	20.8057
1468.33	15.7095
1468.6	20.7989
1468.86	17.7409
1469.13	16.7212
1469.39	16.7205
1469.66	16.72
1469.93	16.7195
1470.19	15.7002
1470.46	18.7519
1470.72	15.6955
1470.99	16.7113
1471.25	16.71
1471.52	17.7275
1471.79	17.7289
1472.05	16.7124
1472.32	17.7304
1472.58	16.712
1472.85	18.746
1473.11	17.7259
1473.38	16.7066
1473.64	16.7051
1473.91	18.737
1474.17	17.7168
1474.44	14.6642
1474.71	18.7315
1474.97	18.731
1475.24	22.7962
1475.5	17.7086
1475.77	18.7225
1476.03	15.6706
1476.3	17.7003
1476.56	14.649
1476.83	15.6616
1477.09	16.6738
1477.36	18.6984
1477.62	16.6631
1477.89	15.6449
1478.15	16.658
1478.42	18.6842
1478.68	17.671
1478.95	14.6296
1479.22	15.6471
1479.48	17.6804
1479.75	13.6221
1480.01	13.6221
1480.28	16.6698
1480.54	18.7019
1480.81	17.6865
1481.07	14.6396
1481.34	18.6941
1481.6	19.6985
1481.87	17.6511
1482.13	14.5907
1482.4	16.6068
1482.66	16.5923
1482.93	17.6439
1483.19	18.6626
1483.46	15.6294
1483.72	16.6245
1483.99	15.6198
1484.25	15.6226
1484.52	16.631
1484.78	16.627
1485.05	17.6374
1485.31	15.6094
1485.58	16.6183
1485.84	16.6142
1486.11	16.611
1486.37	17.621
1486.64	13.5724
1486.9	17.6181
1487.17	18.6296
1487.43	17.6177
1487.7	16.604
1487.96	14.578
1488.22	16.5973
1488.49	16.5956
1488.75	17.6058
1489.02	15.5836
1489.28	17.6064
1489.55	18.6168
1489.81	14.5719
1490.08	18.6151
1490.34	14.5713
1490.61	16.592
1490.87	18.6129
1491.14	18.613
1491.4	18.6141
1491.67	18.6158
1491.93	16.5932
1492.19	14.569
1492.46	15.5752
1492.72	15.5695
1492.99	13.5452
1493.25	15.562
1493.52	15.5598
1493.78	15.5579
1494.05	17.5741
1494.31	17.5739
1494.58	15.5552
1494.84	14.545
1495.1	16.563
1495.37	19.5907
1495.63	17.5726
1495.9	13.5361
1496.16	17.5738
1496.43	18.5842
1496.69	13.5385
1496.96	18.5874
1497.22	17.5784
1497.48	15.5591
1497.75	18.5872
1498.01	20.6056
1498.28	14.547
1498.54	16.5625
1498.81	17.5705
1499.07	16.5608
1499.34	16.5601
1499.6	15.5496
1499.86	15.5463
1500.13	17.5602
1500.39	16.5497
1500.66	20.5798
1500.92	16.5463
1501.18	14.5311
1501.45	15.5402
1501.71	16.5487
1501.98	15.5395
1502.24	16.5462
1502.5	15.5355
1502.77	17.5471
1503.03	18.548
1503.3	17.5392
1503.56	13.5089
1503.83	16.5317
1504.09	17.5417
1504.35	15.527
1504.62	14.52
1504.88	18.5507
1505.15	16.5341
1505.41	17.5407
1505.67	18.5485
1505.94	15.5262
1506.2	17.5417
1506.47	15.5262
1506.73	18.5489
1506.99	18.5507
1507.26	16.5366
1507.52	19.5562
1507.78	18.545
1508.05	16.5263
1508.31	14.5078
1508.58	17.5217
1508.84	15.5004
1509.1	16.4978
1509.37	15.4846
1509.63	15.4779
1509.9	17.4825
1510.16	17.4784
1510.42	17.475
1510.69	19.481
1510.95	16.473
1511.21	16.4794
1511.48	13.4676
1511.74	16.4793
1512.01	18.4841
1512.27	17.4751
1512.53	17.4706
1512.8	16.4619
1513.06	16.4569
1513.32	16.4533
1513.59	14.446
1513.85	16.4502
1514.11	16.4491
1514.38	15.4459
1514.64	14.4435
1514.9	15.4471
1515.17	15.4498
1515.43	16.4536
1515.7	14.4487
1515.96	15.4526
1516.22	17.4602
1516.49	13.4485
1516.75	17.4623
1517.01	15.4554
1517.28	16.4571
1517.54	16.4559
1517.8	13.4472
1518.07	14.4517
1518.33	16.4597
1518.59	13.45
1518.86	16.4596
1519.12	17.4614
1519.38	15.453
1519.65	16.4542
1519.91	15.4495
1520.17	18.4553
1520.44	17.4473
1520.7	15.4362
1520.96	15.432
1521.23	16.4303
1521.49	15.4259
1521.75	15.4234
1522.02	16.4263
1522.28	16.4271
1522.54	20.4337
1522.81	18.4332
1523.07	15.431
1523.33	18.4414
1523.59	16.4405
1523.86	16.4419
1524.12	18.4463
1524.38	15.4368
1524.65	13.4314
1524.91	19.4428
1525.17	16.4352
1525.44	17.435
1525.7	17.4331
1525.96	13.4246
1526.23	15.4272
1526.49	16.4285
1526.75	16.4274
1527.02	19.4289
1527.28	15.4225
1527.54	15.4238
1527.8	17.4301
1528.07	14.4281
1528.33	16.4343
1528.59	16.4347
1528.86	15.4315
1529.12	17.436
1529.38	15.4297
1529.64	16.4334
1529.91	17.4399
1530.17	14.4383
1530.43	17.4516
1530.69	16.4509
1530.96	16.4523
1531.22	16.4521
1531.48	19.4604
1531.75	15.4468
1532.01	16.448
1532.27	16.4465
1532.53	17.4462
1532.8	18.4395
1533.06	15.4283
1533.32	15.4248
1533.59	20.426
1533.85	14.4127
1534.11	14.4078
1534.37	17.4073
1534.64	17.403
1534.9	16.403
1535.16	17.3998
1535.42	16.3944
1535.69	13.3938
1535.95	17.3904
1536.21	16.3951
1536.48	17.4047
1536.74	15.4152
1537	17.4262
1537.26	16.4314
1537.53	15.4361
1537.79	15.4403
1538.05	18.4509
1538.31	15.4356
1538.58	17.4397
1538.84	16.4328
1539.1	16.4287
1539.36	18.4278
1539.62	17.4218
1539.89	15.4153
1540.15	12.409
1540.41	15.408
1540.67	17.4038
1540.94	15.3975
1541.2	16.3982
1541.46	17.3992
1541.72	16.4024
1541.98	16.4073
1542.25	18.4124
1542.51	17.4185
1542.77	20.4267
1543.03	19.4277
1543.3	14.4213
1543.56	13.4187
1543.82	17.4261
1544.08	16.4262
1544.35	15.4261
1544.61	16.4298
1544.87	16.4265
1545.13	16.4176
1545.39	18.4202
1545.66	13.4139
1545.92	15.4217
1546.18	14.4069
1546.44	15.3914
1546.71	15.3875
1546.97	16.3959
1547.23	16.4126
1547.49	14.4324
1547.75	15.4516
1548.02	15.4676
1548.28	17.4647
1548.54	15.4582
1548.8	16.4592
1549.06	16.4536
1549.33	14.4527
1549.59	18.4767
1549.85	15.4612
1550.11	16.4611
1550.37	17.4521
1550.64	18.4524
1550.9	17.4477
1551.16	17.4442
1551.42	20.447
1551.68	17.4334
1551.94	19.4308
1552.21	18.4265
1552.47	20.4286
1552.73	18.425
1552.99	18.426
1553.25	17.4245
1553.52	20.4266
1553.78	16.4202
1554.04	18.4246
1554.3	17.4239
1554.56	19.4277
1554.82	17.4231
1555.09	17.42
1555.35	17.4144
1555.61	14.407
1555.87	20.4061
1556.13	16.3983
1556.39	15.3938
1556.65	15.3903
1556.92	16.3872
1557.18	18.384
1557.44	14.3841
1557.7	13.3835
1557.96	19.3786
1558.22	19.3783
1558.49	17.3807
1558.75	16.3843
1559.01	15.3887
1559.27	16.3935
1559.53	14.3933
1559.79	20.3932
1560.05	16.3913
1560.32	19.3924
1560.58	15.3905
1560.84	15.3893
1561.1	17.3951
1561.36	18.4026
1561.62	17.4041
1561.88	19.4044
1562.15	15.3934
1562.41	14.368
1562.67	15.329
1562.93	20.281
1563.19	18.3677
1563.45	15.3905
1563.71	14.3831
1563.98	19.3673
1564.24	15.3842
1564.5	19.4004
1564.76	15.3948
1565.02	21.3814
1565.28	16.3852
1565.54	20.387
1565.8	15.3886
1566.07	16.387
1566.33	16.3809
1566.59	15.3779
1566.85	19.3751
1567.11	16.3785
1567.37	16.3788
1567.63	16.379
1567.89	15.3792
1568.15	18.3765
1568.42	18.3748
1568.68	16.3736
1568.94	19.3674
1569.2	15.3711
1569.46	17.3667
1569.72	18.3618
1569.98	17.3606
1570.24	15.3615
1570.5	17.3551
1570.77	16.3546
1571.03	17.3528
1571.29	18.354
1571.55	16.3613
1571.81	16.3652
1572.07	16.3692
1572.33	18.3714
1572.59	16.376
1572.85	16.3768
1573.11	19.3734
1573.37	18.3737
1573.64	19.3708
1573.9	14.3703
1574.16	15.3632
1574.42	18.352
1574.68	17.3478
1574.94	19.3371
1575.2	17.3369
1575.46	19.3276
1575.72	17.3324
1575.98	16.3353
1576.24	20.3227
1576.5	15.3382
1576.76	17.3329
1577.03	16.3382
1577.29	19.331
1577.55	17.3368
1577.81	19.3304
1578.07	19.3281
1578.33	17.3312
1578.59	18.3256
1578.85	17.3252
1579.11	18.3178
1579.37	15.3275
1579.63	15.3263
1579.89	15.325
1580.15	19.3084
1580.41	19.3077
1580.67	19.3072
1580.93	17.3133
1581.19	18.309
1581.46	17.3145
1581.72	18.3117
1581.98	15.324
1582.24	19.3082
1582.5	13.3307
1582.76	18.3105
1583.02	17.3127
1583.28	16.3129
1583.54	19.2952
1583.8	15.3105
1584.06	20.2841
1584.32	18.2918
1584.58	18.2901
1584.84	16.2993
1585.1	17.2942
1585.36	17.2955
1585.62	18.2925
1585.88	15.3093
1586.14	16.3065
1586.4	18.2995
1586.66	20.2923
1586.92	18.3017
1587.18	16.3103
1587.44	17.3072
1587.7	17.3091
1587.96	16.3148
1588.22	21.2936
1588.48	16.314
1588.74	18.3045
1589	14.3197
1589.26	18.2984
1589.52	15.307
1589.78	18.2881
1590.04	18.2853
1590.3	15.2952
1590.56	17.2771
1590.82	20.2508
1591.08	19.2521
1591.34	16.2696
1591.6	16.2695
1591.86	14.2846
1592.12	16.2745
1592.38	17.2703
1592.64	13.2956
1592.9	15.2758
1593.16	19.2483
1593.42	19.2482
1593.68	16.2686
1593.94	17.2623
1594.2	17.2635
1594.46	17.2649
1594.72	15.2793
1594.98	18.2593
1595.24	18.2574
1595.5	18.2541
1595.76	17.2561
1596.02	16.2591
1596.28	18.241
1596.54	18.2379
1596.8	16.2503
1597.06	15.2555
1597.32	17.2366
1597.58	14.2582
1597.84	16.2374
1598.1	17.2234
1598.36	18.2084
1598.62	15.231
1598.88	17.2072
1599.14	15.2235
1599.4	17.2001
1599.66	17.1963
1599.92	18.1814
1600.18	14.2207
1600.44	16.1959
1600.7	17.1826
1600.96	16.1923
1601.22	15.2031
1601.48	18.1695
1601.73	17.1811
1601.99	18.17
1602.25	17.1815
1602.51	15.2044
1602.77	18.1723
1603.03	19.1633
1603.29	18.1765
1603.55	14.2217
1603.81	20.1594
1604.07	20.161
1604.33	16.2035
1604.59	17.1927
1604.85	15.2131
1605.11	16.2022
1605.37	16.2019
1605.63	17.1909
1605.89	13.2322
1606.14	18.1741
1606.4	16.1909
1606.66	18.1638
1606.92	19.1467
1607.18	18.1346
1607.44	18.1689
1607.7	16.2134
1607.96	16.224
1608.22	18.9268
1608.48	19.9523
1608.74	16.2069
1609	16.9756
1609.26	17.1654
1609.51	15.9793
1609.77	13.6401
1610.03	14.4193
1610.29	16.1081
1610.55	16.3321
1610.81	17.2361
1611.07	16.2872
1611.33	17.0703
1611.59	16.1232
1611.85	15.4279
1612.11	18.772
1612.36	18.0382
1612.62	16.1887
1612.88	18.4698
1613.14	17.2059
1613.4	15.8312
1613.66	16.5789
1613.92	19.6116
1614.18	16.5313
1614.44	17.5162
1614.7	17.2683
1614.95	16.4038
1615.21	17.1315
1615.47	16.4588
1615.73	18.7627
1615.99	16.7198
1616.25	17.347
1616.51	14.7279
1616.77	16.9873
1617.03	17.5358
1617.28	16.7449
1617.54	16.5175
1617.8	14.6467
1618.06	16.8596
1618.32	16.5814
1618.58	16.5879
1618.84	14.3674
1619.1	14.8343
1619.35	15.4143
1619.61	16.3581
1619.87	16.9982
1620.13	16.9552
1620.39	18.2489
1620.65	15.6027
1620.91	15.2897
1621.17	17.9609
1621.42	16.6459
1621.68	17.8601
1621.94	15.4419
1622.2	15.4155
1622.46	16.0193
1622.72	17.8982
1622.98	15.8174
1623.23	16.0388
1623.49	16.2426
1623.75	17.311
1624.01	16.8226
1624.27	16.2409
1624.53	16.9193
1624.79	17.4272
1625.04	16.881
1625.3	15.6478
1625.56	17.5151
1625.82	14.947
1626.08	16.8451
1626.34	17.3029
1626.59	16.6179
1626.85	17.2027
1627.11	17.424
1627.37	18.0433
1627.63	16.143
1627.89	16.885
1628.14	15.066
1628.4	20.0145
1628.66	15.0146
1628.92	14.1231
1629.18	15.0471
1629.44	17.3272
1629.69	16.1077
1629.95	16.5669
1630.21	19.2954
1630.47	17.9355
1630.73	17.7345
1630.99	16.8626
1631.24	17.4977
1631.29	17.675
1631.55	16.6897
1631.81	16.6897
1632.07	17.6747
1632.33	16.6879
1632.59	15.7009
1632.86	16.6847
1633.12	16.6826
1633.38	18.6508
1633.64	19.6333
1633.9	11.7501
1634.16	18.6417
1634.42	18.6384
1634.68	15.6828
1634.95	13.7126
1635.21	19.6178
1635.47	14.6936
1635.73	18.6299
1635.99	19.6141
1636.25	19.6138
1636.51	14.6915
1636.77	16.6598
1637.03	15.6747
1637.3	14.6896
1637.56	15.6748
1637.82	15.6773
1638.08	16.6634
1638.34	13.7091
1638.6	16.6615
1638.86	15.675
1639.12	17.6425
1639.39	15.6725
1639.65	18.6246
1639.91	15.6705
1640.17	18.6225
1640.43	18.6219
1640.69	15.668
1640.95	14.6821
1641.21	16.6482
1641.47	18.6127
1641.73	13.6917
1641.99	16.6423
1642.25	15.6602
1642.52	18.6134
1642.78	17.6306
1643.04	17.6297
1643.3	15.6595
1643.56	17.6251
1643.82	14.6717
1644.08	16.638
1644.34	16.6355
1644.6	18.6007
1644.86	15.6483
1645.12	17.615
1645.38	15.6484
1645.65	16.635
1645.91	17.6218
1646.17	17.6325
1646.43	18.6162
1646.69	19.5989
1646.95	16.6431
1647.21	16.6436
1647.47	19.6037
1647.73	15.667
1647.99	17.6401
1648.25	15.6724
1648.51	19.6154
1648.77	17.6449
1649.03	15.6736
1649.29	15.6734
1649.55	17.6449
1649.82	16.6565
1650.08	15.6691
1650.34	23.55
1650.6	19.6091
1650.86	17.6393
1651.12	19.6118
1651.38	17.6415
1651.64	13.6997
1651.9	15.6717
1652.16	17.6451
1652.42	13.7047
1652.68	14.6949
1652.94	15.6863
1653.2	15.6893
1653.46	17.6651
1653.72	15.6919
1653.98	16.6792
1654.24	18.6523
1654.5	16.6762
1654.76	20.6218
1655.02	15.6859
1655.28	16.671
1655.54	17.6554
1655.81	14.693
1656.07	15.6769
1656.33	17.6467
1656.58	16.6577
1656.84	18.6264
1657.11	14.6804
1657.37	15.6673
1657.63	15.669
1657.89	16.6573
1658.15	15.6736
1658.41	15.6763
1658.67	15.6786
1658.93	15.6802
1659.19	18.635
1659.45	17.6464
1659.71	17.676
1659.97	16.6969
1660.23	17.6776
1660.49	16.6886
1660.75	14.697
1661.01	16.6539
1661.27	18.6413
1661.53	17.6568
1661.79	15.6854
1662.05	20.6326
1662.31	16.6787
1662.57	17.6401
1662.83	16.6614
1663.09	16.6916
1663.35	16.6916
1663.61	14.7157
1663.87	17.627
1664.13	13.678
1664.39	17.6504
1664.65	16.6593
1664.91	16.6569
1665.17	16.6542
1665.43	15.665
1665.69	13.6931
1665.95	16.6625
1666.21	16.6688
1666.47	16.6697
1666.72	16.6698
1666.99	13.7067
1667.25	16.6666
1667.51	15.6813
1667.76	16.6786
1668.02	14.7035
1668.28	19.6437
1668.54	17.6655
1668.8	16.676
1669.06	13.7119
1669.32	14.7008
1669.58	17.6665
1669.84	15.6888
1670.1	18.6541
1670.36	14.7002
1670.62	16.6777
1670.88	14.7013
1671.14	16.6802
1671.4	16.6822
1671.66	18.6619
1671.92	14.7073
1672.18	15.6994
1672.44	16.6906
1672.7	15.7019
1672.96	16.691
1673.22	13.7216
1673.48	15.7013
1673.74	15.7017
1674	14.7119
1674.25	16.6907
1674.51	17.6789
1674.77	14.7081
1675.03	16.6843
1675.29	14.7021
1675.55	13.7095
1675.81	17.6622
1676.07	15.6822
1676.33	15.68
1676.59	17.6555
1676.85	13.6996
1677.11	15.6745
1677.37	15.673
1677.63	18.6354
1677.89	16.6571
1678.15	16.6554
1678.4	15.6665
1678.66	14.678
1678.92	13.6896
1679.18	18.6289
1679.44	15.6649
1679.7	15.6647
1679.96	14.6758
1680.22	14.6751
1680.48	16.6503
1680.74	15.662
1681	15.661
1681.25	16.6471
1681.51	15.6569
1681.77	13.6802
1682.03	18.6167
1682.29	14.6659
1682.55	18.6152
1682.81	15.6524
1683.07	14.6647
1683.33	14.6649
1683.59	13.6786
1683.84	15.6563
1684.1	14.6693
1684.36	16.6446
1684.62	17.6306
1684.88	15.6528
1685.14	13.6756
1685.4	15.6489
1685.66	17.6215
1685.92	17.6182
1686.18	13.6663
1686.43	15.6373
1686.69	17.6075
1686.95	14.6441
1687.21	16.6131
1687.47	15.6276
1687.73	16.6166
1687.99	12.6717
1688.25	16.6192
1688.51	17.6063
1688.76	13.6607
1689.02	16.622
1689.28	17.6084
1689.54	17.6068
1689.8	15.6299
1690.06	18.5861
1690.32	14.6362
1690.58	13.6458
1690.84	16.5984
1691.09	13.6388
1691.35	19.5475
1691.61	16.5878
1691.87	15.6003
1692.13	17.5704
1692.39	14.6159
1692.64	14.6163
1692.9	16.5872
1693.16	13.6322
1693.42	15.6049
1693.68	14.62
1693.94	13.6337
1694.2	14.6171
1694.46	17.5692
1694.71	13.6245
1694.97	15.59
1695.23	15.5866
1695.49	14.5993
1695.75	14.5966
1696.01	15.5785
1696.26	15.5772
1696.52	14.5928
1696.78	17.5453
1697.04	13.6089
1697.3	15.5763
1697.56	14.5893
1697.81	17.5399
1698.07	14.5874
1698.33	14.5861
1698.59	16.5514
1698.85	13.5979
1699.11	15.5613
1699.37	16.5412
1699.62	15.5548
1699.88	15.5521
1700.14	15.5509
1700.4	16.5326
1700.66	15.5485
1700.91	15.5467
1701.17	15.5461
1701.43	15.5473
1701.69	15.5486
1701.95	15.5483
1702.21	14.5645
1702.46	14.5635
1702.72	14.5632
1702.98	14.5621
1703.24	18.4887
1703.5	15.5379
1703.75	18.4796
1704.01	13.5662
1704.27	16.507
1704.53	15.5217
1704.79	14.536
1705.04	15.5117
1705.3	14.5262
1705.56	14.521
1705.82	17.4543
1706.08	16.4694
1706.33	15.4866
1706.59	12.5473
1706.85	16.462
1707.11	14.5036
1707.37	14.5036
1707.62	13.5247
1707.88	13.5259
1708.14	15.4857
1708.4	13.5281
1708.66	15.4877
1708.91	14.5088
1709.17	13.5288
1709.43	15.485
1709.69	14.5005
1709.95	15.4729
1710.2	13.5094
1710.46	14.4821
1710.72	16.4306
1710.98	15.4481
1711.23	13.4914
1711.49	14.4662
1711.75	16.4182
1712.01	15.4402
1712.27	16.4166
1712.52	13.4896
1712.78	12.5138
1713.04	12.5131
1713.3	15.4424
1713.55	14.4627
1713.81	15.4356
1714.07	14.4543
1714.33	15.4246
1714.58	15.4174
1714.84	15.4092
1715.1	13.4536
1715.36	15.3964
1715.61	16.3655
1715.87	17.3356
1716.13	13.439
1716.39	17.3333
1716.64	12.4644
1716.9	15.3838
1717.16	15.3855
1717.42	17.3323
1717.68	15.3826
1717.93	13.4325
1718.19	15.3742
1718.45	14.3984
1718.71	17.313
1718.96	15.3637
1719.22	14.3872
1719.48	16.327
1719.74	11.464
1719.99	17.2899
1720.25	13.4008
1720.51	15.3406
1720.76	16.3098
1721.02	16.3096
1721.28	17.2783
1721.54	16.3063
1721.79	15.332
1722.05	11.4455
1722.31	19.2005
1722.56	13.3755
1722.82	13.3702
1723.08	17.2436
1723.34	16.2729
1723.59	13.3664
1723.85	17.2406
1724.11	14.3305
1724.37	18.1996
1724.62	14.326
1724.88	15.2973
1725.14	13.3578
1725.39	15.2915
1725.65	16.2498
1725.91	15.2591
1726.17	16.2039
1726.42	13.3049
1726.68	14.2778
1726.94	15.2503
1727.19	14.2857
1727.45	15.2433
1727.71	15.2395
1727.96	13.3118
1728.22	13.3224
1728.48	15.2556
1728.74	15.2554
1728.99	16.2209
1729.25	16.2194
1729.51	14.2849
1729.76	14.2828
1730.02	14.2801
1730.28	14.2763
1730.53	13.3058
1730.79	15.23
1731.05	16.1886
1731.3	16.1833
1731.56	16.1779
1731.82	16.1723
1732.08	15.2033
1732.33	12.3087
1732.59	13.2681
1732.85	15.1905
1733.1	15.1882
1733.36	14.224
1733.62	15.1843
1733.87	15.182
1734.13	16.1416
1734.39	15.1769
1734.64	13.2509
1734.9	16.1339
1735.16	13.2458
1735.41	15.1653
1735.67	16.123
1735.93	16.1191
1736.18	13.2327
1736.44	12.2679
1736.7	16.1025
1736.95	15.1354
1737.21	16.088
1737.47	17.9993
1737.72	14.1597
1737.98	17.031
1738.24	15.1105
1738.49	14.1491
1738.75	14.1459
1739.01	17.016
1739.26	15.0992
1739.52	12.2259
1739.78	16.0536
1740.03	13.18
1740.29	16.0505
1740.54	13.1783
1740.8	13.1761
1741.06	15.0864
1741.31	15.0839
1741.57	15.0811
1741.83	14.1238
1742.08	14.1235
1742.34	13.1669
1742.6	16.0359
1742.85	15.078
1743.11	15.0754
1743.36	16.9839
1743.62	16.0231
1743.88	14.1067
1744.13	15.0589
1744.39	16.0087
1744.65	14.0956
1744.9	15.0463
1745.16	14.0905
1745.42	15.9991
1745.67	15.0445
1745.93	13.1356
1746.18	14.0909
1746.44	14.0924
1746.7	15.0494
1746.95	14.0969
1747.21	15.0553
1747.46	15.0584
1747.72	14.1051
1747.98	13.1496
1748.23	16.9749
1748.49	16.0183
1748.74	14.1035
1749	13.1432
1749.26	16.0048
1749.51	15.046
1749.77	13.1326
1750.02	13.1293
1750.28	14.0805
1750.54	13.1234
1750.79	14.0749
1751.05	16.9339
1751.31	15.976
1751.56	14.0653
1751.82	15.0163
1752.07	14.0607
1752.33	12.1524
1752.59	15.0094
1752.84	11.195
1753.1	14.05
1753.35	14.9985
1753.61	16.8981
1753.86	13.0851
1754.12	16.8867
1754.38	18.7848
1754.63	14.9775
1754.89	14.9761
1755.14	14.0265
1755.4	15.9323
1755.66	14.0301
1755.91	15.9331
1756.17	14.9814
1756.42	14.0298
1756.68	13.0783
1756.93	14.9807
1757.19	14.9791
1757.44	15.9289
1757.7	14.0242
1757.96	11.1684
1758.21	15.9214
1758.47	13.0653
1758.72	12.1121
1758.98	15.913
1759.23	14.9608
1759.49	11.1586
1759.75	15.9137
1760	17.8163
1760.26	15.9142
1760.51	14.9627
1760.77	15.9139
1761.02	14.013
1761.28	16.8674
1761.53	13.0666
1761.79	13.0701
1762.05	14.0235
1762.3	15.9286
1762.56	14.0257
1762.81	13.0741
1763.07	15.9303
1763.32	14.9778
1763.58	11.1687
1763.83	17.8309
1764.09	15.9261
1764.34	14.9732
1764.6	12.1161
1764.85	12.1138
1765.11	14.9665
1765.37	13.0613
1765.62	12.1093
1765.88	14.0093
1766.13	14.9526
1766.39	16.8451
1766.64	14.9361
1766.9	13.9835
1767.15	15.8831
1767.41	15.8881
1767.66	14.9398
1767.92	16.84
1768.17	15.8911
1768.43	11.1438
1768.68	15.9011
1768.94	13.0488
1769.19	13.0496
1769.45	14.9541
1769.7	14.9568
1769.96	15.91
1770.21	14.0083
1770.47	14.9613
1770.72	15.9143
1770.98	13.0596
1771.23	14.9642
1771.49	14.0126
1771.74	14.0131
1772	13.0626
1772.26	16.8726
1772.51	16.8764
1772.76	13.0717
1773.02	14.9805
1773.27	12.1217
1773.53	14.0281
1773.78	14.9801
1774.04	14.9776
1774.29	14.9748
1774.55	14.0198
1774.8	13.0642
1775.06	11.1564
1775.31	14.0111
1775.57	16.8646
1775.82	14.0046
1776.08	14.0005
1776.33	15.8995
1776.59	13.0432
1776.84	14.9466
1777.1	14.9498
1777.35	14.9505
1777.61	14.9513
1777.86	14.9523
1778.12	14.0012
1778.37	14.0012
1778.63	13.0496
1778.88	15.9071
1779.13	14.0044
1779.39	16.8642
1779.65	14.962
1779.9	14.0109
1780.15	13.0592
1780.41	12.1073
1780.66	14.015
1780.92	14.0165
1781.17	13.0648
1781.43	14.0209
1781.68	15.9316
1781.94	14.0253
1782.19	14.9799
1782.45	14.9793
1782.7	14.0239
1782.95	14.022
1783.21	16.8823
1783.46	15.9287
1783.72	14.9761
1783.97	16.8868
1784.23	16.8904
1784.48	14.0309
1784.74	17.8576
1784.99	14.0452
1785.24	12.1412
1785.5	14.0619
1785.75	15.0235
1786.01	12.1534
1786.26	15.03
1786.52	15.0348
1786.77	13.121
1787.03	11.2054
1787.28	15.041
1787.54	15.0421
1787.79	14.0828
1788.04	15.0407
1788.3	15.0333
1788.55	12.1537
1788.81	14.0675
1789.06	13.1086
1789.31	13.1087
1789.57	15.0242
1789.82	15.9831
1790.08	13.1108
1790.33	16.9436
1790.59	15.0269
1790.84	15.986
1791.09	14.0706
1791.35	14.0711
1791.6	14.0693
1791.86	13.1094
1792.11	15.0336
1792.36	14.0846
1792.62	15.05
1792.87	14.0929
1793.13	11.2147
1793.38	14.0972
1793.64	13.1391
1793.89	16.984
1794.14	14.1046
1794.4	18.912
1794.65	13.1474
1794.9	15.0714
1795.16	15.0727
1795.41	16.0351
1795.67	15.074
1795.92	11.2273
1796.17	15.0721
1796.43	12.1858
1796.68	13.1445
1796.94	15.0635
1797.19	15.0607
1797.44	13.1368
1797.7	15.0563
1797.95	13.1336
1798.21	15.0536
1798.46	17.9344
1798.71	16.0133
1798.97	13.132
1799.22	14.0933
1799.47	16.9767
1799.73	15.057
1799.98	13.1372
1800.24	14.1009
1800.49	13.1422
1800.74	16.0288
1801	14.106
1801.25	13.1447
1801.5	16.9943
1801.76	12.1866
1802.01	14.1131
1802.27	14.1162
1802.52	14.1194
1802.77	12.1964
1803.03	15.0883
1803.28	13.1636
1803.53	14.1289
1803.79	16.0578
1804.04	15.0948
1804.29	14.131
1804.55	14.1307
1804.8	15.0942
1805.05	16.0579
1805.31	13.1664
1805.56	16.058
1805.81	15.0943
1806.07	15.0945
1806.32	12.2028
1806.58	17.023
1806.83	13.1672
1807.08	13.1673
1807.34	15.0957
1807.59	14.1312
1807.84	12.2017
1808.1	15.0931
1808.35	13.1645
1808.6	11.2357
1808.86	15.0915
1809.11	14.1274
1809.36	12.1997
1809.62	17.0221
1809.87	16.06
1810.12	13.1688
1810.38	13.1698
1810.63	13.1705
1810.88	13.1724
1811.14	14.1405
1811.39	13.1783
1811.64	17.0454
1811.9	12.2195
1812.15	13.1877
1812.4	13.1891
1812.65	15.1226
1812.91	12.2235
1813.16	13.1903
1813.41	12.2239
1813.67	15.125
1813.92	13.1912
1814.17	18.0239
1814.43	15.1192
1814.68	16.0774
1814.93	15.1084
1815.19	14.1436
1815.44	15.1123
1815.69	13.1838
1815.95	14.1501
1816.2	13.1834
1816.45	15.1171
1816.7	12.2189
1816.96	14.1532
1817.21	15.1211
1817.46	15.1227
1817.72	13.1903
1817.97	12.2239
1818.22	14.1595
1818.47	14.1612
1818.73	13.1955
1818.98	13.197
1819.23	15.1338
1819.49	14.1668
1819.74	16.1033
1819.99	15.1358
1820.24	15.1361
1820.5	17.071
1820.75	14.1653
1821	12.2277
1821.26	16.0992
1821.51	11.2604
1821.76	15.1333
1822.01	14.1662
1822.27	15.1356
1822.52	15.1369
1822.77	15.1373
1823.03	14.1687
1823.28	15.1366
1823.53	14.1684
1823.78	14.1683
1824.04	18.0425
1824.29	15.1378
1824.54	14.1702
1824.79	16.1092
1825.05	14.1724
1825.3	13.2027
1825.55	17.0773
1825.8	15.1372
1826.06	16.1033
1826.31	14.1648
1826.56	18.0382
1826.81	15.1315
1827.07	14.1618
1827.32	12.2229
1827.57	16.0941
1827.82	14.1558
1828.08	16.0926
1828.33	12.2213
1828.58	14.1594
1828.83	15.1296
1829.09	15.131
1829.34	14.1639
1829.59	13.1966
1829.84	13.1993
1830.1	13.2003
1830.35	14.169
1830.6	20.9545
1830.85	15.1399
1831.11	14.1705
1831.36	14.171
1831.61	15.1342
1831.86	15.1252
1832.12	13.1815
1832.37	13.1753
1832.62	15.1067
1832.87	13.168
1833.13	15.1027
1833.38	14.1372
1833.63	12.2596
1833.88	14.1797
1834.13	15.1325
1834.39	14.1582
1834.64	15.1147
1834.89	13.1695
1835.14	12.1889
1835.39	12.1832
1835.65	12.1859
1835.9	15.1122
1836.15	15.1185
1836.4	15.1229
1836.65	16.0932
1836.91	14.1571
1837.16	15.1264
1837.41	15.1104
1837.66	13.1654
1837.92	14.1246
1838.17	13.1508
1838.42	14.1104
1838.67	13.1383
1838.92	16.0288
1839.18	16.0227
1839.43	13.123
1839.68	13.12
1839.93	14.086
1840.18	15.0493
1840.43	15.0504
1840.69	15.0497
1840.94	15.0489
1841.19	14.0828
1841.44	16.0121
1841.7	13.1193
1841.95	14.0831
1842.2	14.0812
1842.45	12.1522
1842.7	15.0475
1842.95	13.1234
1843.2	15.0596
1843.46	14.1007
1843.71	15.0709
1843.96	12.1614
1844.21	15.0345
1844.46	14.0526
1844.72	14.0492
1844.97	15.9769
1845.22	13.0949
1845.47	14.0596
1845.72	12.1272
1845.97	13.0877
1846.23	16.9379
1846.48	17.8963
1846.73	15.0037
1846.98	14.0368
1847.23	14.0317
1847.48	15.9493
1847.74	12.1001
1847.99	14.0184
1848.24	16.897
1848.49	16.8937
1848.74	14.01
1848.99	14.0085
1849.25	12.0872
1849.5	14.0073
1849.75	13.0467
1850	14.9667
1850.25	13.0453
1850.5	14.0042
1850.75	13.0419
1851.01	15.9179
1851.26	12.0748
1851.51	12.0704
1851.76	13.0261
1852.01	15.9006
1852.26	11.104
1852.51	13.0164
1852.76	15.8864
1853.02	16.8418
1853.27	15.8822
1853.52	12.0501
1853.77	12.0499
1854.02	13.9648
1854.27	14.9215
1854.52	13.0042
1854.78	14.9174
1855.03	13.0003
1855.28	13.9549
1855.53	12.9945
1855.78	14.9047
1856.03	12.9877
1856.28	12.9841
1856.53	13.9365
1856.79	15.8464
1857.04	15.8464
1857.29	14.8897
1857.54	15.8472
1857.79	14.894
1858.04	13.9393
1858.29	12.9845
1858.54	13.9436
1858.79	12.9881
1859.04	13.9449
1859.3	15.8572
1859.55	14.8972
1859.8	12.9804
1860.05	12.0206
1860.3	16.7977
1860.55	15.8377
1860.8	13.9227
1861.05	13.9197
1861.3	13.9168
1861.56	12.0038
1861.81	13.9111
1862.06	14.8625
1862.31	11.9945
1862.56	15.8072
1862.81	14.8475
1863.06	17.7016
1863.31	14.8345
1863.56	14.8277
1863.81	12.9167
1864.06	14.8146
1864.32	14.8082
1864.57	13.8513
1864.82	13.8473
1865.07	15.7467
1865.32	14.794
1865.57	13.8422
1865.82	14.7932
1866.07	15.7444
1866.32	12.8913
1866.57	15.7421
1866.82	11.9384
1867.07	14.789
1867.32	16.6888
1867.57	17.6381
1867.83	13.8355
1868.08	14.7852
1868.33	14.7846
1868.58	15.7331
1868.83	15.7307
1869.08	13.8275
1869.33	14.7757
1869.58	17.6231
1869.83	13.8206
1870.08	15.7164
1870.33	12.8664
1870.58	13.8149
1870.83	14.7623
1871.08	13.8105
1871.33	13.8074
1871.58	14.7524
1871.84	13.7999
1872.08	16.6404
1872.33	12.8438
1872.59	12.8396
1872.84	12.834
1873.09	16.6134
1873.34	13.7685
1873.59	13.7641
1873.84	13.7608
1874.09	14.7034
1874.34	11.8589
1874.59	11.8499
1874.84	16.559
1875.09	16.587
1875.34	16.633
1875.59	15.6562
1875.84	16.5994
1876.09	14.7088
1876.34	13.7751
1876.59	12.8302
1876.84	15.6662
1877.09	13.7685
1877.34	15.6613
1877.59	12.8206
1877.84	13.7688
1878.09	14.7122
1878.34	12.8167
1878.59	14.7027
1878.84	12.8036
1879.09	10.9062
1879.34	15.6232
1879.59	15.6132
1879.84	13.7167
1880.1	13.7108
1880.34	14.6751
1880.59	13.7787
1880.84	12.7772
1881.1	14.6396
1881.34	11.8158
1881.59	12.7612
1881.84	14.6427
1882.1	14.6487
1882.34	14.6542
1882.59	14.6558
1882.85	14.6591
1883.1	13.7206
1883.34	14.6675
1883.59	13.7237
1883.85	14.6647
1884.09	15.603
1884.34	15.5991
1884.59	16.5385
1884.84	14.6475
1885.09	14.6433
1885.34	16.5235
1885.59	14.6322
1885.84	12.7429
1886.09	13.68
1886.34	13.676
1886.59	14.6156
1886.84	10.8491
1887.09	12.7314
1887.34	13.6743
1887.59	15.5608
1887.84	14.6213
1888.09	15.5633
1888.34	13.6781
1888.59	17.4442
1888.84	13.6761
1889.09	16.4999
1889.34	12.7324
1889.59	13.6726
1889.84	12.7286
1890.09	12.7251
1890.34	12.719
1890.59	18.3531
1890.84	13.6456
1891.09	16.4672
1891.34	14.5849
1891.59	14.5804
1891.84	14.5778
1892.09	15.5164
1892.34	14.5773
1892.59	15.5178
1892.83	14.5794
1893.08	15.5207
1893.33	16.4624
1893.58	16.4651
1893.83	15.5276
1894.08	16.4701
1894.33	14.5906
1894.58	14.5914
1894.83	12.7102
1895.08	12.7095
1895.33	12.7081
1895.58	15.5273
1895.83	12.7032
1896.08	13.6397
1896.33	15.5156
1896.58	13.6336
1896.83	14.5714
1897.08	13.6293
1897.32	16.4459
1897.57	14.5665
1897.82	15.5065
1898.07	10.8104
1898.32	16.4505
1898.57	14.5735
1898.82	13.6361
1899.07	12.6981
1899.32	14.5824
1899.57	15.5248
1899.82	14.5831
1900.07	14.5815
1900.31	13.6389
1900.57	12.6967
1900.81	13.6356
1901.06	15.5149
1901.31	17.3943
1901.56	12.6926
1901.81	13.6318
1902.06	17.391
1902.31	16.4502
1902.56	15.5095
1902.81	15.5078
1903.06	13.6218
1903.31	16.4365
1903.55	15.4948
1903.8	13.6143
1904.05	18.308
1904.3	13.6115
1904.55	15.4901
1904.8	15.4903
1905.05	14.5539
1905.3	16.4346
1905.55	17.3747
1905.79	13.6172
1906.04	12.6789
1906.29	13.6206
1906.54	12.6832
1906.79	14.567
1907.04	11.7493
1907.29	12.6939
1907.54	15.522
1907.79	12.7013
1908.04	17.4123
1908.28	13.6468
1908.53	12.7056
1908.78	16.4734
1909.03	14.5888
1909.28	15.5289
1909.53	11.7605
1909.78	14.5854
1910.03	13.6433
1910.27	11.7593
1910.52	15.5273
1910.77	13.6459
1911.02	12.7077
1911.27	12.7112
1911.52	14.5991
1911.77	13.6589
1912.02	13.6615
1912.26	14.6072
1912.51	14.6086
1912.76	13.665
1913.01	15.5512
1913.26	15.5493
1913.51	14.605
1913.76	11.7717
1914	13.6551
1914.25	14.5955
1914.5	14.5931
1914.75	13.6488
1915	15.5332
1915.25	12.7056
1915.49	14.5934
1915.74	14.5966
1915.99	18.3742
1916.24	16.4921
1916.49	13.665
1916.74	15.5601
1916.99	14.6195
1917.23	13.6763
1917.48	14.6208
1917.73	13.6731
1917.98	14.6205
1918.23	13.6791
1918.48	11.7913
1918.72	15.5744
1918.97	12.7394
1919.22	15.5771
1919.47	14.6306
1919.72	11.7916
1919.97	13.6802
1920.21	13.6781
1920.46	12.7313
1920.71	15.5656
1920.96	13.6734
1921.21	14.6158
1921.46	16.5024
1921.7	14.6111
1921.95	14.6106
1922.2	15.5561
1922.45	12.7234
1922.7	15.5617
1922.94	16.5119
1923.19	13.6787
1923.44	13.682
1923.69	12.7393
1923.94	13.6894
1924.19	15.5849
1924.43	12.7462
1924.68	13.6946
1924.93	13.6959
1925.18	15.5916
1925.43	11.8035
1925.67	13.6989
1925.92	15.5956
1926.17	13.702
1926.42	10.8605
1926.66	14.6553
1926.91	13.7112
1927.16	15.6117
1927.41	11.8203
1927.66	16.5687
1927.91	13.724
1928.15	15.623
1928.4	15.6227
1928.65	17.5194
1928.9	14.669
1929.15	15.6157
1929.39	12.7663
1929.64	12.7641
1929.89	16.5569
1930.14	12.7611
1930.38	15.6051
1930.63	14.6584
1930.88	15.6125
1931.13	13.7216
1931.37	12.781
1931.62	13.7434
1931.87	13.7544
1932.12	12.8111
1932.37	12.8182
1932.61	16.6378
1932.86	16.6386
1933.11	15.6746
1933.36	13.768
1933.61	12.8134
1933.85	14.7168
1934.1	14.7131
1934.35	13.7568
1934.6	13.7536
1934.84	12.7985
1935.09	14.6994
1935.34	13.7451
1935.59	13.7462
1935.83	16.6066
1936.08	11.8469
1936.33	12.8009
1936.58	15.6602
1936.82	14.7093
1937.07	16.6165
1937.32	12.8061
1937.57	16.6217
1937.81	14.7205
1938.06	14.7293
1938.31	16.6412
1938.56	14.7313
1938.8	12.8198
1939.05	13.7674
1939.3	12.8091
1939.55	13.7708
1939.79	15.6914
1940.04	12.8284
1940.29	13.7815
1940.54	15.6836
1940.78	14.7227
1941.03	16.6296
1941.28	11.8665
1941.52	12.823
1941.77	11.8706
1942.02	13.7832
1942.27	13.7863
1942.51	14.745
1942.76	15.7039
1943.01	13.7949
1943.26	11.8847
1943.5	13.7986
1943.75	14.756
1944	12.8432
1944.24	12.8423
1944.49	12.8407
1944.74	11.8831
1944.99	12.8388
1945.23	13.7946
1945.48	14.75
1945.73	14.749
1945.97	12.8376
1946.22	17.622
1946.47	11.8854
1946.71	11.8878
1946.96	13.8048
1947.21	13.8088
1947.46	14.7724
1947.7	13.8202
1947.95	11.9077
1948.2	12.8711
1948.44	14.7948
1948.69	12.8802
1948.94	10.9633
1949.19	13.8455
1949.43	14.8077
1949.68	12.8879
1949.93	12.888
1950.17	15.7724
1950.42	14.8124
1950.67	16.7281
1950.91	13.8399
1951.16	12.8715
1951.41	15.7406
1951.65	14.774
1951.9	13.8104
1952.15	15.7246
1952.39	13.8086
1952.64	14.7689
1952.89	13.8149
1953.14	15.74
1953.38	13.8294
1953.63	14.793
1953.88	13.8366
1954.12	13.839
1954.37	13.8418
1954.62	15.7658
1954.86	14.8073
1955.11	12.8869
1955.36	12.8877
1955.6	14.8105
1955.85	11.9267
1956.1	11.9249
1956.34	14.8053
1956.59	13.843
1956.84	13.8415
1957.08	13.839
1957.33	14.797
1957.58	13.8339
1957.82	12.871
1958.07	12.8682
1958.31	12.8657
1958.56	15.7427
1958.81	13.8222
1959.05	13.8225
1959.3	16.7021
1959.55	13.823
1959.79	11.9036
1960.04	11.9038
1960.29	13.8237
1960.53	10.944
1960.78	13.8241
1961.03	14.7849
1961.27	13.8262
1961.52	17.6678
1961.77	14.786
1962.01	13.8249
1962.26	14.7847
1962.5	12.8637
1962.75	13.8243
1963	13.8258
1963.24	15.7495
1963.49	13.8312
1963.74	9.9896
1963.98	11.9131
1964.23	13.8359
1964.48	11.9129
1964.72	13.8356
1964.97	12.875
1965.21	14.7977
1965.46	13.8366
1965.71	13.8355
1965.95	13.8334
1966.2	14.7913
1966.44	13.8261
1966.69	11.9002
1966.94	14.7766
1967.18	13.8129
1967.43	15.7294
1967.68	12.8481
1967.92	11.8858
1968.17	16.6806
1968.41	14.76
1968.66	11.8807
1968.91	14.7572
1969.15	15.7179
1969.4	13.8002
1969.64	12.8409
1969.89	12.8401
1970.14	10.9198
1970.38	13.7944
1970.63	14.7497
1970.87	13.7883
1971.12	11.8692
1971.37	15.702
1971.61	12.8259
1971.86	13.7843
1972.1	13.7846
1972.35	9.95103
1972.6	12.8285
1972.84	13.7891
1973.09	12.8314
1973.33	15.7097
1973.58	13.7918
1973.82	16.6696
1974.07	13.7913
1974.32	14.7496
1974.56	13.7889
1974.81	12.8277
1975.05	14.7429
1975.3	17.6163
1975.55	13.7794
1975.79	11.8607
1976.04	13.7768
1976.28	13.7767
1976.53	12.8183
1976.77	11.8594
1977.02	14.7354
1977.26	15.6934
1977.51	11.8571
1977.76	13.771
1978	12.8104
1978.25	13.7672
1978.49	13.7646
1978.74	12.8052
1978.98	16.6352
1979.23	14.7189
1979.48	13.7599
1979.72	14.7144
1979.97	12.7968
1980.21	14.7072
1980.46	15.6593
1980.7	12.7863
1980.95	12.7851
1981.19	14.6967
1981.44	13.7384
1981.69	14.693
1981.93	11.8225
1982.18	12.7757
1982.42	13.7278
1982.67	13.7266
1982.91	10.8594
1983.16	15.6393
1983.4	8.9493
1983.65	11.8189
1983.89	14.6877
1984.14	15.6429
1984.38	14.6875
1984.63	16.595
1984.88	14.6781
1985.12	13.7172
1985.37	14.6663
1985.61	11.795
1985.86	12.7391
1986.1	12.7305
1986.35	14.6281
1986.59	12.7157
1986.84	14.6157
1987.08	16.5163
1987.33	12.7091
1987.57	12.7108
1987.82	13.6689
1988.06	14.6243
1988.31	13.6752
1988.55	13.6796
1988.8	12.7418
1989.04	12.7687
1989.29	15.5819
1989.53	12.7806
1989.78	12.7788
1990.02	15.4199
1990.27	11.8764
1990.52	12.9093
1990.76	15.5766
1991.01	14.4844
1991.25	14.439
1991.49	13.7318
1991.74	11.9206
1991.99	11.0833
1992.23	15.0139
1992.47	14.4151
1992.72	12.1378
1992.97	13.6448
1993.21	13.465
1993.45	12.7191
1993.7	14.4749
1993.95	14.3271
1994.19	11.6248
1994.43	15.8918
1994.68	13.2173
1994.93	14.7515
1995.17	13.6887
1995.41	12.1566
1995.66	12.2625
1995.9	13.4102
1996.15	15.4433
1996.39	11.7822
1996.64	14.5239
1996.88	13.1601
1997.13	12.8709
1997.37	14.2447
1997.62	13.8611
1997.86	14.4266
1998.11	12.5284
1998.35	13.1995
1998.6	12.7
1998.84	13.4209
1999.09	13.3626
1999.33	13.4972
1999.57	12.3243
1999.82	14.0106
2000.06	13.7781
2000.31	11.4849
2000.55	14.3003
2000.8	12.8703
2001.04	12.8684
2001.29	14.7338
2001.53	14.7196
2001.78	14.4079
2002.02	16.1428
2002.27	14.444
2002.51	14.7977
2002.75	14.3028
2003	13.6
2003.24	12.6948
2003.49	14.0461
2003.73	14.557
2003.98	14.3654
2004.22	13.584
2004.47	13.5682
2004.71	13.4574
2004.95	14.6941
2005.2	14.0619
2005.44	13.3995
2005.69	12.4543
2005.93	15.2702
2006.18	14.006
2006.42	12.9756
2006.66	14.1676
2006.91	12.4651
2007.15	13.0681
2007.4	13.6464
2007.64	13.9153
2007.89	14.5287
2008.13	14.2259
2008.38	12.5025
2008.62	13.7351
2008.86	14.8814
2009.11	13.0305
2009.35	13.8731
2009.6	13.9981
2009.84	12.6668
2010.08	12.8445
2010.33	13.1645
2010.57	13.145
2010.82	11.8359
2011.06	12.2652
2011.3	15.1934
2011.55	13.0302
2011.79	10.1366
2012.04	13.0582
2012.18	15.8408
2012.43	14.904
2012.68	11.1513
2012.93	12.0914
2013.17	13.0295
2013.42	12.091
2013.67	14.9201
2013.91	9.28328
2014.16	12.1022
2014.41	13.9797
2014.66	13.9764
2014.9	14.9114
2015.15	14.9056
2015.4	13.0223
2015.64	12.0791
2015.89	13.0124
2016.14	17.6942
2016.38	13.0021
2016.63	14.8727
2016.88	13.9338
2017.13	13.9323
2017.37	12.9952
2017.62	12.9944
2017.87	14.8667
2018.11	14.867
2018.36	13.9312
2018.61	13.9312
2018.86	12.9938
2019.1	15.8021
2019.35	12.9906
2019.6	12.988
2019.84	11.1127
2020.09	13.9167
2020.34	14.8489
2020.58	15.7809
2020.83	13.907
2021.08	13.9037
2021.32	15.7703
2021.57	13.8964
2021.82	11.089
2022.06	11.0852
2022.31	12.9485
2022.56	12.9445
2022.8	14.8067
2023.05	12.9362
2023.3	11.071
2023.54	13.8735
2023.79	12.9479
2024.04	13.8916
2024.28	12.9679
2024.53	10.1682
2024.78	12.9744
2025.02	16.7071
2025.27	13.8895
2025.52	11.0595
2025.76	15.7486
2026.01	15.8057
2026.26	12.0396
2026.5	15.7945
2026.75	12.9649
2027	13.8841
2027.24	13.8669
2027.49	13.8665
2027.74	15.7169
2027.98	12.9297
2028.23	13.8717
2028.48	15.7352
2028.72	13.8691
2028.97	15.7348
2029.22	12.9391
2029.46	12.0094
2029.71	18.5515
2029.96	14.8204
2030.2	13.8896
2030.45	12.0225
2030.69	12.0257
2030.94	13.8991
2031.19	12.0221
2031.43	12.015
2031.68	15.7344
2031.93	13.8624
2032.17	14.8016
2032.42	11.072
2032.66	13.8796
2032.91	12.955
2033.16	14.8323
2033.4	13.8982
2033.65	13.8899
2033.9	14.8237
2034.14	14.8279
2034.39	13.8925
2034.63	12.9567
2034.88	13.8903
2035.13	12.0187
2035.37	16.6903
2035.62	13.8839
2035.87	12.9471
2036.11	12.0106
2036.36	12.9424
2036.6	12.0061
2036.85	16.672
2037.1	12.9333
2037.34	12.9295
2037.59	11.993
2037.83	11.0572
2038.08	10.1221
2038.33	13.8496
2038.57	13.848
2038.82	13.8471
2039.06	13.8451
2039.31	11.0472
2039.56	12.9085
2039.8	13.8386
2040.05	13.8383
2040.3	11.9756
2040.54	15.7062
2040.79	12.915
2041.03	11.9873
2041.28	15.7213
2041.52	13.8548
2041.77	11.9862
2042.02	14.7779
2042.26	11.971
2042.51	13.8458
2042.75	11.0544
2043	12.0012
2043.25	12.0206
2043.49	15.7553
2043.74	12.9365
2043.98	13.86
2044.23	11.9921
2044.47	14.7886
2044.72	12.9126
2044.97	12.9086
2045.21	15.7052
2045.46	14.7736
2045.7	11.9773
2045.95	11.9783
2046.19	16.6444
2046.44	11.9833
2046.69	13.8526
2046.93	11.9904
2047.18	14.7948
2047.42	13.8647
2047.67	12.9328
2047.91	15.7361
2048.16	10.1299
2048.41	15.7321
2048.65	14.7937
2048.9	12.9253
2049.14	13.8591
2049.39	14.7947
2049.63	11.0596
2049.88	15.7308
2050.12	12.9305
2050.37	11.9984
2050.62	15.7396
2050.86	12.9415
2051.11	13.8793
2051.35	12.0103
2051.6	12.946
2051.84	11.0747
2052.09	12.0094
2052.33	14.8146
2052.58	12.0054
2052.82	14.8087
2053.07	12.938
2053.31	14.8064
2053.56	12.9349
2053.8	13.8685
2054.05	13.8681
2054.3	12.9338
2054.54	14.8042
2054.79	13.8708
2055.03	12.0026
2055.28	13.8745
2055.52	15.7487
2055.77	13.8807
2056.01	14.8193
2056.26	12.9495
2056.5	12.9502
2056.75	12.9506
2056.99	13.8873
2057.24	14.8214
2057.48	11.0753
2057.73	15.7527
2057.97	12.0105
2058.22	12.012
2058.46	12.9494
2058.71	13.886
2058.95	11.0773
2059.2	12.9501
2059.45	10.1416
2059.69	13.8884
2059.94	13.8901
2060.18	12.0188
2060.43	12.0206
2060.67	12.0221
2060.92	12.9604
2061.16	12.9614
2061.4	13.8996
2061.65	12.9634
2061.9	12.0275
2062.14	13.9055
2062.39	11.0952
2062.63	12.0365
2062.88	16.7324
2063.12	14.858
2063.37	14.86
2063.61	13.9216
2063.86	13.9226
2064.1	15.8027
2064.34	10.1678
2064.59	12.0478
2064.83	13.9288
2065.08	12.9908
2065.32	13.9319
2065.57	13.9327
2065.81	13.9343
2066.06	12.0545
2066.3	14.8727
2066.55	13.9288
2066.79	13.9229
2067.04	12.9805
2067.28	13.9204
2067.53	12.9859
2067.77	12.9922
2068.02	12.9986
2068.26	12.9987
2068.51	15.8156
2068.75	13.0065
2069	13.9555
2069.24	12.0713
2069.48	13.9534
2069.73	13.9527
2069.97	15.8345
2070.22	13.951
2070.46	13.9502
2070.71	13.9505
2070.95	13.0092
2071.2	13.0098
2071.44	16.7778
2071.69	11.1293
2071.93	13.0162
2072.18	13.0203
2072.42	15.8544
2072.66	11.1456
2072.91	13.9808
2073.15	13.0395
2073.4	13.0399
2073.64	12.0962
2073.89	13.0389
2074.13	13.0361
2074.38	13.9767
2074.62	11.1408
2074.87	15.8539
2075.11	14.9122
2075.35	13.0286
2075.6	14.9165
2075.84	13.9741
2076.09	10.2013
2076.33	13.9784
2076.58	13.0409
2076.82	13.9879
2077.06	13.0455
2077.31	13.0474
2077.55	12.1041
2077.8	16.8293
2078.04	15.8824
2078.29	14.9362
2078.53	14.9355
2078.77	14.9353
2079.02	15.8791
2079.26	13.0456
2079.51	15.8812
2079.75	13.047
2080	14.9372
2080.24	12.1017
2080.48	13.991
2080.73	13.9902
2080.97	13.99
2081.22	11.1552
2081.46	15.8795
2081.7	13.9896
2081.95	14.9349
2082.19	14.9349
2082.44	13.9896
2082.68	14.9346
2082.93	11.1548
2083.17	13.0479
2083.41	12.1062
2083.66	11.1632
2083.9	13.0561
2084.14	14.9496
2084.39	15.8981
2084.63	14.9534
2084.88	14.9533
2085.12	12.1142
2085.36	13.0607
2085.61	10.2217
2085.85	14.0081
2086.1	12.1154
2086.34	18.7439
2086.58	14.9594
2086.83	13.0688
2087.07	14.9647
2087.32	14.9652
2087.56	13.0713
2087.8	13.0723
2088.05	14.0211
2088.29	11.1794
2088.54	14.9716
2088.78	13.0789
2089.02	14.0308
2089.27	13.0865
2089.51	15.9372
2089.75	13.0947
2090	14.9973
2090.24	15.0009
2090.48	15.9545
2090.73	13.1075
2090.97	15.011
2091.22	13.1123
2091.46	13.1131
2091.7	15.0144
2091.95	10.26
2092.19	12.1604
2092.43	15.0098
2092.68	15.0069
2092.92	15.0045
2093.17	14.0525
2093.41	12.1512
2093.65	12.1505
2093.9	12.1499
2094.14	13.098
2094.38	14.0449
2094.63	12.1429
2094.87	14.0403
2095.11	14.0393
2095.36	13.0893
2095.6	13.087
2095.84	13.0869
2096.09	12.1373
2096.33	14.0345
2096.57	14.0336
2096.82	14.0332
2097.06	13.0841
2097.3	14.0333
2097.55	14.0338
2097.79	12.1364
2098.03	13.0886
2098.28	14.9903
2098.52	14.9921
2098.76	14.0431
2099.01	12.1434
2099.25	14.0424
2099.5	14.0424
2099.74	14.9913
2099.98	14.0391
2100.22	12.1371
2100.47	12.1354
2100.71	15.9321
2100.95	14.0324
2101.2	13.0832
2101.44	16.8812
2101.68	14.0352
2101.93	14.0372
2102.17	13.0891
2102.41	14.991
2102.66	14.9941
2102.9	13.0963
2103.14	14.9985
2103.39	14.0493
2103.63	15.9512
2103.87	14.0503
2104.12	15.0021
2104.36	14.0519
2104.6	15.0009
2104.85	13.0969
2105.09	14.0437
2105.33	12.1396
2105.57	13.0859
2105.82	10.2341
2106.06	14.0308
2106.3	14.9806
2106.55	15.9335
2106.79	12.1373
2107.03	14.0372
2107.27	14.037
2107.52	14.9868
2107.76	14.0366
2108	14.0364
2108.25	12.1362
2108.49	12.1352
2108.73	15.9327
2108.98	13.0816
2109.22	13.0806
2109.46	14.9795
2109.7	12.1314
2109.95	14.982
2110.19	14.0336
2110.43	15.9369
2110.68	16.8906
2110.92	14.0408
2111.16	13.0895
2111.4	13.0881
2111.65	13.0876
2111.89	13.0879
2112.13	14.9889
2112.38	14.0376
2112.62	14.0363
2112.86	14.0349
2113.1	13.0834
2113.35	12.1308
2113.59	15.9274
2113.83	13.0765
2114.07	14.0252
2114.32	14.974
2114.56	12.1254
2114.8	14.9729
2115.04	15.9198
2115.29	10.2214
2115.53	16.8617
2115.77	12.113
2116.01	12.1099
2116.26	13.0555
2116.5	15.8968
2116.74	13.0496
2116.99	14.9425
2117.23	16.8352
2117.47	13.9914
2117.71	15.8866
2117.96	14.9411
2118.2	14.9424
2118.44	14.9454
2118.68	13.0523
2118.92	12.1066
2119.17	15.9035
2119.41	12.1109
2119.65	14.0106
2119.9	14.0123
2120.14	13.0645
2120.38	13.0655
2120.62	15.914
2120.86	14.9634
2121.11	14.9616
2121.35	12.1117
2121.59	14.0062
2121.83	14.0007
2122.08	13.9938
2122.32	12.0921
2122.56	15.8767
2122.8	13.0308
2123.04	13.0268
2123.29	13.9695
2123.53	13.0202
2123.77	13.9633
2124.01	13.0142
2124.26	14.9024
2124.5	16.7919
2124.74	16.7908
2124.98	13.9534
2125.22	12.061
2125.47	14.8957
2125.71	13.005
2125.95	13.9502
2126.19	13.9495
2126.44	15.8385
2126.68	13.947
2126.92	13.9462
2127.16	13.0003
2127.4	12.9993
2127.65	14.8879
2127.89	12.9967
2128.13	13.9396
2128.37	12.9928
2128.61	13.935
2128.86	16.7656
2129.1	12.987
2129.34	12.0413
2129.58	13.9266
2129.82	16.7549
2130.06	14.8657
2130.31	12.978
2130.55	16.7529
2130.79	12.9786
2131.03	12.0349
2131.27	14.8663
2131.52	12.9792
2131.76	16.7536
2132	11.0906
2132.24	14.8649
2132.48	13.9203
2132.73	14.8623
2132.97	12.9729
2133.21	11.0826
2133.45	16.736
2133.69	13.9051
2133.94	12.9625
2134.18	14.8485
2134.42	14.8485
2134.66	13.9069
2134.9	12.0234
2135.14	14.852
2135.39	14.8476
2135.63	12.0163
2135.87	14.8459
2136.11	15.7936
2136.35	10.1376
2136.59	12.9619
2136.84	13.8986
2137.08	12.9536
2137.32	11.0671
2137.56	13.8916
2137.8	13.8898
2138.04	14.8303
2138.28	14.829
2138.53	12.9453
2138.77	13.8844
2139.01	12.9396
2139.25	14.8207
2139.49	12.9378
2139.74	13.8813
2139.98	12.9418
2140.22	14.8359
2140.46	14.8319
2140.7	14.7974
2140.94	13.8532
2141.18	13.8561
2141.43	14.8006
2141.67	15.7459
2141.91	13.8677
2142.15	14.8008
2142.39	12.9203
2142.63	13.8611
2142.87	13.8603
2143.12	13.8589
2143.36	15.7377
2143.6	14.7962
2143.84	12.9149
2144.08	13.8533
2144.32	15.7306
2144.56	15.7282
2144.8	13.8472
2145.05	13.8455
2145.29	15.7222
2145.53	15.7201
2145.77	11.9618
2146.01	16.6542
2146.25	15.7119
2146.49	14.7696
2146.73	16.6395
2146.98	12.8839
2147.22	13.8178
2147.46	16.6269
2147.7	15.6875
2147.94	12.875
2148.18	13.8131
2148.42	14.7528
2148.66	14.7541
2148.9	16.6318
2149.15	15.6948
2149.39	15.6972
2149.63	13.8189
2149.87	12.8791
2150.11	15.6892
2150.35	15.6862
2150.59	13.8101
2150.83	14.7459
2151.07	12.8691
2151.31	15.6764
2151.56	13.7979
2151.8	12.8557
2152.04	13.7862
2152.28	13.7796
2152.52	14.7101
2152.76	11.9012
2153	14.7014
2153.24	15.6326
2153.48	14.6964
2153.72	17.498
2153.97	14.6949
2154.21	13.7605
2154.45	12.8271
2154.69	14.6972
2154.93	14.6997
2155.17	15.6367
2155.41	15.6372
2155.65	14.7022
2155.89	14.7014
2156.13	16.5692
2156.37	14.6979
2156.61	13.761
2156.86	13.7581
2157.1	14.6885
2157.34	12.8171
2157.58	13.7476
2157.82	15.6112
2158.06	14.6759
2158.3	15.6081
2158.54	11.8743
2158.78	11.8729
2159.02	15.6039
2159.26	16.5365
2159.5	14.6705
2159.74	15.603
2159.98	14.6687
2160.22	12.8011
2160.47	13.7321
2160.71	14.663
2160.95	16.526
2161.19	15.5915
2161.43	12.7918
2161.67	12.7882
2161.91	13.7175
2162.15	16.5127
2162.39	16.5143
2162.63	12.7869
2162.87	13.7188
2163.11	14.6506
2163.35	12.7853
2163.59	15.5786
2163.83	14.6446
2164.07	14.6416
2164.31	13.7079
2164.55	14.6356
2164.79	13.7003
2165.03	16.4846
2165.27	16.4769
2165.51	13.6846
2165.76	13.684
2166	16.4736
2166.24	15.5457
2166.48	14.6186
2166.72	15.5526
2166.96	15.5578
2167.2	14.6325
2167.44	16.4982
2167.68	15.5683
2167.92	15.5672
2168.16	14.633
2168.4	18.3553
2168.64	14.6256
2168.88	13.6855
2169.12	14.6095
2169.36	14.6063
2169.6	15.5328
2169.84	14.6013
2170.08	16.4588
2170.32	16.4583
2170.56	17.3869
2170.8	13.6713
2171.04	14.6021
2171.28	18.3207
2171.52	12.745
2171.76	14.6038
2172	15.5329
2172.24	14.6031
2172.48	13.6726
2172.72	14.6007
2172.96	15.5293
2173.2	14.5991
2173.44	14.5977
2173.68	15.5241
2173.92	14.5939
2174.16	13.6648
2174.4	15.5228
2174.64	15.523
2174.88	15.5223
2175.12	14.5939
2175.36	15.5214
2175.6	16.4456
2175.84	14.585
2176.08	14.5843
2176.32	12.7278
2176.56	15.5133
2176.8	14.5847
2177.04	14.5845
2177.28	14.5842
2177.52	15.5121
2177.76	15.5109
2178	15.5096
2178.24	14.5807
2178.48	16.4362
2178.72	17.3622
2178.96	16.4318
2179.2	15.5029
2179.44	18.2843
2179.68	17.3545
2179.92	16.4251
2180.16	14.5666
2180.4	17.3453
2180.64	13.6316
2180.88	14.5553
2181.12	15.4795
2181.35	15.477
2181.59	13.6229
2181.83	17.3293
2182.07	15.4775
2182.31	17.332
2182.55	16.4063
2182.79	15.4811
2183.03	11.7751
2183.27	14.5589
2183.51	15.4885
2183.75	19.2034
2183.99	13.6412
2184.23	15.5015
2184.47	15.5058
2184.71	12.7229
2184.95	15.51
2185.19	16.437
2185.43	17.3626
2185.67	16.4306
2185.91	16.4269
2186.15	14.5669
2186.38	15.4904
2186.62	16.4126
2186.86	17.3348
2187.1	14.5512
2187.34	16.4042
2187.58	16.4044
2187.82	16.4054
2188.06	14.5525
2188.3	19.188
2188.54	14.5528
2188.78	15.4811
2189.02	14.555
2189.26	16.411
2189.5	17.3397
2189.74	15.4858
2189.97	19.1992
2190.21	15.4907
2190.45	17.3492
2190.69	14.5679
2190.93	16.431
2191.17	16.439
2191.41	14.5853
2191.65	14.5878
2191.89	14.5871
2192.13	15.5146
2192.37	15.5129
2192.61	16.4396
2192.85	18.2942
2193.08	10.8581
2193.32	15.4968
2193.56	14.5633
2193.8	15.4875
2194.04	16.4121
2194.28	14.5539
2194.52	19.1891
2194.76	16.4062
2195	18.2617
2195.24	18.2633
2195.47	17.3395
2195.71	16.4156
2195.95	18.277
2196.19	15.497
2196.43	18.2884
2196.67	18.2942
2196.91	18.3001
2197.15	14.5882
2197.39	16.4571
2197.63	17.3957
2197.86	16.4712
2198.1	17.4078
2198.34	17.4119
2198.58	14.6106
2198.82	15.5266
2199.06	16.4233
2199.3	16.3985
2199.54	16.4066
2199.78	14.5761
2200.01	19.2398
2200.25	21.094
2200.49	16.4404
2200.73	18.3108
2200.97	16.5086
2201.21	18.3519
2201.45	20.2144
2201.69	18.3536
2201.92	17.4094
2202.16	18.3246
2202.4	17.3794
2202.64	16.4392
2202.88	17.3661
2203.12	16.4363
2203.36	18.2997
2203.59	19.231
2203.83	16.4342
2204.07	14.5755
2204.31	16.4372
2204.55	16.44
2204.79	13.6526
2205.03	18.3074
2205.27	18.3112
2205.5	14.5915
2205.74	16.456
2205.98	18.3205
2206.22	17.3911
2206.46	17.392
2206.7	18.3234
2206.93	18.3227
2207.17	15.5291
2207.41	16.4623
2207.65	15.5329
2207.89	18.3305
2208.13	16.4695
2208.37	18.3359
2208.6	17.4066
2208.84	16.4777
2209.08	17.4139
2209.32	18.3491
2209.56	16.4848
2209.8	16.4835
2210.03	15.549
2210.27	18.3452
2210.51	14.6124
2210.75	15.5417
2210.99	16.4746
2211.23	18.3427
2211.47	14.6182
2211.7	15.5573
2211.94	18.3591
2212.18	17.4271
2212.42	15.5609
2212.66	17.4287
2212.89	17.429
2213.13	14.628
2213.37	16.4949
2213.61	19.2953
2213.85	15.5599
2214.09	15.559
2214.32	15.5588
2214.56	16.4928
2214.8	13.6925
2215.04	19.2943
2215.28	19.2939
2215.51	16.4934
2215.75	17.4286
2215.99	17.4309
2216.23	17.4338
2216.47	16.5026
2216.71	17.4388
2216.94	15.5717
2217.18	17.4425
2217.42	18.3766
2217.66	15.5719
2217.9	16.5057
2218.13	15.5695
2218.37	16.5
2218.61	18.3634
2218.85	17.4254
2219.08	14.6211
2219.32	18.3529
2219.56	17.4187
2219.8	15.5527
2220.04	17.4221
2220.27	17.4245
2220.51	16.4933
2220.75	16.497
2220.99	17.4362
2221.23	17.4414
2221.46	17.4463
2221.7	16.5152
2221.94	16.5187
2222.18	14.6507
2222.42	15.5901
2222.65	16.5306
2222.89	15.5978
2223.13	15.6009
2223.37	17.4778
2223.6	15.6064
2223.84	17.484
2224.08	15.6124
2224.32	17.49
2224.55	16.5543
2224.79	15.6175
2225.03	14.6793
2225.27	16.5534
2225.5	17.4897
2225.74	18.4259
2225.98	18.4248
2226.22	17.4862
2226.46	16.5485
2226.69	19.3639
2226.93	11.8657
2227.17	14.6828
2227.41	17.5002
2227.64	16.5649
2227.88	18.4455
2228.12	15.6326
2228.36	16.5752
2228.59	15.6398
2228.83	14.7031
2229.07	14.7059
2229.31	18.4684
2229.54	16.5916
2229.78	13.7737
2230.02	16.5976
2230.26	16.6005
2230.49	15.6625
2230.73	17.5474
2230.97	17.5497
2231.21	16.6103
2231.44	16.6094
2231.68	14.7256
2231.92	16.6058
2232.16	17.5437
2232.39	14.7157
2232.63	16.5924
2232.87	16.5924
2233.11	16.5929
2233.34	16.5937
2233.58	15.654
2233.82	17.5356
2234.05	16.5958
2234.29	16.5994
2234.53	16.6028
2234.77	16.609
2235	17.5575
2235.24	17.5641
2235.48	16.6265
2235.72	17.5735
2235.95	17.5787
2236.19	19.4716
2236.43	15.6993
2236.66	18.528
2236.9	16.6389
2237.14	18.5203
2237.37	15.6872
2237.61	17.5705
2237.85	18.5202
2238.09	18.5277
2238.32	17.5853
2238.56	16.6427
2238.8	13.8129
2239.04	17.5885
2239.27	17.5899
2239.51	15.7039
2239.75	16.6497
2239.98	17.5941
2240.22	16.6493
2240.46	18.5349
2240.69	15.7005
2240.93	14.7554
2241.17	14.7548
2241.4	15.6988
2241.64	17.5888
2241.88	14.7613
2242.11	16.6561
2242.35	14.7724
2242.59	15.7209
2242.83	15.7239
2243.06	18.5636
2243.3	18.5673
2243.54	19.5163
2243.77	17.6262
2244.01	12.8979
2244.25	15.7386
2244.48	20.4722
2244.72	13.8478
2244.96	14.7939
2245.19	14.793
2245.43	17.6311
2245.67	13.8446
2245.91	14.7899
2246.14	17.6276
2246.38	16.6806
2246.61	13.8441
2246.85	16.6852
2247.09	15.7385
2247.32	17.6291
2247.56	16.6794
2247.8	15.7299
2248.03	15.726
2248.27	14.7773
2248.51	15.7205
2248.74	15.7194
2248.98	15.7198
2249.22	13.8302
2249.45	14.778
2249.69	18.5645
2249.93	17.6239
2250.16	14.793
2250.4	16.6929
2250.64	16.6977
2250.87	17.6493
2251.11	18.6003
2251.35	17.6557
2251.58	14.8135
2251.82	19.5547
2252.06	14.8122
2252.29	17.6572
2252.53	16.709
2252.77	13.8649
2253	14.8136
2253.24	14.8159
2253.48	16.7157
2253.71	15.7698
2253.95	15.7722
2254.18	15.7747
2254.42	11.9801
2254.66	17.6783
2254.89	12.9325
2255.13	14.8323
2255.37	14.8328
2255.6	14.8336
2255.84	18.6342
2256.08	18.6367
2256.31	15.789
2256.55	14.8403
2256.78	15.7917
2257.02	16.7438
2257.26	14.8444
2257.49	15.7963
2257.73	14.847
2257.96	16.7508
2258.2	15.8048
2258.44	12.0025
2258.67	13.9058
2258.91	20.5671
2259.15	13.9075
2259.38	16.7637
2259.62	14.8622
2259.85	15.8172
2260.09	17.7251
2260.33	14.8722
2260.56	15.8294
2260.8	15.8348
2261.03	15.8409
2261.27	15.8468
2261.51	16.8065
2261.74	14.9022
2261.98	14.9056
2262.21	14.9086
2262.45	15.8663
2262.69	14.9116
2262.92	13.9568
2263.16	13.0004
2263.39	14.9074
2263.63	12.9942
2263.87	14.8999
2264.1	12.9878
2264.34	13.9397
2264.57	15.8455
2264.81	15.8429
2265.05	15.8393
2265.28	13.9293
2265.52	17.7422
2265.75	16.7891
2265.99	12.9767
2266.22	14.887
2266.46	15.8449
2266.7	13.9405
2266.93	18.718
2267.17	13.9492
2267.4	13.9535
2267.64	16.8227
2267.87	15.869
2268.11	15.8724
2268.35	15.8751
2268.58	13.9646
2268.82	13.9664
2269.05	14.9255
2269.29	14.9269
2269.53	14.9271
2269.76	13.971
2270	16.8419
2270.23	13.9722
2270.47	14.9297
2270.7	13.0165
2270.94	12.06
2271.18	14.9317
2271.41	13.9752
2271.65	15.8901
2271.88	15.8909
2272.12	16.8492
2272.35	17.8074
2272.59	15.8936
2272.82	15.8929
2273.06	14.9375
2273.3	14.9409
2273.53	14.9445
2273.77	16.8643
2274	14.9506
2274.24	12.0777
2274.47	14.9586
2274.71	14.0046
2274.94	14.01
2275.18	14.9762
2275.41	14.9783
2275.65	14.0189
2275.88	17.8608
2276.12	12.0974
2276.36	16.8984
2276.59	15.9351
2276.83	15.9277
2277.06	14.9634
2277.3	13.0407
2277.53	15.9146
2277.77	15.9113
2278	14.9501
2278.24	15.9072
2278.47	13.988
2278.71	11.1111
2278.94	13.9878
2279.18	15.9059
2279.41	12.073
2279.65	15.9111
2279.89	13.0371
2280.12	14.9588
2280.36	15.9226
2280.59	16.8888
2280.83	14.015
2281.06	14.0208
2281.3	15.9502
2281.53	15.9544
2281.77	16.9179
2282	14.9976
2282.24	14.0387
2282.47	14.0396
2282.71	15.9647
2282.94	12.1125
2283.18	13.0694
2283.41	14.9924
2283.65	14.0315
2283.88	14.9957
2284.12	15.0026
2284.35	17.8971
2284.59	14.0475
2284.82	15.012
2285.06	13.0892
2285.29	15.9782
2285.53	15.0125
2285.76	14.047
2286	16.9331
2286.23	16.9278
2286.47	14.9967
2286.7	15.9535
2286.94	14.985
2287.17	14.0213
2287.41	16.9037
2287.64	16.9036
2287.88	15.9425
2288.11	14.9831
2288.35	14.987
2288.58	14.9919
2288.82	14.9952
2289.05	14.9976
2289.28	15.0001
2289.52	16.9286
2289.75	15.0063
2289.99	15.9729
2290.22	14.0485
2290.46	14.0505
2290.69	16.9433
2290.93	15.0165
2291.16	15.0152
2291.4	17.9043
2291.63	14.0473
2291.87	14.0445
2292.1	14.0423
2292.34	17.8926
2292.57	15.964
2292.81	15.9616
2293.04	16.9223
2293.28	13.0682
2293.51	14.9868
2293.74	15.9479
2293.98	15.9491
2294.21	16.9135
2294.45	14.0291
2294.68	14.0321
2294.92	15.9619
2295.15	13.0773
2295.39	12.1165
2295.62	13.0817
2295.86	15.9759
2296.09	16.944
2296.32	13.0901
2296.56	15.9859
2296.79	15.0228
2297.03	15.0224
2297.26	14.0577
2297.5	15.0218
2297.73	15.0234
2297.97	15.9908
2298.2	14.0626
2298.43	13.0989
2298.67	12.1344
2298.9	15.9956
2299.14	15.995
2299.37	15.0282
2299.61	16.9573
2299.84	15.9924
2300.07	14.0616
2300.31	12.1305
2300.54	14.0603
2300.78	14.0604
2301.01	15.0268
2301.25	13.0986
2301.48	15.9971
2301.71	14.0675
2301.95	12.1378
2302.18	13.1059
2302.42	14.0734
2302.65	14.0739
2302.89	15.0412
2303.12	14.0766
2303.35	15.0447
2303.59	14.0787
2303.82	17.9451
2304.05	15.045
2304.29	16.9775
2304.52	15.0429
2304.76	15.0408
2304.99	16.0058
2305.23	13.1056
2305.46	15.0365
2305.69	13.1041
2305.93	16.0031
2306.16	14.0727
2306.4	12.142
2306.63	16.9786
2306.86	16.0168
2307.1	17.9547
2307.33	15.0542
2307.57	14.087
2307.8	13.1191
2308.03	14.0848
2308.27	16.0156
2308.5	13.1067
2308.74	14.0639
2308.97	14.0587
2309.2	15.0203
2309.44	12.1224
2309.67	18.8752
2309.91	15.013
2310.14	15.0126
2310.37	15.9792
2310.61	12.1228
2310.84	13.093
2311.07	14.0627
2311.31	16.9656
2311.54	14.0709
2311.78	11.1752
2312.01	15.048
2312.24	16.0179
2312.48	13.1119
2312.71	15.0423
2312.94	14.0724
2313.18	16.0014
2313.41	15.0265
2313.65	11.1591
2313.88	10.1918
2314.11	15.0192
2314.35	16.9511
2314.58	15.0206
2314.81	16.9564
2315.05	15.027
2315.28	13.0901
2315.51	14.0534
2315.75	15.0169
2315.98	12.1182
2316.22	15.0116
2316.45	15.0092
2316.68	15.0074
2316.92	15.0062
2317.15	16.9359
2317.38	14.0414
2317.62	15.006
2317.85	13.0772
2318.08	15.0094
2318.32	14.0464
2318.55	15.98
2318.78	15.9834
2319.02	15.0217
2319.25	15.0263
2319.48	18.8966
2319.72	15.0315
2319.95	15.0306
2320.19	15.0311
2320.42	16.9658
2320.65	16.9666
2320.89	16.9677
2321.12	16.001
2321.35	16.9672
2321.58	15.9993
2321.82	17.9286
2322.05	15.0236
2322.28	17.9162
2322.52	17.9118
2322.75	19.8394
2322.98	15.0081
2323.22	15.97
2323.45	18.8615
2323.68	16.9276
2323.92	19.8176
2324.15	21.7419
2324.38	19.8085
2324.62	24.6257
2324.85	26.5492
2325.08	24.6184
2325.32	26.5472
2325.55	32.3304
2325.78	31.3672
2326.02	33.2881
2326.25	36.1721
2326.48	41.9418
2326.71	48.68
2326.95	59.2722
2327.18	84.325
2327.41	105.509
2327.65	142.1
2327.88	175.793
2328.11	173.861
2328.35	124.757
2328.58	90.0995
2328.81	64.1032
2329.05	49.6645
2329.28	34.2366
2329.51	34.2298
2329.75	29.4094
2329.98	26.5165
2330.21	25.55
2330.44	21.696
2330.68	20.7308
2330.91	16.8788
2331.14	17.8386
2331.38	17.8354
2331.61	15.9067
2331.84	14.9423
2332.07	15.9023
2332.31	15.9016
2332.54	18.7853
2332.77	14.9393
2333	16.8636
2333.24	14.9395
2333.47	15.8993
2333.7	14.9366
2333.94	17.8203
2334.17	15.8964
2334.4	15.8955
2334.63	13.9718
2334.87	15.8931
2335.1	14.9305
2335.33	14.9297
2335.56	12.0453
2335.8	17.8116
2336.03	13.9673
2336.26	16.8511
2336.5	15.8897
2336.73	17.8114
2336.96	13.9653
2337.19	14.9244
2337.43	14.9216
2337.66	13.9582
2337.89	14.9153
2338.12	15.8712
2338.36	15.8658
2338.59	15.8595
2338.82	12.9771
2339.05	11.0564
2339.29	17.7667
2339.52	13.9287
2339.75	15.8443
2339.98	13.9259
2340.22	13.9255
2340.45	13.9254
2340.68	12.0075
2340.91	14.8824
2341.15	15.841
2341.38	14.8833
2341.61	13.925
2341.84	13.9244
2342.08	15.8404
2342.31	14.8801
2342.54	13.9191
2342.77	11.041
2343.01	12.9546
2343.24	12.9519
2343.47	11.9932
2343.7	13.9075
2343.93	16.7793
2344.17	13.9052
2344.4	14.8613
2344.63	15.8182
2344.86	12.9462
2345.1	15.8193
2345.33	13.9058
2345.56	13.9067
2345.79	17.7372
2346.03	14.8626
2346.26	15.8173
2346.49	12.9392
2346.72	13.8901
2346.95	12.9267
2347.19	12.9187
2347.42	15.7736
2347.65	11.9382
2347.88	11.9124
2348.12	13.8382
2348.35	15.7991
2348.58	12.9424
2348.81	13.8704
2349.04	12.9006
2349.28	13.8562
2349.51	12.9032
2349.74	15.7569
2349.97	15.7422
2350.2	15.7308
2350.44	14.7823
2350.67	13.828
2350.9	15.73
2351.13	15.7302
2351.36	12.8721
2351.6	13.8279
2351.83	14.7838
2352.06	11.9245
2352.29	12.8764
2352.52	15.7332
2352.76	13.8262
2352.99	11.9193
2353.22	13.8218
2353.45	14.7692
2353.68	13.8103
2353.92	15.7074
2354.15	12.8508
2354.38	11.8975
2354.61	15.6983
2354.84	11.8933
2355.07	15.6934
2355.31	13.7908
2355.54	12.8391
2355.77	15.6865
2356	14.7347
2356.23	13.7835
2356.46	15.6823
2356.7	10.9313
2356.93	14.7277
2357.16	12.8254
2357.39	13.7715
2357.62	14.717
2357.86	13.7646
2358.09	13.7612
2358.32	11.8609
2358.55	13.7539
2358.78	11.8546
2359.01	11.8513
2359.25	13.7424
2359.48	10.8972
2359.71	12.7883
2359.94	14.6789
2360.17	16.5691
2360.4	13.7272
2360.63	10.8866
2360.87	16.5621
2361.1	13.7218
2361.33	11.8278
2361.56	14.6631
2361.79	14.6607
2362.02	11.8224
2362.26	16.5467
2362.49	9.92694
2362.72	11.8115
2362.95	15.5807
2363.18	13.6857
2363.41	10.8529
2363.64	12.7393
2363.88	15.5709
2364.11	14.6336
2364.34	13.6976
2364.57	13.7036
2364.8	16.537
