#Acq. time (s)=	30
#Accumulations=	2
#Range (cm-¹)=	1200...2400
#Windows=	4
#Auto scanning=	Off
#Autofocus=	Off
#Macrospot=	Off
#AutoExposure=	Off
#Spike filter=	Multiple accum.
#Delay time (s)=	2
#Binning=	1
#Readout mode=	Signal
#DeNoise=	Off
#ICS correction=	On
#Dark correction=	Off
#Inst. Process=	Off
#Detector Gain=	Best Dynamic
#Detector ADC=	50 kHz HS
#Detector temperature (°C)=	-60.09
#Instrument=	LabRAM HR Evol
#Detector=	SIN-EM FIVIS
#Objective=	x100_VIS
#Grating=	1800 (450-850nm)
#ND Filter=	100%
#Laser=	532nm_Edge
#Hole=	49.98
#Temperature=	0
#Range=	Visible
#StageXY=	75x50mm Scan+
#StageZ=	Z motor
#X (µm)=	0
#Y (µm)=	0
#Z (µm)=	-249
#Full time(mm:ss)=	4:28
#Project=	21_11_04
#Sample=	BU19w
#Site=	
#Title=	BU19w-E-FF11b-FI08-V_1800 (450-850nm)_532nm_Edge_100%_x100_VIS_H50um_30sX2
#Remark=	
#Date=	04.11.2021 17:37
#Acquired=	04.11.2021 17:37:20
1200.19	25.3215
1200.46	26.3951
1200.74	28.5357
1201.02	25.2864
1201.3	24.1951
1201.57	24.1842
1201.85	24.1849
1202.13	28.5094
1202.41	26.4062
1202.69	27.462
1202.96	34.9873
1203.24	31.7249
1203.52	27.4203
1203.8	28.4796
1204.08	28.4918
1204.35	25.2641
1204.63	25.2574
1204.91	33.8407
1205.19	29.5315
1205.47	26.2968
1205.74	31.6487
1206.02	29.4892
1206.3	26.2598
1206.58	27.3193
1206.85	36.9489
1207.13	27.3039
1207.41	26.2272
1207.69	28.3639
1207.97	30.4972
1208.24	29.418
1208.52	29.4104
1208.8	27.2655
1209.08	29.4017
1209.36	28.3312
1209.63	28.3274
1209.91	32.5941
1210.19	25.1027
1210.46	30.4325
1210.74	25.085
1211.02	30.4115
1211.3	31.4682
1211.57	29.3231
1211.85	28.2472
1212.13	32.5019
1212.41	32.4923
1212.69	30.3538
1212.96	31.4135
1213.24	26.0849
1213.52	31.4051
1213.79	32.4711
1214.07	29.278
1214.35	32.4722
1214.63	31.4068
1214.9	31.4055
1215.18	28.2102
1215.46	26.077
1215.74	30.3255
1216.01	29.2499
1216.29	31.3639
1216.57	32.4156
1216.85	30.281
1217.12	30.2721
1217.4	27.0785
1217.68	32.3807
1217.95	31.3119
1218.23	26.0004
1218.51	29.1815
1218.79	25.9959
1219.06	27.0545
1219.34	31.2927
1219.62	30.2286
1219.89	29.1681
1220.17	30.2278
1220.45	31.2868
1220.73	32.3422
1221	30.2166
1221.28	28.0899
1221.56	34.4383
1221.84	31.2463
1222.11	29.1139
1222.39	31.2153
1222.67	34.3748
1222.94	28.015
1223.22	25.8919
1223.5	33.2768
1223.77	31.1542
1224.05	25.8688
1224.33	29.0306
1224.61	35.3616
1224.88	36.4173
1225.16	33.2564
1225.44	29.0363
1225.71	33.2622
1225.99	34.3154
1226.27	32.2001
1226.54	34.305
1226.82	32.1846
1227.1	34.2712
1227.37	34.2423
1227.65	35.2754
1227.93	33.1455
1228.21	34.1675
1228.48	32.0493
1228.76	35.2347
1229.03	37.4267
1229.31	30.0729
1229.59	34.261
1229.86	37.397
1230.14	31.0719
1230.42	31.0677
1230.69	34.1837
1230.97	33.0983
1231.25	30.9997
1231.52	38.3547
1231.8	27.8444
1232.08	33.0956
1232.35	35.1956
1232.63	37.2938
1232.91	29.938
1233.18	36.2411
1233.46	33.0921
1233.74	32.0444
1234.01	35.2005
1234.29	32.0536
1234.57	36.2617
1234.84	38.367
1235.12	33.1149
1235.4	35.2214
1235.67	36.2745
1235.95	34.1693
1236.23	36.2669
1236.5	29.9547
1236.78	35.2
1237.06	34.1373
1237.33	29.9251
1237.61	37.2619
1237.88	34.1004
1238.16	30.9421
1238.44	29.8866
1238.71	33.0273
1238.99	34.0716
1239.27	31.972
1239.54	36.1632
1239.82	37.2106
1240.1	36.1627
1240.37	36.1641
1240.65	31.9731
1240.92	31.9736
1241.2	35.1125
1241.48	36.1545
1241.75	33.0082
1242.03	31.9629
1242.3	38.2521
1242.58	30.923
1242.86	29.8764
1243.13	34.0677
1243.41	35.118
1243.68	33.0237
1243.96	37.2146
1244.24	33.0194
1244.51	36.1596
1244.79	34.0541
1245.06	38.236
1245.34	32.9848
1245.62	41.3505
1245.89	36.1138
1246.17	39.2512
1246.44	37.1593
1246.72	37.1572
1247	34.0143
1247.27	32.9673
1247.55	39.2392
1247.82	37.1317
1248.1	31.8988
1248.38	33.9902
1248.65	36.085
1248.93	38.1783
1249.2	42.3586
1249.48	30.8535
1249.75	39.2189
1250.03	35.0265
1250.31	35.0177
1250.58	37.1005
1250.86	32.914
1251.13	38.1319
1251.41	33.9471
1251.69	33.9409
1251.96	40.1994
1252.24	32.884
1252.51	34.9647
1252.79	40.1771
1253.06	37.0442
1253.34	37.0467
1253.61	34.9656
1253.89	37.0605
1254.17	37.0667
1254.44	39.1569
1254.72	39.1582
1254.99	34.983
1255.27	39.1592
1255.54	40.203
1255.82	45.4268
1256.09	47.5206
1256.37	39.1696
1256.65	42.3036
1256.92	44.3884
1257.2	49.6047
1257.47	46.4679
1257.75	40.1994
1258.02	41.2401
1258.3	43.3201
1258.57	40.1824
1258.85	41.2283
1259.13	45.4068
1259.4	47.5119
1259.67	46.4709
1259.95	46.4603
1260.23	50.6204
1260.5	51.6481
1260.78	55.81
1261.05	55.8026
1261.33	56.8739
1261.6	67.3777
1261.88	66.4369
1262.15	76.8377
1262.43	76.7328
1262.7	75.5958
1262.98	79.8032
1263.25	75.6959
1263.53	66.3479
1263.8	64.3341
1264.08	62.2212
1264.35	54.8756
1264.63	55.9145
1264.9	48.6005
1265.18	42.32
1265.45	56.9444
1265.73	50.6767
1266	49.6367
1266.28	46.509
1266.55	48.6093
1266.83	46.5301
1267.1	46.5432
1267.38	45.5108
1267.66	40.2938
1267.93	45.5501
1268.2	49.7508
1268.48	48.7119
1268.75	48.7195
1269.03	45.5811
1269.31	44.5253
1269.58	45.5616
1269.85	49.7364
1270.13	41.3515
1270.4	47.6216
1270.68	41.3365
1270.95	54.937
1271.23	47.6079
1271.5	48.6617
1271.78	48.6743
1272.05	46.5956
1272.33	40.3274
1272.6	45.5759
1272.88	43.4921
1273.15	55.0349
1273.43	49.8065
1273.7	46.6717
1273.98	44.5793
1274.25	44.5798
1274.53	54.0188
1274.8	48.7765
1275.07	44.5866
1275.35	48.7913
1275.62	54.0485
1275.9	46.7124
1276.17	50.9207
1276.45	46.7291
1276.72	55.14
1277	54.103
1277.27	53.0654
1277.54	48.8731
1277.82	52.0361
1278.1	63.6147
1278.37	57.3191
1278.64	63.6406
1278.92	64.697
1279.19	72.0564
1279.47	77.3081
1279.74	86.7666
1280.02	86.7681
1280.29	106.759
1280.56	141.491
1280.84	175.206
1281.11	226.825
1281.39	316.308
1281.66	421.579
1281.94	538.495
1282.21	638.509
1282.49	750.966
1282.76	768.289
1283.03	699.438
1283.31	550.133
1283.58	420.788
1283.86	300.502
1284.13	212.302
1284.41	151.222
1284.68	134.322
1284.95	105.828
1285.23	93.1727
1285.5	74.2342
1285.78	79.5132
1286.05	63.7044
1286.32	63.6997
1286.6	62.6455
1286.87	56.3229
1287.15	58.4184
1287.42	59.4613
1287.69	55.2484
1287.97	48.9351
1288.24	48.9365
1288.52	54.2045
1288.79	48.9504
1289.06	55.2764
1289.34	53.181
1289.61	47.9261
1289.89	47.9326
1290.16	43.7143
1290.43	47.9234
1290.71	51.0817
1290.98	44.762
1291.26	45.8147
1291.53	41.5996
1291.8	45.8148
1292.08	46.8713
1292.35	51.0773
1292.62	45.8102
1292.9	43.7086
1293.17	41.6216
1293.45	41.6374
1293.72	38.4921
1293.99	46.9255
1294.27	44.8182
1294.54	41.6503
1294.82	46.9387
1295.09	36.4079
1295.36	40.6535
1295.64	36.4561
1295.91	44.9208
1296.18	40.6946
1296.46	39.6377
1296.73	39.6315
1297.01	38.5676
1297.28	45.9545
1297.55	41.7189
1297.83	44.8791
1298.1	40.6617
1298.37	36.4313
1298.65	40.6489
1298.92	42.7547
1299.19	38.5273
1299.47	41.6966
1299.74	38.5367
1300.02	41.707
1300.29	39.5953
1300.56	35.3701
1300.84	42.7606
1301.11	40.6529
1301.38	42.7723
1301.65	35.3842
1301.93	38.5554
1302.2	43.8377
1302.47	38.5548
1302.75	35.3831
1303.02	40.6587
1303.29	37.4858
1303.57	45.9329
1303.84	39.598
1304.12	43.8218
1304.39	42.7636
1304.66	36.4231
1304.94	41.6938
1305.21	31.1315
1305.48	36.3996
1305.75	36.3914
1306.03	35.3312
1306.3	36.3839
1306.57	38.4947
1306.85	39.552
1307.12	32.1694
1307.39	36.3878
1307.67	39.5532
1307.94	38.4984
1308.21	34.2789
1308.49	40.6116
1308.76	40.6177
1309.03	40.6237
1309.31	37.4633
1309.58	35.3543
1309.85	37.4631
1310.13	40.6276
1310.4	35.3521
1310.67	35.3539
1310.94	37.4665
1311.22	37.4684
1311.49	36.4177
1311.76	35.3682
1312.04	35.3723
1312.31	38.5419
1312.58	39.5931
1312.85	39.5885
1313.13	37.4761
1313.4	35.3614
1313.67	34.3042
1313.95	33.2496
1314.22	33.2522
1314.49	38.5346
1314.76	37.4837
1315.04	34.3203
1315.31	38.5495
1315.58	34.3276
1315.86	37.4941
1316.13	32.2115
1316.4	36.4347
1316.67	37.4902
1316.95	37.4921
1317.22	34.3284
1317.49	37.5004
1317.77	31.1641
1318.04	37.5039
1318.31	36.4481
1318.58	38.5608
1318.86	34.3339
1319.13	34.3326
1319.4	34.3328
1319.67	34.3345
1319.95	36.447
1320.22	38.5565
1320.49	35.3814
1320.76	39.5964
1321.04	41.6958
1321.31	36.4087
1321.58	37.4555
1321.85	39.5571
1322.13	36.3876
1322.4	37.4373
1322.67	35.3216
1322.94	26.8852
1323.22	33.214
1323.49	34.2698
1323.76	37.4328
1324.03	38.4873
1324.31	38.4866
1324.58	37.4338
1324.85	36.3771
1325.12	40.581
1325.4	36.3474
1325.67	33.1641
1325.94	38.4082
1326.21	38.3995
1326.48	32.0893
1326.76	32.1069
1327.03	35.2827
1327.3	38.4557
1327.57	37.4159
1327.85	36.3765
1328.12	35.335
1328.39	33.2347
1328.66	33.2317
1328.93	38.508
1329.21	34.289
1329.48	30.0672
1329.75	36.3937
1330.02	35.3335
1330.3	39.5445
1330.57	32.1546
1330.84	34.2522
1331.11	33.184
1331.38	32.1175
1331.66	35.266
1331.93	35.2561
1332.2	39.4534
1332.47	35.2324
1332.74	37.3232
1333.01	34.1583
1333.29	39.402
1333.56	32.0378
1333.83	37.28
1334.1	39.3702
1334.37	37.2619
1334.65	39.3535
1334.92	36.1982
1335.19	38.2898
1335.46	36.1856
1335.73	39.3258
1336.01	33.0291
1336.28	37.2184
1336.55	37.2146
1336.82	35.1149
1337.09	35.1121
1337.37	35.1076
1337.64	36.1441
1337.91	36.1381
1338.18	32.9913
1338.45	35.0795
1338.72	39.2658
1339	32.983
1339.27	34.0324
1339.54	38.2229
1339.81	37.176
1340.08	34.0362
1340.35	36.1315
1340.63	37.1773
1340.9	35.0811
1341.17	34.0311
1341.44	39.2617
1341.71	35.0675
1341.98	36.1059
1342.26	36.096
1342.53	35.0416
1342.8	38.1761
1343.07	32.9445
1343.34	38.173
1343.61	35.0356
1343.88	36.0822
1344.16	38.173
1344.43	35.0312
1344.7	35.0247
1344.97	40.2421
1345.24	35.005
1345.51	32.9066
1345.79	32.8937
1346.06	38.0972
1346.33	33.9124
1346.6	35.9885
1346.87	40.149
1347.14	34.9263
1347.41	34.9209
1347.68	38.0439
1347.95	35.9565
1348.23	28.6582
1348.5	38.0307
1348.77	35.9401
1349.04	34.8917
1349.31	34.8855
1349.58	33.8381
1349.86	40.078
1350.13	35.9068
1350.4	34.8574
1350.67	35.8902
1350.94	41.0835
1351.21	36.9163
1351.48	42.1135
1351.75	35.8757
1352.02	37.9613
1352.3	40.0516
1352.57	37.9796
1352.84	39.0369
1353.11	39.0738
1353.38	40.1232
1353.65	37.994
1353.92	40.0218
1354.19	43.117
1354.46	42.0833
1354.73	31.6895
1355.01	33.7534
1355.28	38.9487
1355.55	36.8893
1355.82	38.9581
1356.09	37.9144
1356.36	36.8723
1356.63	36.8693
1356.9	38.9422
1357.17	43.09
1357.44	41.0067
1357.71	40.9995
1357.99	40.9921
1358.26	37.8728
1358.53	35.7893
1358.8	43.0438
1359.07	34.7418
1359.34	34.7374
1359.61	40.9454
1359.88	44.0434
1360.15	42.995
1360.42	40.9176
1360.69	34.7006
1360.96	40.9157
1361.23	41.9491
1361.5	44.0181
1361.78	46.0829
1362.05	40.9015
1362.32	40.8977
1362.59	41.9332
1362.86	41.9375
1363.13	45.0527
1363.4	42.9856
1363.67	48.1701
1363.94	46.0953
1364.21	48.1636
1364.48	39.8723
1364.75	40.8997
1365.02	40.8904
1365.29	46.0556
1365.56	45.0107
1365.83	41.897
1366.11	43.9551
1366.38	43.9415
1366.65	44.9617
1366.92	41.8564
1367.19	44.9552
1367.46	47.0293
1367.73	49.0995
1368	47.035
1368.27	62.545
1368.54	85.2943
1368.81	77.0297
1369.08	66.691
1369.35	50.1408
1369.62	47.0342
1369.89	47.0268
1370.16	48.0494
1370.43	47.0097
1370.7	51.1314
1370.97	46.9855
1371.24	42.8397
1371.51	47.9824
1371.78	45.9019
1372.05	43.8251
1372.32	45.877
1372.59	46.9007
1372.86	46.8947
1373.13	41.7366
1373.4	47.9153
1373.67	49.9723
1373.94	50.9992
1374.21	54.0864
1374.48	55.1113
1374.75	53.0477
1375.02	53.0519
1375.29	53.0553
1375.56	52.026
1375.83	52.0226
1376.1	61.2789
1376.37	60.2325
1376.64	59.1802
1376.91	54.0235
1377.18	65.354
1377.45	61.2562
1377.72	60.2525
1377.99	67.4988
1378.26	64.4329
1378.53	58.2525
1378.8	68.5574
1379.07	68.5484
1379.34	68.5376
1379.61	70.5805
1379.88	69.5063
1380.15	69.462
1380.42	69.428
1380.69	68.394
1380.96	76.6214
1381.23	73.5105
1381.5	72.4472
1381.77	86.7933
1382.04	86.7605
1382.31	83.6476
1382.58	87.7248
1382.85	91.8007
1383.12	105.111
1383.39	103.041
1383.66	119.439
1383.93	128.671
1384.2	147.146
1384.47	185.121
1384.74	207.761
1385.01	286.853
1385.28	376.246
1385.55	552.898
1385.82	868.279
1386.09	1306.99
1386.36	1678.91
1386.62	1688.04
1386.89	1258.9
1387.16	796.922
1387.43	466.576
1387.7	301.079
1387.97	229.864
1388.24	183.015
1388.51	146.274
1388.78	124.74
1389.05	99.0967
1389.32	86.7689
1389.59	86.7269
1389.86	79.4667
1390.13	76.4053
1390.4	74.3224
1390.67	66.1054
1390.94	65.0791
1391.21	65.0686
1391.47	64.0279
1391.74	61.9632
1392.01	59.9031
1392.28	56.8226
1392.55	59.8865
1392.82	59.8802
1393.09	57.8275
1393.36	51.6821
1393.63	52.7015
1393.9	57.8145
1394.17	50.6487
1394.44	50.6475
1394.71	57.8209
1394.97	56.8057
1395.24	49.6465
1395.51	52.7182
1395.78	46.5737
1396.05	51.6867
1396.32	56.797
1396.59	46.5575
1396.86	44.5017
1397.13	54.7237
1397.4	53.6976
1397.66	53.6987
1397.93	49.6118
1398.2	45.5251
1398.47	45.528
1398.74	50.6481
1399.01	49.6328
1399.28	40.4268
1399.55	49.641
1399.82	47.5958
1400.09	44.5334
1400.35	48.6386
1400.62	51.7138
1400.89	44.5463
1401.16	52.743
1401.43	49.6765
1401.7	50.7221
1401.97	49.7265
1402.24	54.8832
1402.5	48.7474
1402.77	48.7601
1403.04	49.7919
1403.31	49.7887
1403.58	47.7189
1403.85	52.8351
1404.12	52.8384
1404.39	48.7298
1404.65	51.8004
1404.92	50.7657
1405.19	61.0105
1405.46	62.0255
1405.73	58.9419
1406	66.111
1406.27	64.0594
1406.54	74.3133
1406.8	81.495
1407.07	85.6021
1407.34	95.8599
1407.61	106.119
1407.88	110.227
1408.15	109.209
1408.42	97.9372
1408.68	86.6644
1408.95	79.4919
1409.22	66.1626
1409.49	64.1145
1409.76	55.9036
1410.03	53.8402
1410.29	50.7488
1410.56	49.7099
1410.83	48.6751
1411.1	45.5937
1411.37	45.5891
1411.64	44.5663
1411.9	44.5748
1412.17	45.6159
1412.44	44.6323
1412.71	38.5176
1412.98	45.713
1413.25	43.6031
1413.51	37.4239
1413.78	35.3889
1414.05	36.4394
1414.32	35.4193
1414.59	40.5524
1414.86	39.5267
1415.12	33.3671
1415.39	38.5028
1415.66	44.6673
1415.93	35.4293
1416.2	45.7033
1416.47	39.5457
1416.73	32.3595
1417	41.6104
1417.27	40.5868
1417.54	33.3956
1417.81	37.5067
1418.07	35.4541
1418.34	36.4822
1418.61	35.4565
1418.88	34.4278
1419.15	32.368
1419.41	33.389
1419.68	35.4373
1419.95	39.5387
1420.22	36.4501
1420.49	39.5224
1420.75	36.4369
1421.02	40.5413
1421.29	39.5195
1421.56	32.3462
1421.83	35.4361
1422.09	32.3688
1422.36	34.444
1422.63	36.539
1422.9	34.5037
1423.17	37.4229
1423.43	34.3622
1423.7	38.443
1423.97	31.2366
1424.24	35.3584
1424.5	40.4753
1424.77	35.402
1425.04	40.4956
1425.31	35.3916
1425.58	36.4182
1425.84	31.2869
1426.11	31.2794
1426.38	38.4488
1426.65	35.3629
1426.91	35.3528
1427.18	36.3605
1427.45	33.2804
1427.72	30.2047
1427.98	31.2278
1428.25	33.277
1428.52	35.3275
1428.79	35.3309
1429.06	31.2387
1429.32	31.2442
1429.59	32.2765
1429.86	35.3605
1430.12	34.3417
1430.39	34.3547
1430.66	33.345
1430.93	33.3543
1431.2	33.3582
1431.46	35.4091
1431.73	39.5052
1432	31.2895
1432.26	29.2341
1432.53	36.4007
1432.8	32.2874
1433.07	31.2489
1433.33	34.3105
1433.6	33.2804
1433.87	30.2087
1434.14	33.3005
1434.4	29.2037
1434.67	31.2543
1434.94	31.2543
1435.21	33.3029
1435.47	24.0794
1435.74	31.2501
1436.01	30.2235
1436.28	33.294
1436.54	35.3397
1436.81	28.1675
1437.08	30.2152
1437.34	31.236
1437.61	33.284
1437.88	33.2874
1438.15	33.2921
1438.41	34.319
1438.68	30.2225
1438.95	34.3237
1439.21	30.231
1439.48	31.2636
1439.75	31.2709
1440.01	33.325
1440.28	32.3012
1440.55	32.3024
1440.82	32.3029
1441.08	24.0965
1441.35	28.1943
1441.62	32.2962
1441.88	31.2754
1442.15	34.355
1442.42	29.2299
1442.69	29.2259
1442.95	29.2214
1443.22	29.2178
1443.49	28.1906
1443.75	29.2158
1444.02	28.1949
1444.29	34.3559
1444.55	30.2625
1444.82	29.2416
1445.09	28.2133
1445.35	28.2109
1445.62	30.2602
1445.89	29.2323
1446.15	29.2302
1446.42	25.1259
1446.69	30.2513
1446.95	30.2481
1447.22	33.3204
1447.49	28.1923
1447.76	26.1437
1448.02	28.2001
1448.29	31.2816
1448.56	30.2572
1448.82	29.2306
1449.09	30.2533
1449.35	33.3254
1449.62	30.2443
1449.89	29.2154
1450.15	30.2381
1450.42	30.2359
1450.69	31.2586
1450.96	28.1815
1451.22	26.1295
1451.49	27.1518
1451.75	30.2238
1452.02	31.2479
1452.29	28.1751
1452.55	31.2513
1452.82	28.1807
1453.09	31.2572
1453.35	30.2317
1453.62	28.1803
1453.89	30.229
1454.15	32.2786
1454.42	30.2292
1454.68	28.1785
1454.95	29.2017
1455.22	26.1307
1455.48	30.2342
1455.75	26.1363
1456.02	27.1607
1456.28	27.1575
1456.55	31.2513
1456.82	29.1987
1457.08	29.1968
1457.35	27.1463
1457.61	28.1703
1457.88	26.1219
1458.15	31.2453
1458.41	31.2472
1458.68	30.2239
1458.95	27.1515
1459.21	25.1024
1459.48	31.2485
1459.74	26.1242
1460.01	27.1468
1460.28	29.1931
1460.54	29.1897
1460.81	29.1862
1461.08	30.2064
1461.34	28.1543
1461.61	26.1024
1461.87	26.0976
1462.14	27.1156
1462.41	28.1327
1462.67	25.058
1462.94	31.1873
1463.2	25.0476
1463.47	25.0496
1463.74	31.1982
1464	30.1874
1464.27	20.9851
1464.53	26.118
1464.8	26.0703
1465.07	23.9943
1465.33	31.1219
1465.6	26.0263
1465.86	28.0739
1466.13	27.0451
1466.39	26.0126
1466.66	23.9752
1466.93	28.0561
1467.19	29.0744
1467.46	28.0524
1467.72	26.0116
1467.99	24.9912
1468.26	28.0507
1468.52	29.0686
1468.79	22.9465
1469.05	29.062
1469.32	25.9969
1469.58	29.0489
1469.85	24.9678
1470.12	22.9269
1470.38	28.0186
1470.65	23.9421
1470.91	29.0306
1471.18	25.9701
1471.44	25.9673
1471.71	28.0026
1471.97	24.947
1472.24	28.0012
1472.51	28.0003
1472.77	27.9976
1473.04	25.9572
1473.3	26.9715
1473.57	27.9863
1473.83	25.9497
1474.1	26.968
1474.36	26.9714
1474.63	27.9902
1474.9	25.9547
1475.16	29.0069
1475.43	27.986
1475.69	26.9645
1475.96	23.9103
1476.22	27.9775
1476.49	26.9551
1476.75	24.9172
1477.02	22.8821
1477.29	26.9493
1477.55	28.9824
1477.81	24.9109
1478.08	27.9559
1478.34	27.952
1478.61	33.0292
1478.88	28.9591
1479.14	22.858
1479.41	28.9474
1479.67	23.8629
1479.94	25.8851
1480.2	31.9676
1480.47	28.9185
1480.73	25.8716
1481	27.8984
1481.26	30.9456
1481.53	21.8178
1481.79	27.9118
1482.06	27.9171
1482.32	25.8895
1482.59	26.9058
1482.85	21.8316
1483.12	26.9099
1483.38	28.9406
1483.65	28.936
1483.92	23.8488
1484.18	25.8598
1484.44	34.9462
1484.71	19.7319
1484.97	23.7647
1485.24	28.8314
1485.5	21.7841
1485.77	21.7916
1486.03	29.8951
1486.3	26.8422
1486.56	24.826
1486.83	21.7858
1487.09	24.819
1487.36	27.8527
1487.62	28.8614
1487.89	30.8812
1488.15	32.8988
1488.42	24.7952
1488.68	24.7913
1488.95	28.8361
1489.21	27.8221
1489.48	27.8209
1489.74	27.8208
1490.01	27.8194
1490.27	29.8382
1490.54	30.8435
1490.8	28.8165
1491.07	23.7592
1491.33	27.8025
1491.6	25.781
1491.86	28.8145
1492.12	26.7914
1492.39	24.7683
1492.65	25.7789
1492.92	26.789
1493.18	24.7658
1493.45	22.7436
1493.71	23.7552
1493.98	27.801
1494.24	28.8132
1494.51	28.8109
1494.77	29.8157
1495.04	24.7543
1495.3	29.7962
1495.56	28.7792
1495.83	28.7745
1496.09	24.7329
1496.36	28.7669
1496.62	27.7553
1496.89	24.7274
1497.15	24.7266
1497.42	24.7255
1497.68	23.7161
1497.94	22.7073
1498.21	29.7726
1498.47	26.7458
1498.74	25.7379
1499	24.7304
1499.27	26.7517
1499.53	28.7727
1499.8	25.7446
1500.06	27.7632
1500.32	28.772
1500.59	30.7897
1500.85	30.7847
1501.12	28.7622
1501.38	23.7151
1501.64	28.76
1501.91	25.7315
1502.17	21.6921
1502.44	22.6959
1502.7	27.7357
1502.97	27.7311
1503.23	28.7361
1503.5	23.696
1503.76	26.723
1504.02	27.7324
1504.29	28.7406
1504.55	26.722
1504.81	26.7189
1505.08	26.7144
1505.34	27.7121
1505.61	26.6985
1505.87	28.7122
1506.13	24.6816
1506.4	23.6772
1506.66	27.7097
1506.93	24.6881
1507.19	28.7197
1507.46	26.7034
1507.72	27.709
1507.98	27.7084
1508.25	30.7322
1508.51	23.6796
1508.77	28.718
1509.04	27.7098
1509.3	23.6798
1509.57	30.7387
1509.83	26.7053
1510.09	27.7081
1510.36	25.6876
1510.62	25.6816
1510.89	28.6942
1511.15	27.6747
1511.41	31.6831
1511.68	23.6252
1511.94	27.6326
1512.21	27.6233
1512.47	24.6039
1512.73	27.6106
1513	25.5981
1513.26	27.6054
1513.52	29.6247
1513.79	27.6244
1514.05	27.6242
1514.31	25.6116
1514.58	25.6046
1514.84	26.6025
1515.1	29.6059
1515.37	31.6035
1515.63	30.5914
1515.9	27.5783
1516.16	26.5732
1516.42	26.5712
1516.69	26.5697
1516.95	28.5747
1517.21	29.5783
1517.48	28.579
1517.74	22.5657
1518	26.5788
1518.27	26.5807
1518.53	26.5825
1518.79	26.5848
1519.06	27.59
1519.32	27.5907
1519.58	28.5928
1519.85	26.584
1520.11	30.5959
1520.37	27.5885
1520.64	28.5945
1520.9	29.6
1521.16	29.6003
1521.43	29.5987
1521.69	27.5894
1521.95	26.5831
1522.22	21.565
1522.48	29.5856
1522.75	29.5795
1523.01	23.5556
1523.27	26.5534
1523.53	25.5453
1523.8	27.5434
1524.06	24.5346
1524.32	22.5303
1524.59	29.5425
1524.85	23.5349
1525.11	27.5429
1525.38	28.549
1525.64	26.5513
1525.9	27.56
1526.17	27.5645
1526.43	27.5657
1526.69	28.5664
1526.95	32.572
1527.22	27.559
1527.48	27.5568
1527.74	29.5581
1528.01	29.5548
1528.27	27.5484
1528.53	22.5379
1528.8	26.5437
1529.06	27.5444
1529.32	25.5387
1529.58	27.5384
1529.85	26.5371
1530.11	26.5406
1530.37	28.5495
1530.64	30.5588
1530.9	28.558
1531.16	29.5598
1531.42	26.553
1531.69	28.556
1531.95	24.547
1532.21	26.5554
1532.48	26.5633
1532.74	25.5698
1533	22.5672
1533.27	29.5917
1533.53	27.5869
1533.79	25.58
1534.05	29.5908
1534.32	26.5792
1534.58	28.5825
1534.84	24.5682
1535.1	28.5706
1535.37	20.542
1535.63	28.5508
1535.89	28.5433
1536.15	28.5333
1536.42	31.5254
1536.68	26.5148
1536.94	26.5099
1537.2	25.5063
1537.47	28.5053
1537.73	26.4982
1537.99	25.4925
1538.25	26.4891
1538.52	27.4896
1538.78	31.4998
1539.04	23.5149
1539.31	25.5326
1539.57	25.5445
1539.83	26.5579
1540.09	30.578
1540.36	31.5885
1540.62	28.5767
1540.88	24.5598
1541.14	25.5587
1541.41	24.5501
1541.67	19.535
1541.93	28.5441
1542.19	27.536
1542.45	24.5265
1542.72	28.5244
1542.98	29.5174
1543.24	24.5057
1543.5	29.5015
1543.77	24.5023
1544.03	28.5058
1544.29	26.5122
1544.55	28.5202
1544.81	22.5228
1545.08	27.537
1545.34	25.5389
1545.6	23.5392
1545.86	26.545
1546.13	28.5479
1546.39	26.5465
1546.65	27.5514
1546.91	27.5551
1547.17	26.5537
1547.44	32.5528
1547.7	27.5368
1547.96	26.5344
1548.22	27.5434
1548.49	27.5384
1548.75	30.5112
1549.01	26.4895
1549.27	27.4912
1549.53	24.5087
1549.79	29.5488
1550.06	29.5863
1550.32	28.62
1550.58	28.6244
1550.84	26.6076
1551.1	28.6161
1551.37	22.5839
1551.63	27.6025
1551.89	30.6292
1552.15	26.6166
1552.41	23.601
1552.68	27.6029
1552.94	27.5894
1553.2	24.577
1553.46	25.577
1553.72	26.5738
1553.99	28.5711
1554.25	25.5541
1554.51	25.5475
1554.77	27.5483
1555.03	27.547
1555.3	31.5545
1555.56	27.5498
1555.82	32.556
1556.08	29.5483
1556.34	30.5511
1556.6	24.5426
1556.87	25.5457
1557.13	27.5491
1557.39	26.5452
1557.65	29.5426
1557.91	28.5337
1558.17	28.5253
1558.43	25.5144
1558.7	29.508
1558.96	27.5007
1559.22	26.4953
1559.48	29.49
1559.74	28.4867
1560	27.4846
1560.26	23.4851
1560.53	28.4806
1560.79	29.4802
1561.05	25.4858
1561.31	30.4892
1561.57	26.4991
1561.83	30.5045
1562.1	28.5039
1562.36	27.502
1562.62	24.5011
1562.88	29.5013
1563.14	29.4984
1563.4	27.5008
1563.66	33.5135
1563.93	29.5207
1564.19	31.5242
1564.45	27.5158
1564.71	29.4886
1564.97	31.4248
1565.23	29.3642
1565.49	31.38
1565.76	25.4819
1566.02	30.4962
1566.28	25.4808
1566.54	28.4749
1566.8	33.5002
1567.06	28.5144
1567.32	32.5022
1567.58	26.4913
1567.84	30.4939
1568.11	32.4974
1568.37	29.4984
1568.63	28.4927
1568.89	30.4825
1569.15	33.4762
1569.41	31.4788
1569.67	24.485
1569.93	32.4808
1570.19	24.4856
1570.45	27.4831
1570.72	29.4802
1570.98	27.4784
1571.24	26.4747
1571.5	30.4673
1571.76	29.4665
1572.02	28.4634
1572.28	31.4539
1572.54	25.4591
1572.8	26.4536
1573.07	29.4435
1573.33	28.4429
1573.59	29.4432
1573.85	26.4542
1574.11	31.4529
1574.37	30.4618
1574.63	27.4724
1574.89	29.4769
1575.15	29.481
1575.41	29.481
1575.67	26.4817
1575.94	30.4776
1576.2	28.4739
1576.46	30.4617
1576.72	22.4634
1576.98	28.4436
1577.24	24.4434
1577.5	30.4199
1577.76	28.4178
1578.02	33.3987
1578.28	28.4127
1578.54	27.4154
1578.8	28.4123
1579.06	27.4159
1579.32	30.4096
1579.58	34.4019
1579.85	26.4261
1580.11	23.4345
1580.37	29.4158
1580.63	28.4149
1580.89	30.4046
1581.15	28.4065
1581.41	30.3934
1581.67	27.3995
1581.93	30.3864
1582.19	27.3955
1582.45	29.3858
1582.71	30.3804
1582.97	30.3798
1583.23	30.3779
1583.49	29.3799
1583.75	33.3647
1584.01	31.3753
1584.27	32.3733
1584.53	27.3935
1584.79	29.3848
1585.06	30.3797
1585.32	31.3744
1585.58	27.3864
1585.84	31.3623
1586.1	30.3599
1586.36	29.3597
1586.62	25.3756
1586.88	26.3681
1587.14	26.3661
1587.4	29.35
1587.66	30.3459
1587.92	29.3536
1588.18	28.3622
1588.44	26.3754
1588.7	31.3558
1588.96	32.355
1589.22	25.3881
1589.48	28.3754
1589.74	31.3631
1590	28.3787
1590.26	28.3821
1590.52	24.3996
1590.78	27.3869
1591.04	28.382
1591.3	32.3631
1591.56	30.3673
1591.82	30.3593
1592.08	28.3601
1592.34	27.3601
1592.6	28.3484
1592.86	29.3322
1593.12	35.2834
1593.38	26.3289
1593.64	32.2831
1593.9	31.287
1594.16	25.3284
1594.42	28.3127
1594.68	22.356
1594.94	28.3215
1595.2	30.3021
1595.46	34.2666
1595.72	29.3
1595.98	33.2728
1596.24	31.2869
1596.5	32.2817
1596.76	31.2907
1597.02	27.3199
1597.28	30.3017
1597.54	30.3003
1597.8	28.31
1598.06	30.2901
1598.32	29.2893
1598.58	30.2754
1598.84	28.2851
1599.1	32.2495
1599.36	37.2046
1599.62	34.2226
1599.88	30.2496
1600.14	34.2097
1600.4	33.2092
1600.66	28.2437
1600.92	26.253
1601.17	27.2353
1601.43	31.1892
1601.69	32.1728
1601.95	29.1972
1602.21	34.1093
1602.47	27.1884
1602.73	30.0608
1602.99	28.1328
1603.25	29.9854
1603.51	29.0609
1603.77	35.5593
1604.03	28.1743
1604.29	29.0571
1604.55	29.8335
1604.81	33.2341
1605.07	34.0579
1605.33	31.534
1605.59	30.3998
1605.85	26.5113
1606.11	34.3761
1606.37	29.2323
1606.63	29.2562
1606.88	26.9895
1607.14	34.6116
1607.4	30.1777
1607.66	33.1251
1607.92	30.4882
1608.18	32.2193
1608.44	30.8616
1608.7	31.9062
1608.96	32.4005
1609.22	28.1612
1609.48	27.3645
1609.74	32.331
1610	30.1756
1610.26	30.5801
1610.51	29.7972
1610.77	28.202
1611.03	31.6424
1611.29	29.09
1611.55	29.3391
1611.81	29.4126
1612.07	29.7018
1612.33	27.5806
1612.59	30.1321
1612.85	32.162
1613.11	27.3743
1613.37	31.9491
1613.62	29.7768
1613.88	26.8362
1614.14	32.4884
1614.4	26.8069
1614.66	31.737
1614.92	34.5475
1615.18	33.021
1615.44	29.2538
1615.7	33.3794
1615.96	30.6118
1616.21	32.371
1616.47	28.3251
1616.73	31.038
1616.99	29.8635
1617.25	29.8725
1617.51	28.5675
1617.77	29.6442
1618.03	29.9524
1618.28	31.8458
1618.54	29.5273
1618.8	29.4702
1619.06	30.1789
1619.32	33.0644
1619.58	29.3345
1619.84	30.0145
1620.1	30.058
1620.35	32.5615
1620.61	29.1032
1620.87	30.2437
1621.13	29.6437
1621.39	30.056
1621.65	31.2794
1621.91	30.5622
1622.17	32.0348
1622.42	32.4834
1622.68	30.0684
1622.94	29.9334
1623.2	32.2735
1623.46	28.2398
1623.72	29.0801
1623.98	30.8873
1624.23	28.4985
1624.49	26.0808
1624.75	27.9901
1625.01	30.5715
1625.27	29.0603
1625.53	27.9197
1625.79	27.6373
1626.04	26.9688
1626.3	29.7071
1626.56	28.4342
1626.82	26.9056
1627.08	28.4159
1627.34	30.212
1627.59	29.4653
1627.85	27.9516
1628.11	28.9158
1628.37	30.7428
1628.63	28.419
1628.81	29.069
1629.07	27.096
1629.33	30.0499
1629.59	30.0486
1629.85	28.0767
1630.12	28.0749
1630.38	32.9956
1630.64	30.0411
1630.9	31.0287
1631.16	31.0343
1631.42	28.0841
1631.68	31.0444
1631.95	26.1166
1632.21	32.0418
1632.47	35.9978
1632.73	28.0945
1632.99	26.1118
1633.25	33.0086
1633.51	32.0285
1633.78	28.0904
1634.04	27.1061
1634.3	34.0064
1634.56	28.0917
1634.82	28.0906
1635.08	34.9878
1635.34	27.1009
1635.6	33.9957
1635.87	31.0358
1636.13	27.0913
1636.39	32.0125
1636.65	31.0222
1636.91	26.0941
1637.17	32
1637.43	31.9984
1637.69	29.042
1637.95	30.0235
1638.21	25.1006
1638.48	27.0696
1638.74	31.9914
1639	32.9756
1639.26	32.9755
1639.52	31.0062
1639.78	30.021
1640.04	30.0241
1640.3	31.0142
1640.57	30.0331
1640.83	32.0027
1641.09	26.0922
1641.35	31.0124
1641.61	30.026
1641.87	29.0403
1642.13	26.0859
1642.39	27.0693
1642.65	30.0213
1642.91	32.974
1643.17	29.0355
1643.44	30.0171
1643.7	32.9658
1643.96	30.9921
1644.22	27.0544
1644.48	30.9888
1644.74	28.0418
1645	26.0764
1645.26	32.9676
1645.52	33.9505
1645.78	32.9628
1646.04	28.0397
1646.31	28.037
1646.57	28.0357
1646.83	27.0483
1647.09	28.0295
1647.35	28.0268
1647.61	30.9777
1647.87	28.0287
1648.13	30.0023
1648.39	34.928
1648.65	33.9667
1648.91	30.0266
1649.17	31.9934
1649.43	28.0519
1649.69	30.0224
1649.95	31.0195
1650.21	32.0093
1650.47	31.0312
1650.74	26.1105
1651	29.0697
1651.26	29.0709
1651.52	33.0126
1651.78	28.0856
1652.04	32.0293
1652.3	29.0682
1652.56	32.021
1652.82	26.1086
1653.08	26.1092
1653.34	28.0815
1653.6	29.0702
1653.86	28.0863
1654.12	24.1455
1654.38	30.0613
1654.64	31.0517
1654.9	27.115
1655.16	30.0827
1655.42	33.0534
1655.68	30.0999
1655.94	29.1171
1656.21	30.1065
1656.47	31.0947
1656.73	28.132
1656.99	31.0904
1657.25	26.1528
1657.51	34.0459
1657.77	30.0961
1658.03	28.1193
1658.29	28.1153
1658.55	32.0566
1658.81	30.0795
1659.07	30.0751
1659.33	29.0841
1659.59	32.0377
1659.85	32.041
1660.11	27.1154
1660.37	27.12
1660.63	31.0706
1660.89	23.1843
1661.15	30.0954
1661.41	25.1651
1661.67	32.0618
1661.93	29.103
1662.19	29.153
1662.45	28.1793
1662.71	25.2022
1662.97	30.1439
1663.23	30.11
1663.49	30.0822
1663.75	26.1581
1664.01	28.1368
1664.27	25.1812
1664.53	29.1458
1664.79	31.1176
1665.05	27.1236
1665.31	30.1034
1665.57	29.1683
1665.83	30.1569
1666.09	28.1842
1666.35	32.0301
1666.61	30.0577
1666.87	28.1333
1667.13	30.101
1667.39	28.1239
1667.65	29.1065
1667.91	29.1026
1668.17	30.0929
1668.43	30.1118
1668.69	24.1976
1668.95	27.1625
1669.21	29.1389
1669.47	28.1523
1669.72	30.122
1669.98	27.1646
1670.24	26.1929
1670.51	25.2075
1670.76	28.1701
1671.02	30.1453
1671.28	27.179
1671.54	25.2049
1671.8	22.241
1672.06	30.15
1672.32	32.1264
1672.58	27.1843
1672.84	25.2082
1673.1	27.1866
1673.36	29.1663
1673.62	29.1698
1673.88	31.1521
1674.14	26.2104
1674.4	26.2142
1674.66	28.1988
1674.92	32.1607
1675.18	27.2151
1675.44	24.246
1675.69	30.1834
1675.95	29.1955
1676.21	30.1868
1676.47	29.1978
1676.73	31.1765
1676.99	28.2055
1677.25	25.234
1677.51	27.2088
1677.77	25.2248
1678.03	29.1752
1678.29	28.1816
1678.55	29.1667
1678.81	27.1861
1679.07	30.1496
1679.33	28.1696
1679.59	27.1786
1679.84	30.1413
1680.1	26.1855
1680.36	28.1591
1680.62	28.1569
1680.88	27.1679
1681.14	28.1555
1681.4	27.1675
1681.66	23.216
1681.92	30.1318
1682.18	23.2166
1682.44	27.1672
1682.7	27.1667
1682.95	26.1786
1683.21	28.1542
1683.47	25.1897
1683.73	28.1507
1683.99	27.1593
1684.25	27.1573
1684.51	28.1436
1684.77	26.1679
1685.03	27.155
1685.29	28.1425
1685.55	27.1554
1685.8	24.194
1686.06	25.1847
1686.32	26.177
1686.58	27.1672
1686.84	26.1791
1687.1	25.189
1687.36	27.1615
1687.62	26.171
1687.88	26.1685
1688.14	26.1655
1688.39	25.1738
1688.65	31.0909
1688.91	21.2171
1689.17	25.16
1689.43	28.1141
1689.69	30.0806
1689.95	26.1377
1690.2	26.1427
1690.46	26.1458
1690.72	26.148
1690.98	27.1359
1691.24	25.166
1691.5	24.1806
1691.76	30.1019
1692.02	28.1261
1692.28	23.1876
1692.53	27.1292
1692.79	27.1227
1693.05	24.157
1693.31	28.0924
1693.57	23.1602
1693.83	26.1112
1694.09	25.1207
1694.34	27.0876
1694.6	29.0585
1694.86	25.1202
1695.12	23.1512
1695.38	26.1083
1695.64	26.1103
1695.89	22.1728
1696.15	24.1454
1696.41	30.0575
1696.67	28.0833
1696.93	26.107
1697.19	23.1452
1697.45	23.1392
1697.7	22.1502
1697.96	26.0837
1698.22	25.0954
1698.48	24.1083
1698.74	19.1872
1699	27.0586
1699.26	22.1402
1699.51	21.1563
1699.77	27.06
1700.03	23.1199
1700.29	27.0544
1700.55	24.1019
1700.81	22.133
1701.06	27.0485
1701.32	23.1102
1701.58	29.9881
1701.84	24.0844
1702.1	26.0454
1702.35	26.0415
1702.61	25.0576
1702.87	23.0914
1703.13	24.0723
1703.39	22.1053
1703.65	24.0698
1703.9	27.02
1704.16	26.0403
1704.42	26.0406
1704.68	28.0045
1704.94	24.0729
1705.19	25.0557
1705.45	28.0022
1705.71	28.9797
1705.97	22.0983
1706.23	23.0749
1706.48	26.014
1706.74	24.045
1707	26.0019
1707.26	27.9564
1707.52	25.9862
1707.77	27.9386
1708.03	24.9893
1708.29	24.0007
1708.55	25.9522
1708.81	25.9467
1709.06	23.0064
1709.32	23.9841
1709.58	22.0262
1709.84	25.9425
1710.1	23.9856
1710.35	23.0093
1710.61	25.9501
1710.87	22.0352
1711.13	29.8726
1711.39	25.9566
1711.64	25.9563
1711.9	24.9731
1712.16	24.9647
1712.42	21.04
1712.67	20.0524
1712.93	20.0453
1713.19	21.9918
1713.45	21.985
1713.71	27.8431
1713.96	21.9787
1714.22	24.9072
1714.48	26.8593
1714.74	27.8361
1714.99	23.9357
1715.25	21.9847
1715.51	22.9611
1715.77	25.8898
1716.02	23.9319
1716.28	25.8796
1716.54	19.0377
1716.8	21.9585
1717.05	24.8751
1717.31	24.8622
1717.57	23.8779
1717.83	20.9457
1718.08	26.783
1718.34	25.8039
1718.6	22.8805
1718.86	23.8544
1719.12	28.7219
1719.37	21.9051
1719.63	23.8555
1719.89	25.8026
1720.14	23.8523
1720.4	24.8209
1720.66	27.7326
1720.92	24.8091
1721.17	25.7764
1721.43	26.7429
1721.69	25.7638
1721.95	25.7571
1722.2	22.8354
1722.46	22.8301
1722.72	25.7392
1722.98	22.8217
1723.23	22.8194
1723.49	21.8488
1723.75	20.8753
1724	23.7872
1724.26	21.841
1724.52	25.7164
1724.78	23.7656
1725.03	23.7573
1725.29	22.7791
1725.55	22.7744
1725.8	24.7107
1726.06	20.8362
1726.32	24.71
1726.58	24.7054
1726.83	23.7287
1727.09	22.7616
1727.35	20.8288
1727.6	20.8265
1727.86	18.8851
1728.12	24.6811
1728.38	23.678
1728.63	26.5415
1728.89	25.5695
1729.15	18.8266
1729.4	23.6657
1729.66	22.7032
1729.92	20.7596
1730.18	23.6509
1730.43	21.7252
1730.69	22.7103
1730.95	22.7117
1731.2	20.779
1731.46	23.6777
1731.72	27.5415
1731.97	22.7074
1732.23	25.6032
1732.49	23.667
1732.74	22.6956
1733	23.6536
1733.26	26.5388
1733.51	25.564
1733.77	23.6274
1734.03	22.6558
1734.29	20.7209
1734.54	24.568
1734.8	21.6707
1735.06	24.5538
1735.31	22.6235
1735.57	24.5456
1735.82	22.6185
1736.08	25.503
1736.34	22.6129
1736.6	24.534
1736.85	22.6064
1737.11	26.451
1737.37	20.6771
1737.62	25.4809
1737.88	16.8234
1738.14	22.5867
1738.39	22.5818
1738.65	22.5762
1738.91	23.5297
1739.16	22.5601
1739.42	23.5094
1739.67	25.418
1739.93	21.5733
1740.19	21.567
1740.44	24.4368
1740.7	25.3894
1740.96	24.426
1741.21	21.548
1741.47	23.4599
1741.73	22.5003
1741.98	22.4992
1742.24	23.4543
1742.5	19.6231
1742.75	23.4509
1743.01	27.2791
1743.26	22.4903
1743.52	24.3988
1743.78	18.6552
1744.03	19.6088
1744.29	23.4342
1744.55	22.4777
1744.8	21.5217
1745.06	18.652
1745.32	24.3895
1745.57	20.5607
1745.83	21.5124
1746.09	21.5065
1746.34	26.2775
1746.6	22.4508
1746.85	21.4885
1747.11	25.3038
1747.37	23.3882
1747.62	24.3413
1747.88	21.4774
1748.13	23.387
1748.39	21.4789
1748.65	22.4353
1748.9	23.3931
1749.16	22.4422
1749.42	20.5366
1749.67	23.4077
1749.93	20.5464
1750.18	26.2857
1750.44	21.5076
1750.7	20.5544
1750.95	24.3784
1751.21	22.4625
1751.46	22.4555
1751.72	22.4489
1751.98	22.444
1752.23	24.3489
1752.49	21.4794
1752.74	22.4292
1753	19.5623
1753.26	21.4672
1753.51	24.3254
1753.77	24.3199
1754.02	25.2683
1754.28	23.3579
1754.53	18.5885
1754.79	21.4458
1755.05	20.4899
1755.3	23.3447
1755.56	24.2922
1755.81	23.3337
1756.07	22.375
1756.33	21.4159
1756.58	26.1668
1756.84	21.4039
1757.09	24.2547
1757.35	20.4485
1757.6	22.3535
1757.86	20.4563
1758.12	24.264
1758.37	21.4099
1758.63	22.3618
1758.88	25.2172
1759.14	25.2182
1759.39	21.411
1759.65	23.3125
1759.91	23.3105
1760.16	20.4541
1760.42	21.4028
1760.67	24.2523
1760.93	24.2476
1761.18	21.3914
1761.44	22.3397
1761.69	21.3875
1761.95	23.2892
1762.21	23.293
1762.46	20.4427
1762.72	27.0985
1762.97	23.2947
1763.23	23.2958
1763.48	26.1505
1763.74	20.4474
1763.99	23.3072
1764.25	22.3629
1764.5	23.3182
1764.76	27.1287
1765.02	22.3714
1765.27	23.3249
1765.53	22.3736
1765.78	22.3735
1766.04	22.3726
1766.29	24.2745
1766.55	22.3698
1766.8	26.1766
1767.06	22.3671
1767.31	25.2185
1767.57	23.3123
1767.82	22.3578
1768.08	22.3571
1768.33	22.3537
1768.59	20.4413
1768.84	18.53
1769.1	24.2184
1769.36	21.3647
1769.61	21.3659
1769.86	24.2225
1770.12	25.1764
1770.38	21.3768
1770.63	23.2792
1770.89	22.3368
1771.14	22.3442
1771.4	19.493
1771.65	22.3475
1771.91	23.303
1772.16	23.3081
1772.42	22.3599
1772.67	23.3143
1772.93	22.3654
1773.18	22.3678
1773.44	23.3219
1773.69	23.3238
1773.95	19.5169
1774.2	21.4222
1774.46	23.3302
1774.71	19.5227
1774.97	26.1949
1775.22	20.4897
1775.48	21.4474
1775.73	22.4031
1775.99	24.3102
1776.24	23.3554
1776.5	20.4927
1776.75	20.4893
1777.01	23.3458
1777.26	24.2942
1777.51	22.3848
1777.77	19.5236
1778.03	19.52
1778.28	21.4196
1778.53	21.4138
1778.79	23.3113
1779.04	20.4542
1779.3	21.4067
1779.55	23.3156
1779.81	25.2207
1780.06	22.3673
1780.32	24.2733
1780.57	19.5155
1780.83	22.3721
1781.08	25.2296
1781.34	21.4237
1781.59	20.4746
1781.85	25.2408
1782.1	25.2464
1782.36	19.5332
1782.61	22.3945
1782.86	24.3033
1783.12	25.2598
1783.37	22.4034
1783.63	21.4534
1783.88	23.3652
1784.14	19.5552
1784.39	19.5581
1784.65	21.4677
1784.9	23.3757
1785.15	25.2824
1785.41	23.3718
1785.66	27.1856
1785.92	23.3709
1786.17	26.2356
1786.43	24.3319
1786.68	21.4744
1786.94	23.3902
1787.19	23.4007
1787.44	23.4152
1787.7	22.4744
1787.95	22.488
1788.21	24.4108
1788.46	23.4579
1788.72	22.507
1788.97	23.4731
1789.23	19.6452
1789.48	23.4816
1789.73	25.4021
1789.99	22.5289
1790.24	24.4461
1790.5	22.528
1790.75	23.4772
1791	20.5932
1791.26	20.5912
1791.51	23.4628
1791.77	22.5059
1792.02	21.549
1792.28	21.5509
1792.53	18.6797
1792.78	24.4295
1793.04	21.5553
1793.29	22.5151
1793.55	20.6009
1793.8	21.5604
1794.05	23.475
1794.31	21.5562
1794.56	19.6499
1794.82	23.5014
1795.07	24.4719
1795.32	23.5176
1795.58	21.6015
1795.83	21.6057
1796.09	22.5704
1796.34	24.4964
1796.6	27.3841
1796.85	22.5841
1797.1	20.6654
1797.36	24.5134
1797.61	24.5163
1797.86	22.5955
1798.12	22.5968
1798.37	22.5968
1798.63	21.6338
1798.88	22.5927
1799.13	22.589
1799.39	22.5844
1799.64	19.698
1799.9	23.5383
1800.15	27.3783
1800.4	22.5733
1800.66	21.6116
1800.91	22.5716
1801.16	18.7299
1801.42	22.573
1801.67	22.5748
1801.93	21.6165
1802.18	21.6197
1802.43	24.5068
1802.69	22.5895
1802.94	22.5946
1803.19	23.5599
1803.45	21.6384
1803.7	25.4867
1803.95	24.5289
1804.21	22.6096
1804.46	24.5384
1804.71	22.6194
1804.97	22.6253
1805.22	24.557
1805.48	20.7093
1805.73	23.6032
1805.98	25.5341
1806.24	22.6466
1806.49	23.6122
1806.74	19.7577
1807	22.6493
1807.25	24.5771
1807.5	24.5775
1807.76	21.6866
1808.01	21.6872
1808.26	24.5798
1808.52	21.689
1808.77	20.7259
1809.02	23.6188
1809.28	28.4405
1809.53	21.6929
1809.79	21.6937
1810.04	21.6938
1810.29	20.7284
1810.55	22.6557
1810.8	21.6916
1811.05	23.6192
1811.3	18.7989
1811.56	22.6556
1811.81	17.8365
1812.06	22.6598
1812.32	19.7702
1812.57	22.6676
1812.82	20.7409
1813.08	26.5313
1813.33	20.7461
1813.58	25.577
1813.84	24.6185
1814.09	23.6606
1814.34	26.5657
1814.6	24.6385
1814.85	23.6757
1815.1	23.6777
1815.36	22.7124
1815.61	21.7472
1815.86	22.7149
1816.12	22.7171
1816.37	22.7177
1816.62	22.7169
1816.88	20.7786
1817.13	18.8366
1817.38	22.6954
1817.63	24.629
1817.89	23.668
1818.14	21.7424
1818.39	20.7775
1818.64	22.71
1818.9	23.6785
1819.15	21.7485
1819.4	20.7842
1819.66	22.7199
1819.91	20.789
1820.16	18.8578
1820.42	27.5642
1820.67	18.8618
1820.92	23.7017
1821.18	20.8029
1821.43	22.7413
1821.68	20.8083
1821.93	22.7461
1822.19	22.7476
1822.44	20.813
1822.69	26.6225
1822.94	22.7493
1823.2	18.8755
1823.45	25.6486
1823.7	24.6811
1823.95	21.7794
1824.21	22.7495
1824.46	20.8153
1824.71	24.6906
1824.96	25.6617
1825.22	22.7581
1825.47	25.6638
1825.72	25.6637
1825.98	25.6646
1826.23	23.7283
1826.48	20.8234
1826.73	24.6995
1826.99	22.7646
1827.24	21.7985
1827.49	24.7074
1827.74	21.8003
1828	25.675
1828.25	25.672
1828.5	23.7312
1828.75	19.8552
1829.01	24.6973
1829.26	23.7278
1829.51	21.7896
1829.76	23.7232
1830.02	24.6891
1830.27	23.7183
1830.52	21.7831
1830.77	21.786
1831.03	21.789
1831.28	25.6663
1831.53	21.7949
1831.78	18.8915
1832.04	20.8322
1832.29	25.6826
1832.54	25.6858
1832.79	21.8087
1833.04	24.7174
1833.3	22.7814
1833.55	22.7821
1833.8	22.7841
1834.05	22.776
1834.31	25.6691
1834.56	23.7206
1834.81	20.8064
1835.06	21.7687
1835.31	21.7626
1835.57	24.6658
1835.82	23.6912
1836.07	23.8146
1836.32	23.7785
1836.58	24.7179
1836.83	23.742
1837.08	26.6271
1837.33	22.741
1837.58	22.7156
1837.84	22.7044
1838.09	20.7723
1838.34	21.7825
1838.59	24.6981
1838.85	24.7068
1839.1	18.8954
1839.35	19.8675
1839.6	23.7487
1839.85	23.7228
1840.11	22.7401
1840.36	20.7927
1840.61	18.8493
1840.86	22.7051
1841.11	21.7294
1841.36	20.7555
1841.62	23.643
1841.87	19.7764
1842.12	21.6999
1842.37	25.5625
1842.62	20.7374
1842.88	22.6691
1843.13	20.7394
1843.38	26.5269
1843.63	19.7727
1843.88	21.7022
1844.14	25.5634
1844.39	24.5985
1844.64	18.8081
1844.89	18.8088
1845.14	21.7043
1845.39	21.7137
1845.65	22.6887
1845.9	21.7332
1846.15	22.7097
1846.4	21.7274
1846.65	23.6233
1846.9	21.664
1847.16	20.6957
1847.41	23.5864
1847.66	22.6353
1847.91	19.7509
1848.16	22.6308
1848.41	22.6262
1848.67	24.5516
1848.92	23.5837
1849.17	21.6522
1849.42	25.4936
1849.67	24.5237
1849.92	23.5537
1850.18	20.6636
1850.43	23.5411
1850.68	23.5361
1850.93	21.6109
1851.18	22.5683
1851.43	23.5265
1851.68	20.645
1851.94	20.6449
1852.19	23.5258
1852.44	21.6052
1852.69	23.5249
1852.94	20.6429
1853.19	20.6404
1853.44	25.435
1853.69	22.5491
1853.95	21.5824
1854.2	23.4948
1854.45	21.574
1854.7	23.4876
1854.95	26.3551
1855.2	19.6405
1855.45	22.5113
1855.71	21.5515
1855.96	20.5929
1856.21	24.4244
1856.46	22.5084
1856.71	22.5074
1856.96	21.5475
1857.21	25.3752
1857.46	23.4572
1857.72	24.4106
1857.97	23.4485
1858.22	25.3568
1858.47	20.5677
1858.72	25.3447
1858.97	23.4259
1859.22	22.4665
1859.47	20.5546
1859.72	24.3785
1859.98	20.5564
1860.23	24.386
1860.48	21.5205
1860.73	19.6106
1860.98	23.4418
1861.23	24.4022
1861.48	22.4891
1861.73	22.4876
1861.98	21.5271
1862.24	26.3051
1862.49	23.4298
1862.74	22.4683
1862.99	24.3748
1863.24	22.4584
1863.49	22.4541
1863.74	24.3607
1863.99	21.491
1864.24	24.3521
1864.49	22.4374
1864.74	21.4769
1864.99	24.3331
1865.25	24.3247
1865.5	20.501
1865.75	24.305
1866	22.389
1866.25	24.2844
1866.5	18.5626
1866.75	21.4097
1867	22.3529
1867.25	23.2977
1867.5	21.3927
1867.75	20.4397
1868	25.1917
1868.25	21.39
1868.51	22.342
1868.76	21.3907
1869.01	19.4883
1869.26	23.2894
1869.51	22.3376
1869.76	16.6336
1870.01	23.2859
1870.26	25.1859
1870.51	20.4335
1870.76	22.334
1871.01	21.3818
1871.26	25.1801
1871.51	19.4754
1871.76	22.3231
1872.01	24.2206
1872.26	21.3668
1872.52	24.2108
1872.77	19.4613
1873.02	21.3594
1873.27	21.3574
1873.52	21.3542
1873.77	22.2989
1874.02	23.2426
1874.27	20.3914
1874.52	22.2825
1874.77	24.1722
1875.02	25.1131
1875.27	23.2091
1875.52	23.1953
1875.77	26.9736
1876.02	25.0733
1876.27	22.2297
1876.52	22.2267
1876.77	23.1593
1877.02	22.1999
1877.27	20.2871
1877.52	22.2026
1877.77	19.4416
1878.02	25.0779
1878.27	21.2889
1878.52	23.18
1878.78	25.099
1879.02	25.1073
1879.27	21.3093
1879.52	22.2503
1879.78	20.3562
1880.03	21.302
1880.28	22.2536
1880.53	21.3013
1880.78	19.4066
1881.03	22.2365
1881.28	22.2254
1881.53	20.3235
1881.78	19.3677
1882.03	22.1888
1882.28	22.1743
1882.53	21.2238
1882.78	23.1156
1883.03	27.0366
1883.28	25.0253
1883.53	21.2022
1883.78	24.9774
1884.03	21.2166
1884.28	23.0928
1884.53	21.2166
1884.78	25.0001
1885.03	23.1165
1885.28	21.2335
1885.53	22.1873
1885.78	20.3036
1886.03	23.1394
1886.28	21.2471
1886.53	23.1269
1886.78	25.0091
1887.03	22.1727
1887.28	24.0538
1887.52	21.2185
1887.78	23.0975
1888.03	19.319
1888.27	21.1966
1888.52	23.0733
1888.77	23.0667
1889.02	21.1809
1889.27	23.0626
1889.52	24.0034
1889.77	24.9478
1890.02	24.0122
1890.27	17.4242
1890.52	22.1347
1890.77	24.0172
1891.02	23.0737
1891.27	23.0731
1891.52	23.0716
1891.77	17.4208
1892.02	21.1862
1892.27	23.066
1892.52	23.0609
1892.77	23.0515
1893.02	19.2773
1893.27	23.0281
1893.52	22.0885
1893.77	23.0289
1894.02	23.0214
1894.27	23.0177
1894.52	21.1376
1894.76	22.0779
1895.02	23.0193
1895.26	21.1425
1895.51	23.9645
1895.76	25.8476
1896.01	21.1518
1896.26	23.0365
1896.51	24.9212
1896.76	26.8055
1897.01	23.9861
1897.26	23.9871
1897.51	21.1648
1897.76	23.9852
1898.01	21.1607
1898.26	23.0375
1898.51	23.9722
1898.75	23.0263
1899.01	23.0225
1899.25	22.0805
1899.5	23.017
1899.75	22.0752
1900	22.0747
1900.25	25.8334
1900.5	23.0178
1900.75	23.0221
1901	22.087
1901.25	24.9117
1901.5	23.9765
1901.75	23.0423
1902	22.1058
1902.25	23.0462
1902.49	21.1632
1902.74	19.2799
1902.99	23.0392
1903.24	21.1568
1903.49	23.036
1903.74	22.0949
1903.99	23.9746
1904.24	22.0935
1904.49	22.0923
1904.74	20.2115
1904.98	23.9715
1905.23	22.0899
1905.48	20.2029
1905.73	21.1366
1905.98	20.1945
1906.23	20.1922
1906.48	22.0684
1906.73	22.067
1906.98	21.1288
1907.23	23.0081
1907.47	22.0728
1907.72	25.8343
1907.97	23.0178
1908.22	22.0797
1908.47	23.022
1908.72	23.9658
1908.97	22.0909
1909.22	22.0968
1909.47	23.0442
1909.71	22.1111
1909.96	23.0603
1910.21	19.3011
1910.46	25.8975
1910.71	24.0176
1910.96	23.078
1911.21	24.0207
1911.46	20.2526
1911.7	21.1929
1911.95	22.1336
1912.2	24.9588
1912.45	22.1334
1912.7	25.9009
1912.95	21.1927
1913.2	23.0807
1913.45	22.1456
1913.69	23.0952
1913.94	21.2145
1914.19	20.2761
1914.44	24.997
1914.69	25.9454
1914.94	22.1745
1915.18	25.9502
1915.43	23.1186
1915.68	21.2295
1915.93	21.2287
1916.18	21.225
1916.43	24.9933
1916.68	20.2742
1916.92	21.2142
1917.17	21.2122
1917.42	23.0965
1917.67	24.9832
1917.92	24.0444
1918.17	24.0501
1918.42	19.3398
1918.66	19.3457
1918.91	21.2401
1919.16	23.1384
1919.41	19.3671
1919.66	21.2603
1919.91	21.2609
1920.15	24.0923
1920.4	24.0955
1920.65	25.9924
1920.9	23.163
1921.15	23.1661
1921.39	20.3326
1921.64	21.2799
1921.89	22.2256
1922.14	21.2779
1922.39	23.1656
1922.64	23.1625
1922.89	24.1058
1923.13	25.0492
1923.38	23.1565
1923.63	19.373
1923.88	21.2592
1924.13	26.9256
1924.37	23.146
1924.62	21.2577
1924.87	22.2058
1925.12	21.2657
1925.37	22.2181
1925.61	21.2784
1925.86	21.2841
1926.11	21.2901
1926.36	19.404
1926.61	21.3011
1926.86	24.145
1927.1	22.2544
1927.35	21.3102
1927.6	24.1544
1927.85	24.1571
1928.1	21.3166
1928.34	19.4246
1928.59	25.1132
1928.84	25.1175
1929.09	19.4351
1929.33	18.4932
1929.58	23.2408
1929.83	23.2483
1930.08	22.3045
1930.33	24.2096
1930.57	23.2612
1930.82	27.0598
1931.07	22.3104
1931.32	22.3075
1931.57	23.2537
1931.81	22.3015
1932.06	23.2474
1932.31	23.2437
1932.56	21.3459
1932.8	24.1884
1933.05	21.3449
1933.3	24.1988
1933.55	22.3126
1933.79	25.1781
1934.04	23.2995
1934.29	25.2229
1934.54	23.3363
1934.79	21.4442
1935.03	23.3615
1935.28	22.415
1935.53	24.303
1935.78	25.2564
1936.02	20.4895
1936.27	19.5339
1936.52	25.2458
1936.77	21.4298
1937.01	24.2823
1937.26	26.1814
1937.51	26.1768
1937.76	26.1716
1938	21.4138
1938.25	23.3263
1938.5	24.2806
1938.75	21.4276
1938.99	22.3838
1939.24	22.3867
1939.49	20.485
1939.74	25.2499
1939.98	24.3037
1940.23	23.3568
1940.48	23.3732
1940.73	23.381
1940.97	24.3344
1941.22	23.3766
1941.47	23.3676
1941.72	23.3544
1941.96	22.4124
1942.21	21.4809
1942.46	24.3487
1942.71	23.394
1942.95	20.5203
1943.2	24.3274
1943.45	19.552
1943.7	22.4289
1943.94	22.4328
1944.19	21.483
1944.44	21.4881
1944.68	24.3593
1944.93	24.3654
1945.18	22.46
1945.42	26.2888
1945.67	21.5131
1945.92	21.5163
1946.17	22.4751
1946.41	21.5199
1946.66	23.4321
1946.91	21.5174
1947.16	20.5591
1947.4	20.5589
1947.65	22.4712
1947.9	22.471
1948.14	25.3379
1948.39	23.4273
1948.64	22.4754
1948.89	21.5235
1949.13	23.4419
1949.38	23.448
1949.62	22.4973
1949.87	24.4227
1950.12	23.4756
1950.37	20.6084
1950.61	25.4113
1950.86	22.5439
1951.11	21.5927
1951.35	19.6792
1951.6	25.4438
1951.85	19.6861
1952.1	23.5306
1952.34	21.6095
1952.59	25.4563
1952.83	23.5397
1953.08	23.5327
1953.33	21.6028
1953.58	20.6296
1953.82	22.5361
1954.07	22.5246
1954.32	21.5571
1954.56	23.4704
1954.81	23.4702
1955.06	21.5574
1955.3	26.3557
1955.55	22.5329
1955.8	19.6693
1956.04	25.4335
1956.29	22.5613
1956.54	24.4859
1956.78	20.6499
1957.03	22.5756
1957.28	23.5407
1957.52	24.5051
1957.77	21.6244
1958.02	24.5094
1958.26	24.5104
1958.51	24.5081
1958.76	19.6991
1959	21.6191
1959.25	21.618
1959.5	20.6541
1959.74	22.5719
1959.99	26.41
1960.23	25.4453
1960.48	22.5606
1960.73	22.5568
1960.98	22.5535
1961.22	22.5517
1961.47	20.6333
1961.71	24.4734
1961.96	23.5147
1962.21	21.5962
1962.45	21.5972
1962.7	24.4779
1962.95	21.599
1963.19	27.3599
1963.44	23.5214
1963.69	21.6041
1963.93	22.5664
1964.18	26.4069
1964.42	22.5646
1964.67	24.4853
1964.92	23.5245
1965.16	24.4856
1965.41	25.4488
1965.66	24.4934
1965.9	21.6168
1966.15	26.4263
1966.39	28.3527
1966.64	24.511
1966.89	24.5104
1967.13	22.5886
1967.38	21.6294
1967.63	18.7461
1967.87	23.5541
1968.12	25.4761
1968.36	22.5898
1968.61	23.5468
1968.86	24.5017
1969.1	23.5333
1969.35	23.5259
1969.59	22.5601
1969.84	25.4351
1970.09	24.4721
1970.33	24.4677
1970.58	24.4642
1970.82	24.4616
1971.07	25.4186
1971.32	23.4985
1971.56	23.5009
1971.81	23.5031
1972.05	19.6669
1972.3	24.4633
1972.55	21.5833
1972.79	25.4159
1973.04	22.5335
1973.28	21.5709
1973.53	25.4026
1973.78	20.6081
1974.02	26.3585
1974.27	20.6078
1974.51	23.4843
1974.76	24.4452
1975.01	22.531
1975.25	25.4114
1975.5	22.5377
1975.74	25.4174
1975.99	24.4599
1976.23	24.4608
1976.48	24.4609
1976.73	21.5825
1976.97	23.4993
1977.22	21.5785
1977.46	22.534
1977.71	22.5305
1977.95	28.2793
1978.2	23.4837
1978.45	22.524
1978.69	21.5658
1978.94	20.6081
1979.18	26.3593
1979.43	23.4849
1979.67	26.361
1979.92	26.3581
1980.17	22.5201
1980.41	25.3909
1980.66	23.473
1980.9	24.4273
1981.15	22.5093
1981.39	22.5079
1981.64	24.4228
1981.88	22.5064
1982.13	21.545
1982.37	25.3711
1982.62	24.4078
1982.87	25.3574
1983.11	26.309
1983.36	21.5238
1983.6	23.4354
1983.85	20.5638
1984.09	20.5617
1984.34	23.4289
1984.58	20.5564
1984.83	20.5509
1985.08	23.4162
1985.32	21.5051
1985.56	21.4913
1985.81	23.382
1986.06	25.2134
1986.3	22.5102
1986.55	22.3975
1986.79	20.6507
1987.04	21.4571
1987.28	24.9988
1987.53	20.6046
1987.77	26.8579
1988.02	22.279
1988.26	25.128
1988.51	20.8078
1988.75	24.3589
1989	22.1337
1989.24	21.8649
1989.49	21.4147
1989.73	22.1828
1989.98	25.2173
1990.22	22.3639
1990.47	22.7049
1990.72	23.1209
1990.96	20.4812
1991.2	24.7715
1991.45	20.7681
1991.7	21.7139
1991.94	21.0996
1992.19	23.7797
1992.43	22.3138
1992.68	21.8386
1992.92	24.7968
1993.17	23.9248
1993.41	21.1991
1993.66	25.0779
1993.9	24.1899
1994.15	23.2026
1994.39	22.2716
1994.63	21.3859
1994.88	21.9865
1995.13	23.0001
1995.37	23.5855
1995.61	23.7403
1995.86	25.054
1996.11	22.4299
1996.35	22.9477
1996.59	23.4632
1996.84	22.8045
1997.08	24.0617
1997.33	22.4266
1997.57	21.2868
1997.82	22.2863
1998.06	22.4419
1998.31	22.9256
1998.55	22.3094
1998.8	24.0684
1999.04	22.3328
1999.29	22.1852
1999.53	21.1323
1999.78	22.0338
2000.02	21.3075
2000.27	22.334
2000.51	22.919
2000.76	20.009
2001	19.5869
2001.24	23.4062
2001.49	23.5019
2001.73	21.5662
2001.98	22.1619
2002.22	23.4318
2002.47	23.4095
2002.71	21.2268
2002.96	20.0151
2003.2	22.896
2003.45	23.2213
2003.69	22.5587
2003.93	22.7284
2004.18	23.6086
2004.42	21.3928
2004.67	20.2924
2004.91	22.212
2005.16	21.7578
2005.4	21.2879
2005.65	23.5057
2005.89	21.9668
2006.13	20.6433
2006.38	20.6084
2006.62	18.6556
2006.87	22.0888
2007.11	21.1675
2007.36	21.1018
2007.6	24.339
2007.81	20.3017
2008.06	21.2384
2008.31	21.2331
2008.56	21.228
2008.8	19.335
2009.05	20.2715
2009.3	20.2665
2009.55	24.031
2009.79	23.0831
2010.04	23.0769
2010.29	20.2502
2010.53	20.2497
2010.78	25.9001
2011.03	21.1905
2011.28	21.1898
2011.52	21.1887
2011.77	22.1295
2012.02	24.0112
2012.27	21.1841
2012.51	24.9447
2012.76	20.2296
2013.01	23.9828
2013.26	21.1548
2013.5	21.1467
2013.75	22.0765
2014	23.0031
2014.24	22.9939
2014.49	22.992
2014.74	22.9935
2014.99	21.1198
2015.23	20.1845
2015.48	19.2479
2015.73	22.0602
2015.97	21.1332
2016.22	20.2058
2016.47	23.9672
2016.71	23.0256
2016.96	23.0217
2017.21	22.0765
2017.46	21.1302
2017.7	21.1216
2017.95	22.0514
2018.2	21.1055
2018.44	20.1598
2018.69	23.9007
2018.94	23.8923
2019.18	18.2679
2019.43	22.9484
2019.68	23.884
2019.93	21.0736
2020.17	23.8822
2020.42	21.0718
2020.67	20.137
2020.91	17.3281
2021.16	20.138
2021.41	22.9467
2021.65	20.1349
2021.9	23.8773
2022.15	23.8726
2022.4	16.3789
2022.64	21.9882
2022.89	21.9839
2023.14	21.0436
2023.38	23.8442
2023.63	20.0995
2023.88	21.9651
2024.12	21.0228
2024.37	21.0155
2024.62	21.0085
2024.86	21.9354
2025.11	23.7952
2025.36	22.8557
2025.6	20.0505
2025.85	21.9197
2026.1	21.9291
2026.34	25.6793
2026.59	23.8307
2026.84	21.9799
2027.08	21.0535
2027.33	22.9194
2027.57	19.164
2027.82	23.8081
2028.07	21.9021
2028.32	20.0967
2028.56	22.0231
2028.81	21.056
2029.06	21.0644
2029.3	22.8994
2029.55	22.8734
2029.79	21.9199
2030.04	22.8469
2030.29	21.9034
2030.53	23.785
2030.78	20.0628
2031.03	20.9936
2031.27	24.7258
2031.52	20.9955
2031.77	22.8687
2032.01	23.8104
2032.26	21.017
2032.5	19.155
2032.75	20.0944
2033	24.7732
2033.24	21.9757
2033.49	24.7805
2033.74	21.9639
2033.98	22.8799
2034.23	24.7248
2034.48	20.9916
2034.72	21.9332
2034.97	22.8752
2035.21	22.89
2035.46	22.9061
2035.71	17.3046
2035.95	24.7818
2036.2	21.9668
2036.45	21.9701
2036.69	20.1038
2036.94	23.8437
2037.18	23.8423
2037.43	21.0352
2037.68	18.2282
2037.92	21.9641
2038.17	21.0261
2038.41	21.0228
2038.66	21.9536
2038.91	25.6858
2039.15	21.0122
2039.4	20.0733
2039.64	22.8677
2039.89	22.8615
2040.14	20.9898
2040.38	24.7154
2040.63	21.913
2040.87	23.774
2041.12	22.8404
2041.37	20.9744
2041.61	22.8353
2041.86	22.8329
2042.1	18.1687
2042.35	25.6218
2042.6	23.7582
2042.84	21.8975
2043.09	26.5648
2043.33	19.1162
2043.58	23.7887
2043.83	24.724
2044.07	22.8563
2044.32	22.8499
2044.56	22.8386
2044.81	21.8847
2045.05	22.8563
2045.3	20.0569
2045.55	20.0927
2045.79	19.1882
2046.04	21.9671
2046.28	21.0133
2046.53	23.7991
2046.78	21.9352
2047.02	20.9934
2047.27	19.112
2047.51	20.974
2047.76	20.9753
2048	20.9764
2048.25	19.1133
2048.5	24.7127
2048.74	22.8517
2048.99	20.0581
2049.23	22.864
2049.48	22.8726
2049.72	21.9449
2049.97	25.6875
2050.22	21.02
2050.46	22.8892
2050.71	22.8872
2050.95	21.0142
2051.2	20.075
2051.44	23.8101
2051.69	21.9437
2051.93	21.9468
2052.18	19.1463
2052.42	23.8192
2052.67	22.8892
2052.91	21.0251
2053.16	23.8359
2053.41	21.9759
2053.65	23.8506
2053.9	22.918
2054.14	24.7896
2054.39	25.7244
2054.63	22.917
2054.88	20.1087
2055.12	25.7148
2055.37	21.9724
2055.62	22.9061
2055.86	21.969
2056.11	21.0321
2056.35	23.8351
2056.6	21.9658
2056.84	21.9671
2057.09	18.2297
2057.33	26.6471
2057.58	21.0404
2057.82	21.9795
2058.07	21.985
2058.31	21.9901
2058.56	20.1228
2058.8	21.0618
2059.05	21.9992
2059.29	23.8731
2059.54	21.0642
2059.78	24.8059
2060.03	21.9941
2060.27	21.9929
2060.52	21.9959
2060.76	21.063
2061.01	22.0012
2061.25	23.8747
2061.5	22.0027
2061.74	25.7491
2061.99	24.8148
2062.24	22.9447
2062.48	22.9483
2062.73	24.8263
2062.97	19.2085
2063.22	22.9596
2063.46	23.8994
2063.7	20.1522
2063.95	22.9662
2064.19	22.0318
2064.44	24.8481
2064.68	21.1032
2064.93	22.0479
2065.18	19.2387
2065.42	21.1208
2065.66	21.125
2065.91	23.0058
2066.15	23.0064
2066.4	23.0098
2066.64	23.0121
2066.89	20.1963
2067.13	24.8968
2067.38	19.2632
2067.62	24.9045
2067.87	21.1477
2068.11	25.8486
2068.36	25.8534
2068.6	22.0922
2068.85	22.0886
2069.09	21.142
2069.34	18.3146
2069.58	20.1911
2069.83	19.2546
2070.07	22.0833
2070.31	24.9151
2070.56	22.1065
2070.8	23.0423
2071.05	19.2744
2071.29	21.1865
2071.54	21.19
2071.78	19.3043
2072.03	21.1864
2072.27	24.0107
2072.52	26.8329
2072.76	23.0673
2073.01	19.3001
2073.25	23.0674
2073.5	24.0099
2073.74	23.0699
2073.98	23.0729
2074.23	22.1358
2074.47	25.9111
2074.72	20.2653
2074.96	22.161
2075.21	20.2855
2075.45	25.0115
2075.69	25.0156
2075.94	25.9603
2076.18	19.3527
2076.43	25.0138
2076.67	22.1774
2076.92	24.0583
2077.16	24.9917
2077.41	21.2178
2077.65	24.0504
2077.9	24.9985
2078.14	23.114
2078.38	23.1164
2078.63	23.1202
2078.87	25.0149
2079.12	24.0813
2079.36	18.4189
2079.61	22.2011
2079.85	20.315
2080.09	21.2624
2080.34	25.0422
2080.58	23.15
2080.83	24.0934
2081.07	25.0378
2081.32	23.1477
2081.56	21.2579
2081.8	22.2045
2082.05	21.2613
2082.29	24.0975
2082.54	22.2079
2082.78	25.0425
2083.02	22.2066
2083.27	22.2059
2083.51	21.2613
2083.76	21.2614
2084	22.2063
2084.24	21.2619
2084.49	25.0427
2084.73	23.1528
2084.98	20.3179
2085.22	23.1529
2085.47	22.2105
2085.71	20.326
2085.95	23.1698
2086.2	23.1745
2086.44	21.2849
2086.69	24.1262
2086.93	22.2379
2087.17	23.1859
2087.42	24.1326
2087.66	24.1331
2087.9	22.2411
2088.15	23.1887
2088.39	25.0832
2088.64	21.2981
2088.88	25.0892
2089.12	24.1465
2089.37	24.1537
2089.61	24.155
2089.85	24.1565
2090.1	26.0532
2090.34	21.3184
2090.59	22.2685
2090.83	24.1666
2091.07	23.2215
2091.32	20.3841
2091.56	24.1838
2091.8	21.3457
2092.05	21.3528
2092.29	22.3097
2092.54	26.1142
2092.78	23.2714
2093.02	22.3274
2093.27	24.2336
2093.51	25.1892
2093.75	25.1937
2094	19.4904
2094.24	21.3918
2094.49	23.2921
2094.73	20.4383
2094.97	23.2862
2095.22	18.5306
2095.46	22.3287
2095.7	23.2764
2095.95	20.4249
2096.19	20.4242
2096.43	22.3229
2096.68	24.2192
2096.92	21.3656
2097.16	20.4124
2097.41	18.5122
2097.65	24.2071
2097.89	24.2054
2098.14	20.4061
2098.38	22.3044
2098.62	21.3547
2098.87	26.0987
2099.11	22.3017
2099.36	23.2505
2099.6	24.1999
2099.84	25.1499
2100.08	22.3041
2100.33	21.3579
2100.57	20.4137
2100.81	21.3672
2101.06	23.2693
2101.3	23.2706
2101.54	22.3207
2101.79	23.2702
2102.03	23.2703
2102.28	23.2685
2102.52	20.4157
2102.76	22.3106
2103	23.258
2103.25	24.2064
2103.49	23.2562
2103.73	24.2061
2103.98	22.31
2104.22	22.3136
2104.46	26.1156
2104.71	22.3203
2104.95	22.3246
2105.19	25.1805
2105.44	25.1849
2105.68	20.4354
2105.92	23.2892
2106.17	22.3397
2106.41	21.3903
2106.65	25.1956
2106.89	21.3927
2107.14	23.2914
2107.38	22.3362
2107.62	20.4297
2107.87	23.2741
2108.11	21.3683
2108.35	18.5157
2108.59	22.3124
2108.84	22.314
2109.08	21.371
2109.32	24.2241
2109.57	23.2744
2109.81	23.2746
2110.05	20.4246
2110.3	20.4247
2110.54	23.2747
2110.78	19.4746
2111.02	22.3227
2111.27	19.4702
2111.51	27.066
2111.75	25.1652
2112	21.3669
2112.24	22.3193
2112.48	23.2713
2112.72	24.2244
2112.97	20.4302
2113.21	19.4836
2113.45	21.3864
2113.7	22.3349
2113.94	22.3331
2114.18	20.4323
2114.42	19.4831
2114.67	18.5331
2114.91	21.3829
2115.15	20.4308
2115.39	22.3297
2115.64	24.2281
2115.88	25.1725
2116.12	21.369
2116.36	23.2668
2116.61	22.3161
2116.85	21.3656
2117.09	19.4677
2117.34	17.566
2117.58	19.462
2117.82	27.0524
2118.06	23.249
2118.3	22.2934
2118.55	23.237
2118.79	22.2839
2119.03	20.3831
2119.28	23.2225
2119.52	23.2184
2119.76	20.3726
2120	21.3194
2120.24	21.3204
2120.49	21.3241
2120.73	18.4829
2120.97	22.2796
2121.22	24.1818
2121.46	25.1357
2121.7	24.1923
2121.94	24.1968
2122.18	24.2006
2122.43	21.3564
2122.67	22.3081
2122.91	20.4112
2123.15	23.2598
2123.4	24.2072
2123.64	19.4584
2123.88	22.3019
2124.12	24.1931
2124.36	21.338
2124.61	21.3279
2124.85	22.2662
2125.09	23.2058
2125.33	24.1456
2125.58	23.1921
2125.82	19.4007
2126.06	20.3427
2126.3	20.3384
2126.55	24.117
2126.79	20.3301
2127.03	22.2195
2127.27	22.2185
2127.51	24.1077
2127.76	24.1052
2128	21.2683
2128.24	24.1043
2128.48	25.9949
2128.72	20.3223
2128.97	21.2659
2129.21	23.1548
2129.45	19.3736
2129.69	22.2076
2129.93	20.3164
2130.18	24.0943
2130.42	23.1471
2130.66	23.1442
2130.9	23.1408
2131.14	23.1371
2131.39	24.0782
2131.63	21.2436
2131.87	21.2409
2132.11	21.2365
2132.35	21.2329
2132.6	24.0619
2132.84	22.1748
2133.08	19.3449
2133.32	23.1204
2133.56	21.2332
2133.81	20.2907
2134.05	24.0662
2134.29	24.0655
2134.53	25.9523
2134.77	22.1768
2135.01	22.1756
2135.26	20.2862
2135.5	23.1125
2135.74	24.0479
2135.98	23.0983
2136.22	23.0955
2136.47	22.1545
2136.71	22.1551
2136.95	23.0986
2137.19	22.1586
2137.43	20.2776
2137.67	23.1035
2137.91	21.2113
2138.16	24.9774
2138.4	21.2128
2138.64	22.1628
2138.88	20.2811
2139.12	22.1533
2139.37	19.3195
2139.61	22.1431
2139.85	23.0819
2140.09	23.079
2140.33	23.0766
2140.57	24.0168
2140.81	24.9566
2141.06	22.1321
2141.3	22.1265
2141.54	21.1805
2141.78	23.0617
2142.02	24.0033
2142.26	21.1844
2142.51	22.1291
2142.75	23.0929
2142.99	24.0197
2143.23	22.0726
2143.47	20.2045
2143.71	23.9663
2143.95	23.0357
2144.19	23.9841
2144.44	23.0475
2144.68	23.0318
2144.92	23.0363
2145.16	22.0966
2145.4	25.856
2145.64	23.9736
2145.88	20.2113
2146.13	20.2097
2146.37	21.148
2146.61	21.1458
2146.85	22.0824
2147.09	23.9586
2147.33	22.0768
2147.57	20.1959
2147.81	23.0112
2148.06	21.1302
2148.3	23.0054
2148.54	21.124
2148.78	23.9355
2149.02	22.0523
2149.26	20.1676
2149.5	21.1006
2149.74	23.9077
2149.98	22.9658
2150.22	22.0264
2150.47	23.901
2150.71	19.2165
2150.95	23.9072
2151.19	22.0347
2151.43	25.789
2151.67	22.0399
2151.91	23.9179
2152.15	22.9766
2152.4	21.0978
2152.64	22.0315
2152.88	22.0281
2153.12	21.089
2153.36	21.0868
2153.6	23.8941
2153.84	19.204
2154.08	22.0064
2154.32	23.8693
2154.56	21.988
2154.8	23.8491
2155.05	21.0366
2155.29	22.8997
2155.53	22.894
2155.77	22.8899
2156.01	21.9536
2156.25	21.9527
2156.49	20.0839
2156.73	23.8209
2156.97	21.9545
2157.21	22.8922
2157.45	23.8311
2157.69	21.9652
2157.94	24.7702
2158.18	21.0311
2158.42	21.03
2158.66	21.0281
2158.9	25.6976
2159.14	20.0875
2159.38	21.9515
2159.62	21.946
2159.86	27.5424
2160.1	23.8026
2160.34	23.7981
2160.58	21.9295
2160.82	24.7276
2161.06	22.8591
2161.3	22.8572
2161.54	22.8565
2161.79	21.9236
2162.03	22.8566
2162.27	21.9232
2162.51	20.9882
2162.75	23.7836
2162.99	22.8484
2163.23	22.8461
2163.47	21.9112
2163.71	23.7731
2163.95	20.9712
2164.19	20.9659
2164.43	20.9628
2164.67	22.8281
2164.91	21.8981
2165.15	23.7621
2165.39	21.8988
2165.63	21.899
2165.87	18.169
2166.12	23.7571
2166.35	21.8903
2166.6	20.9544
2166.84	20.0204
2167.08	20.9464
2167.32	25.5932
2167.56	19.9988
2167.8	19.9901
2168.04	26.4955
2168.28	22.7767
2168.52	19.9891
2168.76	20.922
2169	19.0664
2169.24	22.7934
2169.48	24.663
2169.72	23.7415
2169.96	20.9528
2170.2	22.8168
2170.44	21.8836
2170.68	21.8793
2170.92	22.8078
2171.16	20.9365
2171.4	24.6417
2171.64	20.915
2171.88	21.8406
2172.12	22.7661
2172.36	23.6925
2172.6	24.621
2172.84	20.9043
2173.08	22.7625
2173.32	22.7644
2173.56	22.7673
2173.8	19.9812
2174.04	23.6997
2174.28	24.6294
2174.52	22.7705
2174.76	21.8405
2175	21.8391
2175.24	21.8379
2175.48	20.9078
2175.72	19.9775
2175.96	19.0465
2176.2	23.6886
2176.44	22.7585
2176.68	22.7586
2176.92	20.9014
2177.16	22.7596
2177.4	23.6884
2177.64	18.1151
2177.88	19.0417
2178.12	22.7512
2178.36	22.7472
2178.6	23.6753
2178.84	22.7478
2179.08	20.8912
2179.32	21.82
2179.56	20.8914
2179.8	22.7483
2180.04	21.8191
2180.28	20.8892
2180.52	21.8164
2180.76	21.8158
2181	21.8143
2181.24	20.8835
2181.48	24.5937
2181.72	22.736
2181.96	20.8774
2182.2	19.9478
2182.44	23.6564
2182.68	21.7967
2182.92	23.6461
2183.16	20.8582
2183.4	20.8541
2183.63	20.8507
2183.87	18.9948
2184.11	23.6269
2184.35	20.8483
2184.59	21.777
2184.83	22.7054
2185.07	21.7806
2185.31	20.8565
2185.55	23.6416
2185.79	20.8639
2186.03	21.7956
2186.27	21.802
2186.51	24.5927
2186.75	22.7436
2186.99	20.8931
2187.23	23.6837
2187.47	20.898
2187.71	24.6103
2187.95	20.8919
2188.18	17.1744
2188.43	22.7395
2188.66	21.806
2188.9	20.8724
2189.14	22.7199
2189.38	15.2974
2189.62	21.7844
2189.86	21.784
2190.1	21.7844
2190.34	21.7869
2190.58	20.861
2190.82	21.7885
2191.06	21.7899
2191.3	23.6465
2191.54	24.5761
2191.78	22.7234
2192.01	21.7977
2192.25	25.5105
2192.49	21.804
2192.73	24.5916
2192.97	19.9552
2193.21	24.6018
2193.45	19.9695
2193.69	18.1204
2193.93	24.6329
2194.17	21.8479
2194.41	17.1978
2194.64	23.7027
2194.88	21.8414
2195.12	20.9085
2195.36	18.1167
2195.6	24.6129
2195.84	20.8903
2196.08	21.812
2196.32	22.7348
2196.56	24.5861
2196.8	19.0163
2197.04	27.361
2197.27	19.9418
2197.51	27.3627
2197.75	22.7279
2197.99	20.878
2198.23	20.8834
2198.47	23.6753
2198.71	20.8974
2198.95	24.6196
2199.19	19.0519
2199.42	20.9176
2199.66	22.7889
2199.9	20.9399
2200.14	20.9496
2200.38	23.7527
2200.62	23.7595
2200.86	21.9014
2201.1	22.8216
2201.34	20.9355
2201.58	21.8157
2201.81	20.8606
2202.05	23.6643
2202.29	20.9167
2202.53	18.1391
2202.77	21.854
2203.01	20.9197
2203.25	20.9505
2203.49	21.9363
2203.72	21.9128
2203.96	16.3181
2204.2	20.9814
2204.44	22.83
2204.68	20.9477
2204.92	22.792
2205.16	24.6403
2205.39	21.8479
2205.63	21.8492
2205.87	19.0646
2206.11	21.8531
2206.35	20.9169
2206.59	20.9186
2206.83	20.922
2207.06	21.8561
2207.3	21.8608
2207.54	23.7265
2207.78	21.8704
2208.02	21.875
2208.26	22.81
2208.49	21.8822
2208.73	22.8157
2208.97	21.8858
2209.21	20.9545
2209.45	21.8854
2209.69	19.0926
2209.93	21.8896
2210.17	21.893
2210.4	22.8284
2210.64	22.8322
2210.88	18.1755
2211.12	20.9754
2211.36	24.7102
2211.6	23.7826
2211.83	23.7864
2212.07	20.9891
2212.31	20.9877
2212.55	22.851
2212.79	20.9838
2213.02	22.8448
2213.26	22.8416
2213.5	21.9111
2213.74	22.8484
2213.98	22.8591
2214.22	20.0667
2214.45	22.8693
2214.69	22.8713
2214.93	21.9393
2215.17	21.0068
2215.41	21.0074
2215.65	22.8748
2215.88	22.8746
2216.12	21.9404
2216.36	22.873
2216.6	25.673
2216.84	24.7397
2217.07	21.0064
2217.31	22.8747
2217.55	21.9409
2217.79	21.9409
2218.03	22.8758
2218.26	22.8784
2218.5	24.7497
2218.74	18.2155
2218.98	19.1533
2219.22	22.8929
2219.45	22.8962
2219.69	18.2252
2219.93	20.0938
2220.17	20.0931
2220.41	18.2234
2220.64	21.9591
2220.88	18.2168
2221.12	21.9479
2221.36	19.1419
2221.6	22.8727
2221.83	20.0698
2222.07	22.8699
2222.31	22.872
2222.55	21.9419
2222.78	19.1437
2223.02	19.1472
2223.26	19.1521
2223.5	23.8306
2223.74	18.2292
2223.97	22.91
2224.21	23.8511
2224.45	23.8565
2224.69	20.1188
2224.93	21.0601
2225.16	20.13
2225.4	20.1344
2225.64	22.949
2225.88	22.9541
2226.11	22.0206
2226.35	21.0885
2226.59	22.03
2226.83	22.0337
2227.07	22.0363
2227.3	22.9756
2227.54	22.9749
2227.78	25.7862
2228.02	18.2835
2228.25	19.2199
2228.49	22.0316
2228.73	22.968
2228.96	19.2183
2229.2	22.9728
2229.44	19.2275
2229.68	21.1085
2229.92	22.0506
2230.15	20.1781
2230.39	20.1824
2230.63	23.9426
2230.87	23.0092
2231.1	20.1969
2231.34	23.9591
2231.58	19.2653
2231.82	22.0891
2232.05	23.9739
2232.29	22.0978
2232.53	23.0427
2232.77	23.9877
2233	20.2288
2233.24	23.0559
2233.48	22.1181
2233.71	22.1207
2233.95	21.1779
2234.19	20.2351
2234.43	23.0558
2234.66	20.229
2234.9	22.1025
2235.14	21.1571
2235.38	23.039
2235.61	23.9805
2235.85	22.1011
2236.09	21.1619
2236.33	18.3412
2236.56	20.2238
2236.8	22.1106
2237.04	22.1157
2237.27	20.2417
2237.51	20.2503
2237.75	22.1425
2237.98	23.0912
2238.22	24.9831
2238.46	20.2758
2238.7	24.0566
2238.93	20.284
2239.17	24.0555
2239.41	21.2227
2239.65	17.4445
2239.88	24.0401
2240.12	21.2095
2240.36	22.164
2240.59	19.3405
2240.83	24.0594
2241.07	21.2305
2241.3	21.2323
2241.54	21.2337
2241.78	22.1797
2242.02	23.1262
2242.25	18.4091
2242.49	23.1295
2242.73	25.0168
2242.96	22.1815
2243.2	23.1222
2243.44	18.4023
2243.67	22.1766
2243.91	20.2902
2244.15	19.3499
2244.38	22.1886
2244.62	22.1981
2244.86	20.3163
2245.09	24.1016
2245.33	21.2705
2245.57	18.4385
2245.81	24.1169
2246.04	20.3374
2246.28	23.1775
2246.52	20.3429
2246.75	19.3997
2246.99	20.3482
2247.23	26.0279
2247.46	23.1882
2247.7	21.2942
2247.94	23.1858
2248.17	23.1844
2248.41	24.1296
2248.65	23.1822
2248.88	21.2891
2249.12	21.2936
2249.36	21.2959
2249.59	25.0815
2249.83	22.2391
2250.07	22.2348
2250.3	23.1763
2250.54	21.2793
2250.78	22.2213
2251.01	20.3273
2251.25	21.272
2251.49	23.1641
2251.72	19.3846
2251.96	22.2251
2252.2	18.446
2252.43	24.13
2252.67	24.1439
2252.91	21.3112
2253.14	21.3177
2253.38	22.2704
2253.61	22.2746
2253.85	21.3311
2254.09	22.2822
2254.32	21.3343
2254.56	22.2802
2254.8	23.2301
2255.03	21.3338
2255.27	23.2313
2255.51	23.2324
2255.74	19.4431
2255.98	20.3956
2256.22	22.2969
2256.45	22.3006
2256.69	24.2029
2256.92	19.4605
2257.16	23.2615
2257.4	22.3145
2257.63	22.3159
2257.87	22.317
2258.11	21.3689
2258.34	23.2709
2258.58	20.4246
2258.81	22.3281
2259.05	20.4298
2259.29	19.4813
2259.52	18.5334
2259.76	18.5355
2260	17.5868
2260.23	22.3422
2260.47	21.3951
2260.7	19.5001
2260.94	20.4555
2261.18	19.5049
2261.41	18.5547
2261.65	21.4113
2261.88	24.2684
2262.12	18.5611
2262.36	21.4215
2262.59	26.1879
2262.83	22.385
2263.06	23.3451
2263.3	20.494
2263.54	18.5951
2263.77	20.5102
2264.01	21.4717
2264.24	23.3872
2264.48	20.5285
2264.72	19.5779
2264.95	23.4021
2265.19	19.582
2265.42	22.4486
2265.66	19.5811
2265.9	21.4868
2266.13	24.3461
2266.37	21.4766
2266.6	25.2894
2266.84	25.2854
2267.08	22.4197
2267.31	20.5084
2267.55	21.4577
2267.78	22.4079
2268.02	20.4999
2268.26	17.6404
2268.49	20.5041
2268.73	19.5548
2268.96	25.2852
2269.2	19.566
2269.43	22.4364
2269.67	24.3545
2269.91	20.5406
2270.14	22.4557
2270.38	19.5919
2270.61	19.5962
2270.85	23.4242
2271.08	22.4712
2271.32	21.5183
2271.55	20.5658
2271.79	22.4812
2272.03	26.3087
2272.26	25.3534
2272.5	21.5278
2272.73	24.3997
2272.97	18.6598
2273.2	16.747
2273.44	20.5761
2273.68	25.3628
2273.91	22.4927
2274.15	22.4941
2274.38	20.581
2274.62	21.5399
2274.85	20.584
2275.09	21.5427
2275.32	24.4148
2275.56	22.5037
2275.79	21.5514
2276.03	19.6408
2276.27	20.6035
2276.5	20.6079
2276.74	23.4891
2276.97	23.4972
2277.21	19.6685
2277.44	22.5561
2277.68	22.5654
2277.91	21.6084
2278.15	21.6101
2278.38	24.4918
2278.62	19.6888
2278.85	20.6479
2279.09	21.6038
2279.33	23.514
2279.56	22.5478
2279.8	18.705
2280.03	24.4549
2280.27	22.5327
2280.5	21.5709
2280.74	22.5275
2280.97	20.6077
2281.21	21.5648
2281.44	19.6502
2281.68	21.5691
2281.91	20.6137
2282.15	23.495
2282.38	24.4599
2282.62	20.6281
2282.85	21.5941
2283.09	17.7625
2283.32	17.7709
2283.56	22.5838
2283.79	21.6328
2284.03	19.715
2284.26	23.5651
2284.5	23.5708
2284.73	16.84
2284.97	21.6532
2285.2	23.5783
2285.44	20.6863
2285.67	20.6793
2285.91	22.6026
2286.14	20.6807
2286.38	19.7229
2286.61	26.4702
2286.85	23.5914
2287.08	18.7796
2287.32	21.6719
2287.55	20.7138
2287.79	19.7489
2288.02	23.5989
2288.26	21.6693
2288.49	22.6282
2288.73	23.5837
2288.96	23.5752
2289.2	25.4907
2289.43	22.5963
2289.67	21.6318
2289.9	28.3594
2290.14	22.5916
2290.37	23.5538
2290.61	20.6731
2290.84	19.7172
2291.08	21.648
2291.31	19.7283
2291.55	19.7319
2291.78	22.6236
2292.02	22.6283
2292.25	21.6707
2292.48	24.5657
2292.72	22.6431
2292.95	20.7192
2293.19	20.7217
2293.42	21.6866
2293.66	21.685
2293.89	20.7188
2294.13	17.8251
2294.36	23.6019
2294.6	25.5251
2294.83	17.817
2295.07	21.6664
2295.3	23.5892
2295.54	19.7357
2295.77	22.6178
2296.01	18.761
2296.24	23.5707
2296.47	22.6108
2296.71	22.6143
2296.94	19.7312
2297.18	22.6241
2297.41	24.557
2297.65	22.6387
2297.88	24.5707
2298.11	22.6471
2298.35	24.5798
2298.58	23.6221
2298.82	22.663
2299.05	21.7026
2299.29	20.7399
2299.52	21.7045
2299.76	22.6692
2299.99	19.7751
2300.23	22.6721
2300.46	21.7111
2300.69	21.7141
2300.93	21.7166
2301.16	20.7529
2301.4	23.6493
2301.63	23.6486
2301.87	21.7161
2302.1	17.8546
2302.33	19.7854
2302.57	22.6803
2302.8	22.6793
2303.04	18.8188
2303.27	21.7147
2303.5	23.6475
2303.74	21.7211
2303.97	22.6901
2304.21	22.6929
2304.44	20.7649
2304.68	23.6669
2304.91	17.8729
2305.14	22.7048
2305.38	24.6394
2305.61	21.7437
2305.85	20.7798
2306.08	22.714
2306.31	20.7813
2306.55	26.5806
2306.78	17.8809
2307.02	22.7115
2307.25	21.7425
2307.48	20.7748
2307.72	23.6714
2307.95	20.7715
2308.19	23.6699
2308.42	22.7052
2308.65	23.6752
2308.89	20.78
2309.12	21.7524
2309.36	19.8252
2309.59	19.8294
2309.82	23.7008
2310.06	18.8645
2310.29	22.7335
2310.53	22.7311
2310.76	17.8903
2310.99	24.6445
2311.23	21.732
2311.46	22.6899
2311.7	21.7194
2311.93	21.7162
2312.16	22.6775
2312.4	19.7801
2312.63	21.7099
2312.86	20.7478
2313.1	17.8587
2313.33	23.6599
2313.56	23.6671
2313.8	26.5732
2314.03	20.782
2314.27	20.7902
2314.5	21.7643
2314.73	17.8983
2314.97	18.86
2315.2	23.6904
2315.43	24.6525
2315.67	23.6793
2315.9	19.8019
2316.14	20.7627
2316.37	22.6911
2316.6	23.6566
2316.84	22.6924
2317.07	22.6938
2317.3	15.9387
2317.54	23.6706
2317.77	21.7299
2318	23.6584
2318.24	22.6897
2318.47	19.7901
2318.71	28.4737
2318.94	25.5745
2319.17	26.5368
2319.41	26.5351
2319.64	26.5355
2319.87	25.5714
2320.11	22.6764
2320.34	21.714
2320.57	22.6826
2320.81	22.6866
2321.04	25.5878
2321.27	22.6962
2321.51	25.6012
2321.74	27.5422
2321.97	24.6496
2322.21	23.6851
2322.44	21.7506
2322.67	23.6854
2322.91	24.6542
2323.14	24.6557
2323.37	28.5255
2323.61	27.5594
2323.84	25.6243
2324.07	21.7556
2324.31	25.6166
2324.54	26.5751
2324.77	28.4975
2325.01	31.3887
2325.24	34.2795
2325.47	32.3419
2325.71	33.3006
2325.94	35.2235
2326.17	38.1104
2326.41	53.5361
2326.64	63.1686
2326.87	84.3667
2327.1	120.989
2327.34	168.199
2327.57	209.625
2327.8	193.253
2328.04	142.17
2328.27	102.655
2328.5	74.6854
2328.74	53.4744
2328.97	45.7539
2329.2	33.2293
2329.44	32.2648
2329.67	33.2331
2329.9	33.2301
2330.13	26.4858
2330.37	30.3355
2330.6	24.5566
2330.83	23.5956
2331.07	23.5993
2331.3	23.6034
2331.53	23.6094
2331.77	27.4552
2332	23.5976
2332.23	20.7052
2332.47	24.554
2332.7	21.6625
2332.93	22.6225
2333.16	27.4329
2333.4	23.5805
2333.63	23.5772
2333.86	24.5355
2334.09	24.529
2334.33	22.602
2334.56	24.5232
2334.79	22.5992
2335.02	22.5979
2335.26	21.6374
2335.49	22.6008
2335.72	21.6383
2335.96	19.7128
2336.19	23.5578
2336.42	21.6339
2336.66	17.7873
2336.89	22.5936
2337.12	21.6313
2337.35	19.7069
2337.59	22.5893
2337.82	21.6272
2338.05	22.5874
2338.28	20.6646
2338.52	23.5491
2338.75	18.7437
2338.98	22.5885
2339.21	24.5102
2339.45	21.6249
2339.68	25.4662
2339.91	24.501
2340.14	22.5756
2340.38	24.4914
2340.61	22.5641
2340.84	25.4364
2341.07	23.5077
2341.31	25.4196
2341.54	23.4971
2341.77	20.6165
2342	21.5722
2342.24	23.4872
2342.47	21.5687
2342.7	25.4028
2342.93	24.4446
2343.17	21.5677
2343.4	19.6499
2343.63	19.6503
2343.86	23.4864
2344.1	21.5699
2344.33	21.5693
2344.56	18.6922
2344.79	22.5241
2345.02	21.5621
2345.26	21.5564
2345.49	22.5105
2345.72	22.5063
2345.95	20.5896
2346.19	20.5885
2346.42	20.5876
2346.65	22.5007
2346.88	25.3712
2347.12	21.5414
2347.35	18.6697
2347.58	20.5912
2347.81	23.4434
2348.04	21.5321
2348.28	21.5406
2348.51	22.3485
2348.74	22.3167
2348.97	21.5515
2349.2	23.5311
2349.44	21.5421
2349.67	23.1178
2349.9	21.2239
2350.13	21.2638
2350.37	24.489
2350.6	20.449
2350.83	19.2442
2351.06	23.1477
2351.29	21.5386
2351.53	20.1033
2351.76	23.8458
2351.99	17.5871
2352.22	21.6314
2352.45	21.0596
2352.69	19.732
2352.92	20.634
2353.15	19.8867
2353.38	22.9616
2353.61	21.5708
2353.85	19.1281
2354.08	24.2175
2354.31	21.4658
2354.54	19.2061
2354.77	21.8857
2355.01	19.1552
2355.24	21.101
2355.47	23.0585
2355.7	21.1487
2355.93	20.9162
2356.17	22.6703
2356.4	22.2086
2356.63	19.7642
2356.86	21.2581
2357.09	23.0627
2357.32	23.1615
2357.56	21.0758
2357.79	19.4421
2358.02	22.0047
2358.25	20.9024
2358.48	21.5145
2358.71	20.2017
2358.95	22.1267
2359.18	22.9619
2359.41	20.2708
2359.64	22.7399
2359.87	19.3407
2360.1	19.4541
2360.34	21.1936
2360.57	22.6021
2360.8	19.889
2361.03	22.1852
2361.26	23.3589
2361.49	20.9206
2361.73	19.4731
2361.96	21.6019
2362.19	20.6579
2362.42	20.0634
2362.65	22.2336
2362.88	17.7259
2363.11	21.2863
2363.35	22.9925
2363.58	21.4055
2363.81	21.5365
2364.04	21.6458
2364.27	18.5462
2364.5	19.4143
2364.73	22.2132
2364.97	19.8047
2365.2	21.1823
2365.43	21.715
2365.66	22.6846
2365.89	21.8116
2366.12	21.1029
2366.36	21.2969
2366.59	22.9352
2366.82	22.4022
2367.05	21.5658
2367.28	18.1484
2367.51	20.0883
2367.74	19.8799
2367.97	20.5149
2368.2	22.4759
2368.44	23.0307
2368.67	21.3011
2368.9	21.4701
2368.98	22.1784
2369.22	16.5122
2369.45	18.3949
2369.69	19.3333
2369.92	21.2141
2370.15	22.152
2370.39	21.2055
2370.62	20.259
2370.86	21.1975
2371.09	19.3106
2371.33	22.1343
2371.56	20.2483
2371.79	22.1279
2372.03	21.1828
2372.26	21.1792
2372.5	21.176
2372.73	19.2918
2372.97	21.1729
2373.2	22.1126
2373.43	21.1683
2373.67	23.0445
2373.9	22.0998
2374.14	19.2754
2374.37	21.1522
2374.6	23.0282
2374.84	22.0835
2375.07	21.1395
2375.31	21.1371
2375.54	21.1355
2375.77	20.1949
2376.01	23.95
2376.24	19.2501
2376.48	22.0634
2376.71	21.1226
2376.94	19.2435
2377.18	19.2416
2377.41	21.1152
2377.65	20.1724
2377.88	19.2313
2378.11	22.0412
2378.35	22.0368
2378.58	21.0946
2378.82	22.0265
2379.05	20.1447
2379.28	21.0745
2379.52	21.0699
2379.75	22.0037
2379.98	20.1294
2380.22	19.1916
2380.45	20.1265
2380.69	21.0616
2380.92	21.0612
2381.15	18.2533
2381.39	19.1902
2381.62	19.19
2381.85	20.1245
2382.09	22.9319
2382.32	16.3791
2382.56	19.1852
2382.79	21.0553
2383.02	19.1831
2383.26	21.0539
2383.49	17.3104
2383.72	21.9887
2383.96	19.1818
2384.19	21.9881
2384.42	20.1154
2384.66	21.9851
2384.89	20.111
2385.13	19.1724
2385.36	19.1687
2385.59	20.0983
2385.83	18.2237
2386.06	22.8912
2386.29	24.7522
2386.53	22.8766
2386.76	22.8702
2386.99	20.0628
2387.23	20.9904
2387.46	23.7873
2387.69	18.1906
2387.93	20.9894
2388.16	20.9889
2388.4	20.0549
2388.63	22.8511
2388.86	19.1182
2389.1	20.0504
2389.33	19.117
2389.56	20.0485
2389.8	20.0482
2390.03	21.9131
2390.26	20.9814
2390.5	20.05
2390.73	20.9841
2390.96	19.1198
2391.2	19.1203
2391.43	22.8505
2391.66	18.186
2391.9	21.9145
2392.13	19.1151
2392.36	18.1804
2392.59	20.0375
2392.83	18.167
2393.06	18.1604
2393.3	20.0146
2393.53	19.0787
2393.76	20.0055
2394	17.2127
2394.23	17.2081
2394.46	16.2736
2394.69	19.9947
2394.93	19.9983
2395.16	20.0056
2395.39	22.8422
2395.63	17.2513
2395.86	19.1155
2396.09	20.0629
2396.33	19.1388
2396.56	23.7889
2396.79	17.255
2397.02	20.0516
2397.26	23.7821
2397.49	18.1868
2397.73	19.1196
2397.96	18.1861
2398.19	17.2528
2398.42	17.2527
2398.66	24.713
2398.89	20.9823
2399.12	20.9834
2399.36	19.1185
2399.59	20.984
2399.82	16.3208
