#Acq. time (s)=	30
#Accumulations=	2
#Range (cm-¹)=	1200...2365
#Windows=	3
#Auto scanning=	Off
#Autofocus=	Off
#Macrospot=	Off
#AutoExposure=	Off
#Spike filter=	Multiple accum.
#Delay time (s)=	2
#Binning=	1
#Readout mode=	Signal
#DeNoise=	Off
#ICS correction=	On
#Dark correction=	Off
#Inst. Process=	Off
#Detector Gain=	Best Dynamic
#Detector ADC=	50 kHz HS
#Detector temperature (°C)=	-60.09
#Instrument=	LabRAM HR Evol
#Detector=	SIN-EM FIVIS
#Objective=	x100_VIS
#Grating=	1800 (450-850nm)
#ND Filter=	100%
#Laser=	532nm_Edge
#Hole=	49.98
#Temperature=	0
#Range=	Visible
#StageXY=	75x50mm Scan+
#StageZ=	Z motor
#X (µm)=	0
#Y (µm)=	0
#Z (µm)=	-251.2
#Full time(mm:ss)=	3:17
#Project=	21_11_04
#Sample=	BU19w
#Site=	
#Title=	BU19w-E-FF11b-FI02-V_1800 (450-850nm)_532nm_Edge_100%_x100_VIS_H50um_30sX2
#Remark=	
#Date=	04.11.2021 18:23
#Acquired=	04.11.2021 18:23:01
1202.73	32.8442
1203.01	36.0578
1203.29	31.7242
1203.57	27.4176
1203.85	32.7809
1204.12	30.6417
1204.4	33.8632
1204.68	31.7037
1204.96	32.7641
1205.24	28.4552
1205.51	27.368
1205.79	29.5006
1206.07	28.4146
1206.35	32.6882
1206.63	30.5314
1206.9	29.4509
1207.18	28.3735
1207.46	31.579
1207.74	32.644
1208.01	32.6355
1208.29	32.6258
1208.57	31.5479
1208.85	30.4727
1209.13	29.4016
1209.4	31.538
1209.68	30.4642
1209.96	28.3173
1210.23	30.4416
1210.51	33.6341
1210.79	29.3529
1211.07	30.41
1211.35	30.3993
1211.62	27.1886
1211.9	28.2458
1212.18	31.4347
1212.46	28.2296
1212.73	32.4828
1213.01	26.0886
1213.29	32.4718
1213.57	31.4054
1213.84	29.2774
1214.12	32.4721
1214.4	30.3428
1214.68	31.4066
1214.95	35.6635
1215.23	32.468
1215.51	31.3975
1215.78	29.2597
1216.06	32.4384
1216.34	35.6141
1216.62	34.5393
1216.9	33.4668
1217.17	31.3327
1217.45	33.4485
1217.73	30.2562
1218	32.372
1218.28	32.367
1218.56	35.548
1218.84	32.3617
1219.11	27.0541
1219.39	32.3522
1219.67	36.5921
1219.94	29.1683
1220.22	34.4699
1220.5	34.4682
1220.77	37.6428
1221.05	30.2159
1221.33	36.5684
1221.61	33.3766
1221.88	31.244
1222.16	31.2287
1222.44	36.5029
1222.72	33.3146
1222.99	30.1269
1223.27	32.2309
1223.55	31.162
1223.82	31.1528
1224.1	37.4821
1224.38	33.2525
1224.65	37.4726
1224.93	33.2515
1225.21	31.1453
1225.49	36.4282
1225.76	33.2617
1226.04	34.315
1226.32	34.3104
1226.59	33.2485
1226.87	35.3469
1227.15	32.1566
1227.42	41.6132
1227.7	30.0073
1227.98	35.244
1228.25	38.3676
1228.53	30.9981
1228.81	35.2509
1229.08	36.3871
1229.36	34.2877
1229.64	37.4169
1229.91	37.3945
1230.19	33.1794
1230.47	39.4897
1230.74	39.4277
1231.02	33.0994
1231.3	36.2537
1231.57	34.1513
1231.85	37.3
1232.13	36.2474
1232.4	39.3978
1232.68	34.1416
1232.96	39.3918
1233.23	35.1909
1233.51	35.1937
1233.79	38.3489
1234.06	36.2521
1234.34	35.2076
1234.62	37.3133
1234.89	36.2652
1235.17	36.2696
1235.45	35.2221
1235.72	41.5319
1236	37.3226
1236.27	35.2147
1236.55	35.2088
1236.83	39.4007
1237.1	37.2861
1237.38	35.1728
1237.66	40.4082
1237.93	34.0981
1238.21	38.282
1238.49	35.1286
1238.76	33.0264
1239.04	35.1192
1239.31	37.2128
1239.59	36.163
1239.87	38.2586
1240.14	34.0664
1240.42	35.1162
1240.7	39.3115
1240.97	36.1664
1241.25	40.3518
1241.52	37.2016
1241.8	39.2956
1242.08	35.1072
1242.35	35.1091
1242.63	36.1649
1242.91	34.0694
1243.18	34.068
1243.46	40.36
1243.74	39.3135
1244.01	37.2142
1244.29	38.2597
1244.56	40.35
1244.84	37.1959
1245.11	36.1382
1245.39	41.3597
1245.67	41.35
1245.94	38.2068
1246.22	35.0647
1246.49	41.3459
1246.77	40.2966
1247.05	36.1075
1247.32	39.2457
1247.6	40.2824
1247.87	40.2688
1248.15	35.0362
1248.43	44.4494
1248.7	38.1774
1248.98	35.0397
1249.25	33.9914
1249.53	37.1289
1249.8	41.3086
1250.08	42.3434
1250.36	44.4237
1250.63	36.0542
1250.91	36.0476
1251.18	39.1754
1251.46	36.0349
1251.74	42.2941
1252.01	41.2421
1252.29	42.2778
1252.56	40.1819
1252.84	38.0893
1253.11	40.1748
1253.39	34.9606
1253.66	40.1858
1253.94	41.238
1254.22	39.1556
1254.49	40.2011
1254.77	39.1588
1255.04	41.2486
1255.32	37.0703
1255.59	38.1149
1255.87	37.073
1256.14	39.1665
1256.42	36.0364
1256.7	41.2587
1256.97	44.3872
1257.25	51.6924
1257.52	46.4673
1257.8	46.4635
1258.07	50.6357
1258.35	44.3617
1258.62	40.182
1258.9	47.4919
1259.18	43.3194
1259.45	48.5616
1259.73	48.557
1260	48.5467
1260.28	45.3985
1260.55	52.6889
1260.83	47.463
1261.1	47.4573
1261.38	56.8826
1261.65	62.1678
1261.93	67.505
1262.2	69.4961
1262.48	70.453
1262.75	75.5785
1263.03	79.819
1263.31	84.0614
1263.58	78.8969
1263.85	83.1838
1264.13	77.8959
1264.41	67.4138
1264.68	66.3653
1264.96	58.0076
1265.23	54.8566
1265.51	51.7198
1265.78	49.6323
1266.06	47.5478
1266.33	50.6914
1266.61	44.4297
1266.88	47.5781
1267.16	48.6377
1267.43	43.421
1267.71	43.4373
1267.98	42.4113
1268.26	44.5154
1268.53	46.6181
1268.81	41.3863
1269.08	49.7711
1269.36	46.6186
1269.63	46.6061
1269.91	45.5465
1270.18	48.6773
1270.46	41.3407
1270.73	45.5221
1271.01	46.5643
1271.28	41.3309
1271.56	48.664
1271.83	42.3961
1272.1	48.6935
1272.38	45.5667
1272.65	47.6738
1272.93	47.6866
1273.2	46.6508
1273.48	46.6632
1273.75	47.7219
1274.03	45.6286
1274.3	47.7262
1274.58	47.7254
1274.85	43.5327
1275.13	43.5389
1275.4	49.8422
1275.68	53.0015
1275.95	54.0623
1276.22	46.7228
1276.5	44.6301
1276.78	49.891
1277.05	46.7514
1277.32	43.6102
1277.6	46.7728
1277.87	52.0379
1278.15	55.206
1278.42	57.3208
1278.7	57.3312
1278.97	62.5924
1279.24	58.3806
1279.52	66.7884
1279.79	63.6281
1280.07	65.7344
1280.34	72.05
1280.62	82.5841
1280.89	97.3433
1281.17	107.89
1281.44	152.1
1281.71	178.423
1281.99	236.357
1282.26	322.669
1282.54	439.395
1282.81	582.019
1283.09	723.537
1283.36	879.074
1283.63	905.078
1283.91	731.39
1284.18	545.261
1284.46	353.566
1284.73	233.33
1285.01	175.311
1285.28	122.649
1285.55	100.563
1285.83	91.1005
1286.1	82.6532
1286.38	73.1757
1286.65	62.6452
1286.93	59.4799
1287.2	57.3638
1287.47	60.512
1287.75	56.3004
1288.02	59.4591
1288.3	56.3038
1288.57	55.2585
1288.84	52.1103
1289.12	57.3842
1289.39	51.0769
1289.67	47.9277
1289.94	52.1466
1290.21	52.1401
1290.49	47.9229
1290.76	52.1348
1291.04	47.9216
1291.31	45.8143
1291.58	48.972
1291.86	46.8687
1292.13	43.7105
1292.4	48.9706
1292.68	45.8111
1292.95	47.9258
1293.23	42.6785
1293.5	49.0205
1293.77	44.8189
1294.05	45.8714
1294.32	43.7626
1294.59	49.0345
1294.87	49.0528
1295.14	53.2987
1295.42	44.8841
1295.69	44.9121
1295.96	43.8642
1296.24	42.8088
1296.51	43.8643
1296.79	43.8573
1297.06	42.7925
1297.33	42.7833
1297.61	46.9973
1297.88	43.8251
1298.15	45.941
1298.43	48.0455
1298.7	42.7594
1298.97	45.9202
1299.25	45.9163
1299.52	49.0879
1299.79	42.7606
1300.07	40.6513
1300.34	44.8742
1300.61	45.9281
1300.89	44.8728
1301.16	46.9901
1301.44	48.0543
1301.71	40.6661
1301.98	40.6683
1302.26	41.7249
1302.53	42.7795
1302.8	38.5509
1303.08	40.6573
1303.35	43.8212
1303.62	45.9331
1303.9	44.8778
1304.17	39.5979
1304.44	42.7626
1304.72	50.1461
1304.99	36.4145
1305.26	42.738
1305.54	39.5629
1305.81	45.883
1306.08	46.9317
1306.36	38.493
1306.63	43.7688
1306.9	39.5523
1307.18	44.8261
1307.45	43.7707
1307.72	43.7729
1307.99	36.3883
1308.27	39.5529
1308.54	43.7775
1308.81	36.3987
1309.09	36.4042
1309.36	41.6855
1309.63	37.4649
1309.91	42.739
1310.18	43.7933
1310.45	35.3523
1310.73	41.6864
1311	41.6885
1311.27	37.4687
1311.54	41.6971
1311.82	46.9833
1312.09	37.4848
1312.36	42.7659
1312.64	43.8151
1312.91	42.7555
1313.18	41.6979
1313.45	38.5276
1313.73	40.6374
1314	36.4167
1314.27	39.5868
1314.55	35.3684
1314.82	38.5405
1315.09	41.7135
1315.36	45.9438
1315.64	38.5521
1315.91	40.6621
1316.18	41.7162
1316.46	37.4906
1316.73	36.4341
1317	42.774
1317.28	38.5542
1317.55	42.7827
1317.82	35.39
1318.09	40.6734
1318.37	41.7305
1318.64	39.617
1318.91	40.6721
1319.18	40.6706
1319.46	36.4461
1319.73	41.7298
1320	47.0109
1320.27	42.7807
1320.55	42.7727
1320.82	37.4825
1321.09	38.5265
1321.36	35.3522
1321.64	35.3433
1321.91	40.6109
1322.18	39.5507
1322.45	40.5999
1322.73	43.7546
1323	39.5381
1323.27	44.813
1323.54	37.4334
1323.82	40.5959
1324.09	42.7053
1324.36	43.7582
1324.63	38.4893
1324.91	38.4842
1325.18	41.6313
1325.45	34.2368
1325.72	35.2639
1325.99	38.4056
1326.27	38.3983
1326.54	42.6122
1326.81	42.6404
1327.08	37.3919
1327.36	40.5657
1327.63	39.5269
1327.9	40.5974
1328.17	42.7215
1328.45	42.7325
1328.72	37.4496
1328.99	39.5644
1329.26	43.7842
1329.53	42.7265
1329.81	38.5026
1330.08	39.5511
1330.35	35.3249
1330.62	37.4237
1330.9	41.6267
1331.17	40.5543
1331.44	40.5385
1331.71	39.4747
1331.98	40.5158
1332.26	42.6068
1332.53	42.5912
1332.8	43.6285
1333.07	35.207
1333.34	40.4504
1333.62	40.4389
1333.89	37.278
1334.16	44.6173
1334.43	39.3594
1334.7	44.5989
1334.98	44.5903
1335.25	39.3374
1335.52	40.3796
1335.79	37.2273
1336.06	34.0767
1336.34	38.2659
1336.61	38.2622
1336.88	42.4517
1337.15	38.2556
1337.42	45.5849
1337.69	41.3808
1337.96	43.4693
1338.24	41.3684
1338.51	37.1734
1338.78	40.3128
1339.05	39.266
1339.32	43.4572
1339.6	42.4117
1339.87	32.9875
1340.14	38.2255
1340.41	37.1784
1340.68	46.6021
1340.95	41.3636
1341.23	45.5482
1341.5	39.2603
1341.77	44.4865
1342.04	40.2898
1342.31	38.1866
1342.58	41.3168
1342.86	43.405
1343.13	36.0819
1343.4	41.3105
1343.67	37.1275
1343.94	39.2197
1344.21	41.3096
1344.48	44.441
1344.76	37.1139
1345.03	38.149
1345.3	41.2726
1345.57	39.1716
1345.84	41.2431
1346.11	45.4008
1346.39	39.1272
1346.66	42.2446
1346.93	34.9328
1347.2	43.2654
1347.47	41.1743
1347.74	42.2124
1348.01	39.0825
1348.28	38.0359
1348.55	35.9455
1348.83	38.0221
1349.1	39.0565
1349.37	41.1321
1349.64	41.1248
1349.91	41.1175
1350.18	41.1085
1350.45	42.1388
1350.73	42.1305
1351	37.9612
1351.27	43.1549
1351.54	42.1133
1351.81	45.2356
1352.08	33.8026
1352.35	48.3773
1352.62	40.0616
1352.89	44.2496
1353.17	45.336
1353.44	41.1577
1353.71	39.0223
1353.98	40.012
1354.25	46.235
1354.52	46.241
1354.79	43.1155
1355.06	46.2141
1355.33	37.9127
1355.6	46.2424
1355.88	41.034
1356.15	38.9523
1356.42	41.0262
1356.69	42.0612
1356.96	44.1332
1357.23	44.1268
1357.5	43.0814
1357.77	35.8083
1358.04	38.9152
1358.31	43.0588
1358.58	40.9747
1358.86	40.9683
1359.13	38.889
1359.4	46.1405
1359.67	41.9796
1359.94	47.1494
1360.21	44.0298
1360.48	41.953
1360.75	42.9874
1361.02	48.166
1361.29	47.1275
1361.56	42.981
1361.83	44.011
1362.1	39.8652
1362.37	45.0392
1362.65	48.1465
1362.92	46.0815
1363.19	46.0893
1363.46	42.9868
1363.73	46.0977
1364	49.2022
1364.27	50.2338
1364.54	51.2622
1364.81	44.0039
1365.08	47.0991
1365.35	48.1231
1365.62	41.9044
1365.89	42.9294
1366.16	44.9865
1366.43	46.0059
1366.7	45.9942
1366.97	45.9895
1367.24	45.9904
1367.52	49.0971
1367.79	50.1338
1368.06	48.0694
1368.33	54.2753
1368.6	71.8554
1368.87	82.2007
1369.14	88.4016
1369.41	68.7482
1369.68	54.2689
1369.95	48.0575
1370.22	53.2147
1370.49	47.0078
1370.76	45.9637
1371.03	43.8843
1371.3	44.9005
1371.57	47.9785
1371.84	48.9927
1372.11	46.9159
1372.38	51.0299
1372.65	47.9302
1372.92	46.8935
1373.19	52.0409
1373.46	42.7624
1373.73	52.0322
1374	54.0893
1374.27	49.9647
1374.54	52.0194
1374.81	48.9279
1375.08	49.9629
1375.35	48.9342
1375.62	52.027
1375.89	48.9294
1376.16	53.037
1376.43	48.9033
1376.7	59.1741
1376.97	50.9377
1377.24	51.9772
1377.51	49.9357
1377.78	53.0484
1378.05	55.1399
1378.32	54.126
1378.59	57.2212
1378.86	58.2464
1379.13	58.2387
1379.4	56.1676
1379.67	54.0906
1379.94	58.1681
1380.21	60.1945
1380.48	60.1639
1380.75	58.1125
1381.02	68.3905
1381.29	63.2231
1381.56	67.3016
1381.83	67.2712
1382.1	65.1936
1382.37	68.246
1382.64	72.3304
1382.91	75.3839
1383.18	77.4205
1383.45	84.5817
1383.72	97.9095
1383.99	95.8638
1384.26	109.21
1384.53	111.283
1384.8	144.165
1385.07	159.6
1385.34	208.925
1385.61	292.112
1385.87	420.555
1386.14	608.576
1386.41	998.936
1386.68	1555.5
1386.95	1948.27
1387.22	1701.16
1387.49	1113.19
1387.76	606.87
1388.03	359.011
1388.3	240.498
1388.57	179.167
1388.84	130.898
1389.11	103.211
1389.38	101.14
1389.65	91.8451
1389.92	81.5041
1390.19	79.4859
1390.46	70.214
1390.73	73.2777
1390.99	71.2274
1391.26	69.1641
1391.53	57.8778
1391.8	59.9118
1392.07	56.8291
1392.34	54.7732
1392.61	58.8613
1392.88	56.8082
1393.15	56.8029
1393.42	49.6344
1393.69	54.7474
1393.96	53.7208
1394.23	49.6252
1394.5	53.7189
1394.76	51.6824
1395.03	51.6894
1395.3	49.6467
1395.57	52.7176
1395.84	53.7378
1396.11	52.7087
1396.38	54.7488
1396.65	51.6712
1396.92	49.6149
1397.19	55.7456
1397.46	50.6292
1397.73	44.494
1397.99	48.5903
1398.26	51.6641
1398.53	45.5286
1398.8	53.7198
1399.07	44.5171
1399.34	53.733
1399.61	49.6409
1399.88	50.6683
1400.14	48.6312
1400.41	52.7359
1400.68	50.6894
1400.95	46.5958
1401.22	50.6947
1401.49	53.7777
1401.76	49.7038
1402.03	48.708
1402.3	46.6811
1402.57	51.83
1402.83	49.7884
1403.1	49.7921
1403.37	46.707
1403.64	54.8951
1403.91	50.7851
1404.18	51.8114
1404.45	52.832
1404.72	55.9012
1404.99	55.8912
1405.25	56.9067
1405.52	57.9225
1405.79	58.9405
1406.06	60.9849
1406.33	69.1849
1406.6	64.0642
1406.87	77.3963
1407.13	87.6537
1407.4	89.7097
1407.67	95.8672
1407.94	115.355
1408.21	126.643
1408.48	126.655
1408.75	114.358
1409.01	112.317
1409.28	97.9631
1409.55	81.5545
1409.82	67.1842
1410.09	65.1171
1410.36	57.9212
1410.62	55.8565
1410.89	54.8213
1411.16	44.5677
1411.43	52.7596
1411.7	45.592
1411.97	47.6517
1412.23	44.5952
1412.5	48.7508
1412.77	47.7721
1413.04	44.6815
1413.31	43.5853
1413.58	47.6778
1413.84	48.7311
1414.11	44.6583
1414.38	46.7113
1414.65	41.5796
1414.92	44.6601
1415.19	42.6073
1415.45	41.5838
1415.72	45.6951
1415.99	47.7537
1416.26	40.5691
1416.53	40.5741
1416.8	41.6063
1417.06	45.7214
1417.33	45.7252
1417.6	46.7542
1417.87	43.6724
1418.14	35.4549
1418.4	39.5651
1418.67	43.6791
1418.94	43.6765
1419.21	43.6695
1419.48	42.6331
1419.74	39.5444
1420.01	44.6717
1420.28	40.5552
1420.55	43.6266
1420.82	42.594
1421.08	39.5151
1421.35	41.5742
1421.62	42.6188
1421.89	46.7376
1422.16	39.5666
1422.42	43.7052
1422.69	43.7538
1422.96	44.7888
1423.23	47.6442
1423.5	44.6253
1423.76	41.5096
1424.03	45.5735
1424.3	39.4615
1424.57	44.5808
1424.83	44.6394
1425.1	39.4696
1425.37	39.498
1425.64	40.5211
1425.91	42.5689
1426.17	39.4815
1426.44	39.4716
1426.71	40.4853
1426.98	36.3739
1427.24	36.3582
1427.51	42.4951
1427.78	37.3715
1428.05	34.2997
1428.32	43.5168
1428.58	38.4003
1428.85	38.4043
1429.12	37.3855
1429.38	41.4905
1429.65	39.4517
1429.92	37.4119
1430.19	38.4457
1430.46	39.4867
1430.72	35.3994
1430.99	40.5395
1431.26	41.569
1431.53	40.5386
1431.79	37.451
1432.06	41.5473
1432.33	40.5138
1432.6	38.4482
1432.86	37.4085
1433.13	44.5642
1433.4	40.4539
1433.67	37.3759
1433.93	37.3825
1434.2	38.4242
1434.47	40.4758
1434.73	37.4027
1435	40.4766
1435.27	38.426
1435.54	37.3994
1435.8	42.52
1436.07	38.4188
1436.34	42.513
1436.6	35.3391
1436.87	36.3616
1437.14	39.4322
1437.41	39.4288
1437.67	38.4053
1437.94	35.3372
1438.21	34.3172
1438.48	37.3927
1438.74	37.3945
1439.01	38.4236
1439.28	45.6053
1439.54	31.2658
1439.81	36.3984
1440.08	39.4779
1440.35	34.3523
1440.61	40.5068
1440.88	37.4297
1441.15	37.4251
1441.41	37.4208
1441.68	39.4751
1441.95	35.3773
1442.21	38.4591
1442.48	34.357
1442.75	35.3773
1443.02	39.4732
1443.28	38.4437
1443.55	39.4665
1443.82	39.4674
1444.08	38.4504
1444.35	38.4603
1444.62	39.4985
1444.88	38.4751
1445.15	36.42
1445.42	41.5462
1445.69	39.4914
1445.95	34.3602
1446.22	41.537
1446.49	36.4064
1446.75	39.4796
1447.02	37.4245
1447.28	35.37
1447.55	28.1921
1447.82	39.4734
1448.09	37.4315
1448.35	30.2566
1448.62	36.4113
1448.89	38.4606
1449.15	35.38
1449.42	36.4002
1449.69	34.3437
1449.95	40.4907
1450.22	32.2876
1450.49	35.3601
1450.75	39.4568
1451.02	33.3047
1451.29	36.3755
1451.55	39.4463
1451.82	40.4686
1452.09	38.4196
1452.35	40.47
1452.62	36.3755
1452.88	34.3302
1453.15	41.5058
1453.42	36.38
1453.68	39.4517
1453.95	37.402
1454.22	31.254
1454.48	35.3527
1454.75	36.3752
1455.02	31.2507
1455.28	36.3797
1455.55	34.3349
1455.81	32.2862
1456.08	39.4594
1456.35	33.3051
1456.61	37.3973
1456.88	36.3696
1457.15	34.3185
1457.41	36.3653
1457.68	35.341
1457.95	32.2683
1458.21	35.3435
1458.48	37.3947
1458.74	37.396
1459.01	35.3487
1459.28	35.3481
1459.54	34.3216
1459.81	33.295
1460.08	36.3658
1460.34	38.4112
1460.61	37.3822
1460.87	38.4017
1461.14	33.2772
1461.41	32.2482
1461.67	38.3843
1461.94	34.2835
1462.2	32.2301
1462.47	33.246
1462.74	35.2838
1463	35.2755
1463.27	34.2476
1463.54	35.2756
1463.8	38.3633
1464.07	38.3773
1464.33	34.2961
1464.6	33.2885
1464.86	36.2751
1465.13	33.1762
1465.4	33.1601
1465.66	36.2359
1465.93	38.2827
1466.19	33.165
1466.46	32.1313
1466.73	34.1787
1466.99	32.1366
1467.26	37.2349
1467.52	34.1726
1467.79	38.2522
1468.05	37.2317
1468.32	35.1904
1468.59	36.2074
1468.85	31.1043
1469.12	39.2573
1469.38	35.1703
1469.65	38.2204
1469.92	38.2148
1470.18	30.0588
1470.45	37.1878
1470.71	35.1478
1470.98	36.1592
1471.24	35.1349
1471.51	37.1683
1471.77	35.1303
1472.04	31.0563
1472.31	36.1467
1472.57	36.1451
1472.84	32.0688
1473.1	34.0994
1473.37	36.1307
1473.64	34.0919
1473.9	31.038
1474.17	33.075
1474.43	31.0429
1474.7	32.0616
1474.96	32.0614
1475.23	34.0949
1475.49	33.0732
1475.76	34.0867
1476.02	30.0144
1476.29	35.0974
1476.55	34.0741
1476.82	30.002
1477.09	36.1026
1477.35	33.0508
1477.62	38.1333
1477.88	37.1102
1478.15	35.0708
1478.41	35.0658
1478.68	34.044
1478.94	32.0059
1479.21	36.0629
1479.47	38.0867
1479.74	32.9988
1480	40.0936
1480.27	35.0105
1480.53	36.0206
1480.8	37.0303
1481.07	37.0298
1481.33	36.0201
1481.6	37.0412
1481.86	30.9583
1482.12	29.9486
1482.39	30.9658
1482.65	35.0294
1482.92	37.0635
1483.19	36.0492
1483.45	31.9868
1483.72	34.0091
1483.98	36.0221
1484.25	29.9083
1484.51	35.9466
1484.78	35.9179
1485.04	38.925
1485.31	33.9102
1485.57	34.9584
1485.84	34.972
1486.1	33.939
1486.37	30.898
1486.63	33.9473
1486.9	33.9429
1487.16	38.999
1487.43	37.9797
1487.69	32.9108
1487.96	34.9293
1488.22	35.9334
1488.49	35.926
1488.75	35.9211
1489.02	34.9061
1489.28	33.8917
1489.54	29.8442
1489.81	34.9024
1490.07	33.8881
1490.34	27.8139
1490.6	32.8643
1490.87	33.8711
1491.13	38.9241
1491.4	34.8794
1491.66	35.8917
1491.93	29.8254
1492.19	44.9887
1492.46	37.9103
1492.72	37.9102
1492.99	37.9083
1493.25	34.8738
1493.52	32.852
1493.78	33.8644
1494.04	28.8127
1494.31	38.9229
1494.57	35.8861
1494.84	27.7924
1495.1	34.8548
1495.37	29.7939
1495.63	35.846
1495.9	31.8022
1496.16	37.8554
1496.43	34.8216
1496.69	30.783
1496.96	34.8203
1497.22	34.8186
1497.48	32.799
1497.75	30.7806
1498.01	33.8088
1498.28	34.8191
1498.54	34.8204
1498.81	35.8317
1499.07	31.7969
1499.33	37.8572
1499.6	33.821
1499.86	34.8309
1500.13	36.849
1500.39	32.81
1500.66	28.7703
1500.92	35.8293
1501.18	33.8075
1501.45	35.8247
1501.71	37.8418
1501.98	35.8218
1502.24	40.8598
1502.51	35.8069
1502.77	34.7951
1503.03	36.8045
1503.3	28.7358
1503.56	32.7719
1503.83	32.774
1504.09	36.8087
1504.35	33.7826
1504.62	32.7715
1504.88	36.8003
1505.15	30.7452
1505.41	34.7618
1505.68	37.7801
1505.94	34.7567
1506.2	37.7776
1506.47	33.7543
1506.73	35.771
1507	39.8039
1507.26	36.7816
1507.52	33.7567
1507.79	33.7538
1508.05	35.7691
1508.32	32.7478
1508.58	40.8099
1508.84	31.7409
1509.11	33.7553
1509.37	34.7643
1509.63	30.7405
1509.9	32.75
1510.16	35.767
1510.43	34.7518
1510.69	36.7576
1510.95	39.7657
1511.22	37.7333
1511.48	36.7071
1511.75	27.6431
1512.01	38.6805
1512.27	39.6744
1512.54	35.6483
1512.8	35.6409
1513.07	35.6354
1513.33	34.6331
1513.59	32.6413
1513.86	33.6532
1514.12	34.655
1514.38	39.671
1514.65	36.6469
1514.91	35.6352
1515.17	35.6247
1515.44	28.5914
1515.7	35.6041
1515.96	30.586
1516.23	36.6001
1516.49	37.6
1516.76	32.5852
1517.02	36.5958
1517.28	34.5921
1517.55	37.6058
1517.81	33.5982
1518.07	39.6183
1518.34	33.6025
1518.6	37.6177
1518.86	37.6208
1519.13	26.587
1519.39	33.6103
1519.65	37.6211
1519.92	31.5993
1520.18	28.5901
1520.44	33.6087
1520.71	38.6286
1520.97	31.6071
1521.23	33.6136
1521.5	37.6246
1521.76	31.6015
1522.02	30.5948
1522.29	36.6094
1522.55	32.593
1522.81	34.5903
1523.08	32.5736
1523.34	36.5711
1523.6	29.5507
1523.87	34.5529
1524.13	33.5459
1524.39	34.5476
1524.66	36.553
1524.92	37.5561
1525.18	36.5583
1525.45	35.5628
1525.71	34.5692
1525.97	37.5838
1526.24	34.5816
1526.5	30.5728
1526.76	31.5721
1527.02	30.5671
1527.29	36.5775
1527.55	42.5869
1527.81	32.5631
1528.08	29.554
1528.34	34.5599
1528.6	36.561
1528.87	32.5534
1529.13	38.5616
1529.39	33.5494
1529.65	37.5519
1529.92	36.552
1530.18	31.55
1530.44	38.569
1530.71	28.5561
1530.97	32.5664
1531.23	30.5612
1531.5	37.5754
1531.76	28.5549
1532.02	36.5712
1532.28	38.5831
1532.55	36.5908
1532.81	33.5946
1533.07	35.6074
1533.34	32.6019
1533.6	33.6059
1533.86	33.6046
1534.12	33.6024
1534.39	35.6051
1534.65	37.6077
1534.91	33.5918
1535.17	35.583
1535.44	30.5599
1535.7	32.5562
1535.96	32.5464
1536.22	34.5369
1536.49	30.5217
1536.75	35.5187
1537.01	37.5113
1537.28	34.5089
1537.54	34.5047
1537.8	32.4948
1538.06	33.4893
1538.33	37.4832
1538.59	31.49
1538.85	31.5044
1539.11	35.5299
1539.38	39.5561
1539.64	30.5567
1539.9	37.5866
1540.16	32.5856
1540.43	32.5932
1540.69	33.5858
1540.95	36.589
1541.21	31.5702
1541.48	34.5682
1541.74	33.5579
1542	36.554
1542.26	38.5479
1542.52	33.5343
1542.79	32.5258
1543.05	39.5202
1543.31	38.5046
1543.57	29.5019
1543.84	32.5033
1544.1	35.5089
1544.36	40.5223
1544.62	33.5253
1544.89	35.5401
1545.15	33.5473
1545.41	34.5538
1545.67	28.5487
1545.93	31.5529
1546.2	35.5599
1546.46	37.567
1546.72	34.5655
1546.98	35.5728
1547.25	34.569
1547.51	34.5499
1547.77	37.5504
1548.03	32.5413
1548.29	40.5708
1548.56	35.5415
1548.82	34.5016
1549.08	32.4834
1549.34	36.493
1549.61	34.5203
1549.87	39.5837
1550.13	35.6129
1550.39	41.6927
1550.65	33.6379
1550.91	35.6456
1551.18	31.6276
1551.44	37.6343
1551.7	34.6323
1551.96	37.665
1552.22	34.6505
1552.49	33.6434
1552.75	33.6169
1553.01	32.6039
1553.27	33.6048
1553.53	34.6025
1553.79	37.6016
1554.06	32.5784
1554.32	31.563
1554.58	32.5593
1554.84	31.5547
1555.1	33.5571
1555.37	33.5584
1555.63	34.5634
1555.89	33.5558
1556.15	36.5597
1556.41	35.5601
1556.68	36.5642
1556.94	32.5585
1557.2	35.5631
1557.46	34.5579
1557.72	29.5396
1557.98	37.5422
1558.25	38.5305
1558.51	33.5159
1558.77	34.5067
1559.03	29.4988
1559.29	35.4919
1559.55	38.4853
1559.82	34.4828
1560.08	27.484
1560.34	35.4767
1560.6	35.4756
1560.86	34.4771
1561.12	33.4829
1561.38	36.4894
1561.65	31.5021
1561.91	34.5052
1562.17	32.5041
1562.43	34.5016
1562.69	35.5023
1562.95	34.5006
1563.21	37.4969
1563.48	32.5041
1563.74	34.5179
1564	29.5218
1564.26	32.5247
1564.52	31.5143
1564.78	36.4692
1565.04	36.3879
1565.3	33.3282
1565.57	34.4115
1565.83	32.4896
1566.09	33.4915
1566.35	34.4661
1566.61	33.4779
1566.87	39.5115
1567.13	35.5164
1567.39	36.4944
1567.66	37.4889
1567.92	36.4942
1568.18	37.4979
1568.44	34.4976
1568.7	33.4879
1568.96	40.474
1569.22	33.4762
1569.48	35.477
1569.75	31.4809
1570.01	39.4769
1570.27	36.4784
1570.53	36.4772
1570.79	32.4774
1571.05	33.4724
1571.31	33.4662
1571.57	34.4628
1571.83	37.4563
1572.1	30.459
1572.36	36.4452
1572.62	34.4434
1572.88	35.4361
1573.14	38.4245
1573.4	31.4369
1573.66	33.4371
1573.92	36.4393
1574.18	37.4463
1574.44	35.4581
1574.7	32.4696
1574.97	33.4757
1575.23	31.4804
1575.49	32.4783
1575.75	36.4747
1576.01	33.4747
1576.27	30.4694
1576.53	32.4557
1576.79	30.4473
1577.05	30.4366
1577.31	35.4148
1577.57	36.401
1577.83	33.4014
1578.1	35.3919
1578.36	33.3972
1578.62	33.3969
1578.88	36.3877
1579.14	33.3979
1579.4	37.3905
1579.66	35.3998
1579.92	37.3957
1580.18	34.4035
1580.44	38.389
1580.7	29.4105
1580.96	42.3656
1581.22	34.3849
1581.48	33.3806
1581.74	31.3842
1582	38.3558
1582.26	33.3719
1582.53	31.3775
1582.79	38.3487
1583.05	35.36
1583.31	36.3527
1583.57	35.3553
1583.83	30.3776
1584.09	36.3563
1584.35	35.3621
1584.61	37.3547
1584.87	34.3647
1585.13	30.3795
1585.39	37.3498
1585.65	30.372
1585.91	34.3466
1586.17	33.3443
1586.43	38.3154
1586.69	33.3355
1586.95	39.3023
1587.21	33.3302
1587.47	35.3194
1587.73	37.3113
1587.99	35.3249
1588.25	35.3298
1588.51	36.3296
1588.77	33.3479
1589.03	34.3471
1589.29	33.3535
1589.55	30.3664
1589.81	36.3421
1590.07	37.3416
1590.33	34.3585
1590.59	35.3542
1590.85	32.3664
1591.12	33.3607
1591.38	36.3454
1591.64	31.3611
1591.9	33.3423
1592.16	33.3331
1592.42	35.3184
1592.68	33.3184
1592.94	37.2826
1593.2	32.2976
1593.46	34.2745
1593.72	33.2749
1593.98	33.2732
1594.24	31.2889
1594.5	34.2754
1594.76	30.3059
1595.02	34.2854
1595.28	37.2507
1595.54	36.2528
1595.8	35.2593
1596.06	34.2661
1596.32	37.2466
1596.58	32.2823
1596.84	33.2782
1597.09	36.2621
1597.35	33.2821
1597.61	35.2667
1597.87	34.2685
1598.13	31.2808
1598.39	30.2799
1598.65	29.2812
1598.91	31.2609
1599.17	34.2324
1599.43	33.2345
1599.69	35.213
1599.95	34.215
1600.21	31.2329
1600.47	33.2063
1600.73	32.2047
1600.99	35.1657
1601.25	30.204
1601.51	38.1177
1601.77	31.1812
1602.03	38.1026
1602.29	32.1568
1602.55	30.171
1602.81	30.1649
1603.07	36.0937
1603.33	31.1461
1603.59	27.1898
1603.85	36.0884
1604.11	31.1458
1604.37	35.1012
1604.63	32.1354
1604.89	32.1364
1605.14	34.1157
1605.4	27.1969
1605.66	34.1239
1605.92	34.1284
1606.18	27.2068
1606.44	38.0932
1606.7	34.1371
1606.96	30.1792
1607.22	31.1484
1607.48	34.0707
1607.74	33.0355
1608	31.9881
1608.26	37.8445
1608.52	30.1778
1608.78	33.125
1609.04	34.8505
1609.29	34.4655
1609.55	30.3348
1609.81	33.9664
1610.07	33.4788
1610.33	36.1011
1610.59	33.894
1610.85	32.2281
1611.11	29.9154
1611.37	31.9428
1611.63	36.074
1611.89	31.2865
1612.15	35.0942
1612.4	30.9798
1612.66	31.8423
1612.92	35.2539
1613.18	28.6227
1613.44	32.7064
1613.7	35.3047
1613.96	32.1768
1614.22	30.4595
1614.48	31.4212
1614.74	33.5545
1615	29.472
1615.25	34.5303
1615.51	32.6114
1615.77	30.7922
1616.03	33.3144
1616.29	30.0741
1616.55	34.0159
1616.81	33.4482
1617.07	31.896
1617.33	30.36
1617.59	29.7929
1617.84	31.408
1618.1	33.3202
1618.36	34.9769
1618.62	29.7611
1618.88	31.4164
1619.14	30.6943
1619.4	31.5401
1619.66	31.7274
1619.91	32.5916
1620.17	31.086
1620.43	29.4236
1620.69	30.2641
1620.95	29.2676
1621.21	30.2167
1621.47	31.6106
1621.73	29.8746
1621.98	31.691
1622.24	31.1738
1622.5	33.336
1622.76	30.5471
1623.02	32.1749
1623.28	31.0409
1623.54	32.5515
1623.79	28.1658
1624.05	30.3979
1624.31	29.0175
1624.57	31.0456
1624.83	31.0952
1625.09	28.4504
1625.35	30.6742
1625.6	31.9381
1625.86	29.9679
1626.12	30.6511
1626.38	31.3375
1626.64	30.6932
1626.9	27.8957
1627.16	30.3658
1627.41	30.1927
1627.67	28.236
1627.93	29.9463
1628.19	28.6287
1628.45	31.0696
1628.71	30.0298
1628.96	30.4256
1629.22	25.3001
1629.48	28.5004
1629.74	27.4533
1630	29.7135
1630.26	31.2466
1630.51	34.7646
1630.77	28.1509
1631.03	31.916
1631.29	28.1783
1631.3	28.0815
1631.56	29.0721
1631.82	30.0576
1632.08	26.1211
1632.34	26.1337
1632.6	29.0871
1632.86	27.1014
1633.13	31.0374
1633.39	25.1281
1633.65	28.089
1633.91	26.1199
1634.17	32.0349
1634.43	29.0778
1634.69	28.0912
1634.96	32.0321
1635.22	29.0732
1635.48	28.0849
1635.74	30.0523
1636	29.0634
1636.26	30.0446
1636.52	31.025
1636.79	31.0192
1637.05	27.0773
1637.31	31.9996
1637.57	28.0588
1637.83	29.0404
1638.09	26.0848
1638.35	25.1008
1638.61	29.0385
1638.87	31.007
1639.13	28.0539
1639.4	31.0067
1639.66	31.0056
1639.92	28.0525
1640.18	31.9963
1640.44	25.1087
1640.7	27.0798
1640.96	30.0324
1641.22	25.1062
1641.48	25.1044
1641.75	26.0875
1642.01	27.0709
1642.27	28.054
1642.53	27.0688
1642.79	34.9425
1643.05	29.0364
1643.31	27.0658
1643.57	26.0789
1643.83	30.9951
1644.09	26.071
1644.35	31.9729
1644.62	28.0389
1644.88	30.0116
1645.14	25.0935
1645.4	29.0312
1645.66	27.0605
1645.92	28.0412
1646.18	30.9896
1646.44	28.0362
1646.7	27.0503
1646.96	30.9811
1647.22	24.0944
1647.48	26.0601
1647.74	30.9784
1648.01	29.0161
1648.27	27.0542
1648.53	29.0338
1648.79	29.0447
1649.05	27.072
1649.31	30.0226
1649.57	27.0683
1649.83	28.0594
1650.09	26.0982
1650.35	31.0279
1650.61	29.0639
1650.87	27.0975
1651.13	28.0849
1651.39	25.129
1651.65	26.1146
1651.92	25.13
1652.18	26.114
1652.44	28.0812
1652.7	28.0794
1652.96	26.1089
1653.22	28.0806
1653.48	26.1125
1653.74	29.071
1654	21.1884
1654.26	32.0311
1654.52	29.0779
1654.78	29.0836
1655.04	25.1471
1655.3	28.1157
1655.56	28.1234
1655.82	30.1023
1656.08	24.1831
1656.34	25.1717
1656.6	29.1199
1656.86	27.1436
1657.12	30.1016
1657.38	29.1126
1657.64	28.1238
1657.9	32.0678
1658.16	23.1844
1658.42	31.0724
1658.69	28.109
1658.95	26.1326
1659.21	27.1148
1659.47	27.1091
1659.73	30.0675
1659.99	25.1416
1660.25	27.1177
1660.51	26.1364
1660.77	27.1278
1661.03	26.1472
1661.29	29.1099
1661.55	23.1942
1661.81	27.1108
1662.07	28.1463
1662.33	23.2398
1662.59	28.1699
1662.85	26.1881
1663.11	31.1359
1663.37	24.151
1663.63	30.102
1663.89	26.1625
1664.15	26.1624
1664.41	31.1148
1664.67	22.2342
1664.93	31.1031
1665.19	27.0994
1665.45	30.1509
1665.71	28.1842
1665.97	27.1878
1666.23	26.1946
1666.49	27.0455
1666.75	28.1362
1667.01	25.169
1667.27	31.085
1667.53	28.1225
1667.79	29.1038
1668.05	26.1432
1668.31	29.1133
1668.56	25.1832
1668.83	24.1991
1669.09	26.1751
1669.35	29.1395
1669.6	29.1384
1669.86	27.1596
1670.12	24.2082
1670.38	29.1628
1670.64	26.1946
1670.9	26.1922
1671.16	28.1679
1671.42	26.1916
1671.68	27.1829
1671.94	22.2415
1672.2	29.1613
1672.46	24.2185
1672.72	29.1619
1672.98	24.2202
1673.24	26.1992
1673.5	26.2019
1673.76	26.2055
1674.02	25.22
1674.28	28.1907
1674.54	28.1959
1674.8	25.2324
1675.06	21.2765
1675.32	28.2047
1675.58	27.2147
1675.83	26.2257
1676.1	25.2375
1676.35	26.2282
1676.61	26.2281
1676.87	26.2269
1677.13	25.2351
1677.39	28.2003
1677.65	22.2593
1677.91	26.2109
1678.17	26.2059
1678.43	27.1909
1678.69	27.1875
1678.95	28.1736
1679.21	26.194
1679.47	24.2147
1679.73	27.1776
1679.98	26.1868
1680.25	24.208
1680.5	26.1818
1680.76	26.1804
1681.02	26.1798
1681.28	28.1554
1681.54	27.1675
1681.8	26.1799
1682.06	24.2046
1682.32	24.2039
1682.58	28.1548
1682.84	23.215
1683.1	25.1908
1683.35	26.1781
1683.61	28.1522
1683.87	26.173
1684.13	28.1457
1684.39	23.2065
1684.65	27.1557
1684.91	26.1677
1685.17	25.1801
1685.43	22.2179
1685.69	25.1808
1685.95	24.1949
1686.2	28.151
1686.46	21.2393
1686.72	27.1678
1686.98	28.1539
1687.24	22.2242
1687.5	26.1721
1687.76	26.1697
1688.02	28.1419
1688.28	26.1637
1688.54	25.1707
1688.79	26.1534
1689.05	23.1886
1689.31	28.1171
1689.57	22.1926
1689.83	26.1339
1690.09	26.1408
1690.35	26.1445
1690.6	25.1604
1690.86	22.2017
1691.12	22.2037
1691.38	22.2062
1691.64	28.1283
1691.9	23.1925
1692.16	27.1367
1692.42	26.145
1692.68	25.1529
1692.93	25.1462
1693.19	27.1104
1693.45	24.1474
1693.71	26.1138
1693.97	25.123
1694.23	25.119
1694.49	29.0581
1694.74	22.1641
1695	29.0614
1695.26	21.1816
1695.52	22.1684
1695.78	25.1273
1696.04	26.1156
1696.3	25.1305
1696.55	24.1431
1696.81	26.1095
1697.07	28.0731
1697.33	23.1418
1697.59	26.0903
1697.85	28.0544
1698.11	22.1445
1698.36	26.0776
1698.62	26.0754
1698.88	25.0907
1699.14	25.0917
1699.4	25.0923
1699.66	28.0448
1699.92	23.1213
1700.17	23.1196
1700.43	23.1186
1700.69	26.0685
1700.95	26.0664
1701.21	25.079
1701.46	28.0241
1701.72	22.1202
1701.98	23.0988
1702.24	24.0773
1702.5	26.0407
1702.76	23.0919
1703.01	24.0732
1703.27	24.071
1703.53	24.0694
1703.79	25.0535
1704.05	26.0395
1704.3	27.0235
1704.56	22.1094
1704.82	24.0731
1705.08	23.0904
1705.34	24.0733
1705.6	24.0701
1705.85	24.0651
1706.11	22.0954
1706.37	24.0534
1706.63	24.0473
1706.89	22.0796
1707.14	27.9603
1707.4	25.0092
1707.66	26.962
1707.92	22.053
1708.18	25.9639
1708.43	26.9344
1708.69	23.9903
1708.95	23.0073
1709.21	23.0055
1709.47	22.026
1709.72	24.9633
1709.98	23.006
1710.24	24.9656
1710.5	24.9697
1710.76	23.9929
1711.01	23.9951
1711.27	21.0587
1711.53	20.0799
1711.79	23.0165
1712.04	25.9485
1712.3	20.065
1712.56	21.0349
1712.82	21.0258
1713.08	25.907
1713.33	21.9871
1713.59	21.9827
1713.85	24.9105
1714.11	22.9544
1714.36	20.9995
1714.62	23.929
1714.88	21.9782
1715.14	22.9614
1715.4	23.9388
1715.65	23.937
1715.91	21.0032
1716.17	21.9756
1716.43	21.9697
1716.68	28.7948
1716.94	25.8558
1717.2	19.0168
1717.46	27.7807
1717.71	19.0006
1717.97	23.8641
1718.23	20.937
1718.49	26.776
1718.74	20.9332
1719	22.8805
1719.26	21.9057
1719.52	21.9065
1719.78	24.8293
1720.03	22.8801
1720.29	25.7965
1720.55	25.7899
1720.81	24.8108
1721.06	25.7789
1721.32	21.8827
1721.58	24.7943
1721.83	22.8438
1722.09	26.7252
1722.35	22.8324
1722.61	22.8274
1722.86	21.8521
1723.12	24.7625
1723.38	21.8486
1723.64	25.7313
1723.89	26.7005
1724.15	24.7554
1724.41	24.7492
1724.66	21.8294
1724.92	25.7006
1725.18	21.8131
1725.44	23.7455
1725.69	22.7731
1725.95	22.774
1726.21	20.835
1726.46	27.6146
1726.72	26.6372
1726.98	25.6661
1727.24	20.8276
1727.49	23.7338
1727.75	27.6044
1728.01	25.6586
1728.27	21.7592
1728.52	20.7601
1728.78	24.6041
1729.04	27.5091
1729.29	22.6953
1729.55	27.5356
1729.81	20.7634
1730.06	21.7219
1730.32	21.7188
1730.58	25.6045
1730.83	27.5434
1731.09	26.5779
1731.35	21.7452
1731.61	24.6434
1731.86	18.8431
1732.12	24.6385
1732.38	20.7707
1732.63	21.7325
1732.89	24.623
1733.15	19.7874
1733.4	24.6026
1733.66	23.6305
1733.92	22.6589
1734.17	21.6877
1734.43	20.717
1734.69	22.6369
1734.95	23.5931
1735.2	24.5508
1735.46	23.584
1735.72	27.4319
1735.97	25.5045
1736.23	24.5388
1736.49	23.5733
1736.74	23.5699
1737	20.6809
1737.26	25.4873
1737.51	23.5599
1737.77	23.5549
1738.03	24.5111
1738.28	23.545
1738.54	24.5003
1738.8	25.454
1739.05	23.5245
1739.31	24.4737
1739.57	24.4629
1739.82	24.4534
1740.08	22.5281
1740.34	22.5223
1740.59	23.4755
1740.85	29.218
1741.1	21.5498
1741.36	22.5036
1741.62	21.5435
1741.88	22.4996
1742.13	23.4555
1742.39	23.453
1742.64	26.3228
1742.9	22.4934
1743.16	21.5347
1743.41	26.3151
1743.67	22.4831
1743.93	21.5233
1744.18	22.4777
1744.44	24.3907
1744.69	20.565
1744.95	22.4782
1745.21	22.4773
1745.46	26.3003
1745.72	21.5144
1745.98	24.3769
1746.23	24.3697
1746.49	21.4972
1746.74	23.4019
1747	22.441
1747.26	20.5266
1747.51	25.2964
1747.77	22.432
1748.03	21.4776
1748.28	22.4331
1748.54	24.3439
1748.8	25.3013
1749.05	24.3504
1749.31	21.4899
1749.56	24.3607
1749.82	22.4554
1750.08	23.4162
1750.33	22.463
1750.59	22.4653
1750.84	22.4665
1751.1	20.5524
1751.36	20.5471
1751.61	20.5408
1751.87	22.446
1752.12	22.4412
1752.38	21.4815
1752.64	22.4312
1752.89	23.3811
1753.15	23.3771
1753.4	25.2813
1753.66	25.276
1753.92	18.5952
1754.17	24.3127
1754.43	27.1692
1754.68	25.2596
1754.94	21.4442
1755.2	25.2525
1755.45	18.5782
1755.71	22.3837
1755.96	22.3778
1756.22	22.3707
1756.47	23.3152
1756.73	20.4542
1756.99	20.4511
1757.24	22.3508
1757.5	20.4492
1757.75	19.5034
1758.01	25.215
1758.27	28.0706
1758.52	28.071
1758.78	25.2167
1759.03	22.3632
1759.29	23.3148
1759.54	22.3617
1759.8	25.2143
1760.05	22.3578
1760.31	24.258
1760.57	25.2055
1760.82	26.1514
1761.08	24.2449
1761.33	23.2911
1761.59	25.1905
1761.84	23.2874
1762.1	20.4397
1762.36	25.1964
1762.61	17.5907
1762.87	22.3437
1763.12	22.3443
1763.38	23.2968
1763.63	21.3972
1763.89	22.3517
1764.14	26.1675
1764.4	24.2685
1764.66	23.3202
1764.91	23.3226
1765.17	23.3244
1765.42	23.3255
1765.68	21.4216
1765.93	25.2293
1766.19	22.3716
1766.44	23.3216
1766.7	21.4178
1766.95	22.368
1767.21	23.317
1767.46	18.5553
1767.72	22.3593
1767.98	24.2592
1768.23	24.259
1768.48	22.3484
1768.74	19.484
1769	23.2742
1769.25	21.3647
1769.51	22.3147
1769.76	21.3689
1770.02	22.3261
1770.27	25.1767
1770.53	21.3778
1770.78	23.2831
1771.04	23.2924
1771.29	21.3949
1771.55	23.2976
1771.8	22.3501
1772.06	19.501
1772.31	23.31
1772.57	18.5554
1772.82	23.316
1773.08	20.4633
1773.33	28.0803
1773.59	22.3711
1773.84	22.3725
1774.1	22.3737
1774.35	26.1853
1774.61	22.3788
1774.86	27.1446
1775.12	21.4388
1775.37	23.3519
1775.63	23.3555
1775.88	26.2168
1776.14	24.3094
1776.39	25.26
1776.65	23.3497
1776.9	20.4881
1777.16	24.2959
1777.41	22.3864
1777.67	21.4299
1777.92	20.4737
1778.18	27.134
1778.43	21.4162
1778.69	22.3618
1778.94	20.4549
1779.2	22.3568
1779.45	24.2654
1779.71	22.3648
1779.96	20.463
1780.21	23.3204
1780.47	22.3709
1780.73	23.3238
1780.98	18.5646
1781.23	22.3747
1781.49	20.4733
1781.74	25.2386
1782	19.5288
1782.25	23.3433
1782.51	23.3463
1782.76	22.396
1783.02	19.5395
1783.27	24.3086
1783.53	20.4986
1783.78	17.6414
1784.04	25.2768
1784.29	24.3273
1784.54	21.4674
1784.8	24.3302
1785.05	21.4669
1785.31	22.4189
1785.56	24.324
1785.82	20.5086
1786.07	21.4641
1786.33	21.4675
1786.58	26.2437
1786.84	19.5688
1787.09	22.4402
1787.34	21.4982
1787.6	24.3805
1787.85	19.6134
1788.11	24.4091
1788.36	22.4986
1788.62	22.5033
1788.87	23.4704
1789.12	26.3519
1789.38	22.522
1789.63	24.4419
1789.89	22.5285
1790.14	17.7358
1790.4	25.404
1790.65	22.5261
1790.91	20.5937
1791.16	20.5922
1791.41	21.5475
1791.67	23.463
1791.92	23.4643
1792.18	19.6341
1792.43	20.5948
1792.68	24.4287
1792.94	21.556
1793.19	21.5553
1793.45	22.5171
1793.7	20.6014
1793.96	22.5187
1794.21	19.6405
1794.46	28.267
1794.72	21.5775
1794.97	24.4686
1795.23	23.5162
1795.48	23.52
1795.73	24.4846
1795.99	21.6083
1796.24	22.5732
1796.49	23.5388
1796.75	24.5044
1797	21.6253
1797.26	22.5897
1797.51	20.6697
1797.76	24.5177
1798.02	24.5195
1798.27	21.6354
1798.53	22.596
1798.78	23.5553
1799.04	22.5905
1799.29	23.5474
1799.54	23.5429
1799.8	23.5395
1800.05	23.5367
1800.3	21.6133
1800.56	23.5331
1800.81	22.5718
1801.07	21.6112
1801.32	23.5331
1801.57	22.5741
1801.83	22.5763
1802.08	22.5792
1802.33	23.544
1802.59	22.5876
1802.84	23.554
1803.1	21.6354
1803.35	22.5995
1803.6	21.6392
1803.86	19.7179
1804.11	23.5698
1804.36	19.7256
1804.62	25.5045
1804.87	23.5857
1805.13	23.5917
1805.38	20.7077
1805.63	22.6383
1805.89	23.6056
1806.14	23.609
1806.39	22.6477
1806.65	22.6488
1806.9	20.7216
1807.15	22.6494
1807.41	18.7944
1807.66	18.7949
1807.91	21.687
1808.17	23.6155
1808.42	24.5804
1808.67	23.6175
1808.93	24.5825
1809.18	26.5118
1809.43	21.6925
1809.69	21.6934
1809.94	19.7654
1810.2	25.5496
1810.45	23.6202
1810.7	21.6916
1810.95	21.6913
1811.21	21.691
1811.46	23.6193
1811.71	21.6921
1811.97	22.6587
1812.22	23.6262
1812.47	23.6305
1812.73	23.6346
1812.98	23.6359
1813.23	24.6039
1813.49	20.7489
1813.74	21.7201
1813.99	26.5538
1814.25	25.5977
1814.5	20.7722
1814.75	22.7085
1815.01	23.6771
1815.26	19.8127
1815.51	23.6797
1815.77	22.7146
1816.02	20.7825
1816.27	22.7185
1816.53	20.7835
1816.78	25.6152
1817.03	22.705
1817.29	22.6954
1817.54	21.7303
1817.79	17.8701
1818.04	22.7059
1818.3	20.7784
1818.55	20.7768
1818.8	19.8118
1819.06	21.7473
1819.31	21.7502
1819.56	22.719
1819.81	23.6885
1820.07	24.6589
1820.32	23.6949
1820.57	23.697
1820.83	24.6676
1821.08	21.7691
1821.33	20.8048
1821.58	23.7109
1821.84	20.8096
1822.09	26.619
1822.34	22.7485
1822.6	21.7817
1822.85	21.7818
1823.1	20.8121
1823.35	21.778
1823.61	23.7126
1823.86	23.7145
1824.11	22.7487
1824.37	25.6552
1824.62	22.7531
1824.87	22.7557
1825.12	23.7261
1825.38	22.7584
1825.63	25.6638
1825.88	25.6641
1826.14	22.7596
1826.39	20.8231
1826.64	21.7929
1826.89	23.7324
1827.15	23.7351
1827.4	21.7999
1827.65	22.7696
1827.9	22.7687
1828.16	18.8917
1828.41	24.701
1828.66	24.6985
1828.91	24.6974
1829.17	21.7912
1829.42	17.9162
1829.67	22.7562
1829.92	26.6264
1830.18	23.7193
1830.43	24.6869
1830.68	23.7213
1830.93	21.7879
1831.19	21.791
1831.44	19.8567
1831.69	23.7343
1831.94	23.7377
1832.2	23.7423
1832.45	25.6847
1832.7	25.6859
1832.95	22.7784
1833.2	21.811
1833.46	22.7819
1833.71	23.7528
1833.96	26.6566
1834.21	26.6434
1834.47	23.7246
1834.72	18.8741
1834.97	20.8031
1835.22	22.7322
1835.47	24.6651
1835.73	22.7269
1835.98	21.828
1836.23	18.9377
1836.48	19.8804
1836.74	26.6517
1836.99	24.698
1837.24	21.7779
1837.49	22.7248
1837.75	18.8431
1838	23.67
1838.25	25.6366
1838.5	23.7257
1838.75	19.8599
1839.01	21.8015
1839.26	22.7736
1839.51	22.7789
1839.76	20.8259
1840.01	17.9059
1840.26	21.7643
1840.52	22.7198
1840.77	20.7762
1841.02	20.7669
1841.27	23.6549
1841.53	22.6809
1841.78	21.7084
1842.03	24.5947
1842.28	21.7031
1842.53	21.7022
1842.79	19.7746
1843.04	23.6334
1843.29	23.6334
1843.54	18.8086
1843.79	20.7373
1844.04	22.6687
1844.3	22.6697
1844.55	21.7022
1844.8	19.7732
1845.05	24.5964
1845.3	26.5348
1845.56	22.6853
1845.81	21.7287
1846.06	22.7096
1846.31	21.7356
1846.56	20.7427
1846.81	26.4865
1847.06	23.5846
1847.32	19.7332
1847.57	23.5941
1847.82	15.8982
1848.07	21.6705
1848.32	18.7753
1848.58	23.5897
1848.83	23.5859
1849.08	18.7673
1849.33	19.7235
1849.58	20.6798
1849.83	23.5562
1850.08	21.6269
1850.34	21.6211
1850.59	23.5378
1850.84	24.4938
1851.09	18.7277
1851.34	24.4874
1851.59	24.4861
1851.85	23.5256
1852.1	20.645
1852.35	21.6053
1852.6	25.4457
1852.85	20.6434
1853.1	19.6814
1853.36	25.4373
1853.61	21.5919
1853.86	23.5037
1854.11	23.4965
1854.36	22.5335
1854.61	18.6956
1854.86	22.5246
1855.11	20.6006
1855.37	21.5541
1855.62	22.51
1855.87	23.4664
1856.12	20.5929
1856.37	26.3399
1856.62	26.3389
1856.87	23.4638
1857.13	23.461
1857.38	23.4583
1857.63	22.4975
1857.88	25.3646
1858.13	22.4881
1858.38	23.4396
1858.63	21.521
1858.88	25.3405
1859.14	27.2475
1859.39	20.5542
1859.64	26.2908
1859.89	22.4675
1860.14	24.384
1860.39	25.3452
1860.64	23.4357
1860.89	28.2238
1861.14	21.5304
1861.39	22.4891
1861.64	23.4453
1861.9	20.5717
1862.15	20.5674
1862.4	23.4318
1862.65	24.3824
1862.9	19.597
1863.15	23.4157
1863.4	22.4556
1863.65	21.4961
1863.9	24.358
1864.16	19.5784
1864.41	22.4391
1864.66	26.252
1864.91	20.5183
1865.16	24.3277
1865.41	24.3186
1865.66	21.4487
1865.91	24.2981
1866.16	23.3354
1866.41	24.2777
1866.66	24.2677
1866.92	25.2097
1867.17	22.3488
1867.42	22.3445
1867.67	23.2926
1867.92	20.4389
1868.17	24.2416
1868.42	18.5387
1868.67	26.1445
1868.92	25.1927
1869.17	21.3887
1869.42	20.4369
1869.67	21.3864
1869.92	24.2368
1870.17	21.3845
1870.42	25.1856
1870.68	22.3341
1870.93	19.4818
1871.18	21.3802
1871.43	21.3768
1871.68	25.1737
1871.93	24.2214
1872.18	15.6701
1872.43	19.465
1872.68	21.3608
1872.93	21.3595
1873.18	21.3581
1873.43	25.1518
1873.68	23.2494
1873.93	23.2444
1874.18	22.2902
1874.43	24.181
1874.68	23.2265
1874.93	20.3767
1875.18	20.3698
1875.44	25.0938
1875.69	23.1904
1875.94	24.1296
1876.19	22.2314
1876.44	22.2279
1876.69	19.382
1876.94	24.0948
1877.19	20.294
1877.44	22.1914
1877.69	22.2623
1877.94	18.4658
1878.19	20.3439
1878.44	22.2333
1878.69	21.3034
1878.94	22.2632
1879.19	23.2064
1879.44	22.2521
1879.69	22.25
1879.94	22.2488
1880.19	22.2527
1880.44	22.2496
1880.69	19.4075
1880.94	20.3472
1881.19	23.175
1881.44	24.1088
1881.69	22.2062
1881.94	25.0266
1882.19	22.1784
1882.44	23.1139
1882.69	24.0416
1882.94	26.0675
1883.19	22.2215
1883.44	22.1552
1883.69	22.1471
1883.94	19.33
1884.19	23.0938
1884.44	21.2134
1884.69	23.1106
1884.94	23.1154
1885.19	23.1185
1885.44	21.2406
1885.69	22.1909
1885.94	20.3058
1886.19	19.3603
1886.44	22.1852
1886.69	17.4605
1886.94	20.2873
1887.19	20.2824
1887.44	19.3341
1887.69	20.2717
1887.94	22.1489
1888.19	23.0832
1888.44	22.1341
1888.69	24.0099
1888.94	22.1224
1889.19	20.2392
1889.44	24.003
1889.69	19.2979
1889.94	23.0684
1890.19	24.0164
1890.44	24.9604
1890.69	21.1925
1890.94	23.0737
1891.19	23.0736
1891.44	24.9556
1891.69	23.0707
1891.94	24.0121
1892.19	24.9504
1892.44	22.1216
1892.69	22.1147
1892.94	21.1618
1893.19	24.9109
1893.43	24.9048
1893.69	21.1519
1893.93	21.1436
1894.18	23.9581
1894.43	22.0769
1894.68	22.0774
1894.93	21.1395
1895.18	22.0813
1895.43	24.9032
1895.68	25.8463
1895.93	21.1504
1896.18	23.9752
1896.43	24.92
1896.68	21.1615
1896.93	21.1637
1897.18	23.9869
1897.43	17.4024
1897.68	20.2234
1897.93	23.0429
1898.17	19.2776
1898.42	21.1538
1898.67	23.0281
1898.92	23.0233
1899.17	25.8398
1899.42	21.1392
1899.67	22.0756
1899.92	20.196
1900.17	23.9539
1900.42	21.1378
1900.67	23.0204
1900.92	21.1458
1901.17	21.1499
1901.42	21.1544
1901.67	20.2187
1901.91	23.9865
1902.16	22.1062
1902.41	23.0449
1902.66	23.9833
1902.91	23.9804
1903.16	19.2766
1903.41	20.2156
1903.66	20.2146
1903.91	21.1542
1904.16	22.0938
1904.41	23.0328
1904.66	22.0917
1904.9	20.2114
1905.15	22.0906
1905.4	21.146
1905.65	23.9559
1905.9	21.1346
1906.15	24.889
1906.4	22.069
1906.65	27.7016
1906.9	20.1892
1907.15	19.2515
1907.39	23.0102
1907.64	24.8939
1907.89	20.199
1908.14	19.2606
1908.39	23.9606
1908.64	21.145
1908.89	18.3294
1909.14	23.0349
1909.39	22.1013
1909.63	22.1087
1909.88	23.0576
1910.13	23.0652
1910.38	25.8958
1910.63	25.9003
1910.88	20.2516
1911.13	21.1947
1911.38	22.1367
1911.62	23.0775
1911.87	20.2501
1912.12	21.1915
1912.37	22.1333
1912.62	22.1335
1912.87	21.1923
1913.12	22.137
1913.37	20.2586
1913.61	18.3801
1913.86	25.9273
1914.11	22.1606
1914.36	22.1656
1914.61	18.3965
1914.86	21.2302
1915.11	21.2318
1915.36	22.1753
1915.6	24.0608
1915.85	21.2288
1916.1	23.1134
1916.35	20.2788
1916.6	23.1043
1916.85	22.158
1917.1	24.0411
1917.34	21.2114
1917.59	23.0971
1917.84	23.1001
1918.09	22.162
1918.34	21.2247
1918.59	20.2875
1918.84	24.0697
1919.08	16.525
1919.33	21.2547
1919.58	24.0939
1919.83	25.0406
1920.08	20.3143
1920.32	25.0387
1920.57	24.0999
1920.82	25.0518
1921.07	24.1109
1921.32	20.3316
1921.57	26.0084
1921.82	20.3342
1922.06	23.17
1922.31	20.3301
1922.56	22.2179
1922.81	23.1611
1923.06	22.214
1923.3	24.1024
1923.55	23.1543
1923.8	22.2054
1924.05	24.0919
1924.3	23.1461
1924.55	20.3125
1924.79	21.2598
1925.04	18.4289
1925.29	25.9972
1925.54	22.2223
1925.79	23.1741
1926.03	21.2882
1926.28	24.1342
1926.53	17.5133
1926.78	23.197
1927.03	25.0943
1927.27	18.4681
1927.52	20.3647
1927.77	21.3144
1928.02	22.2635
1928.27	23.2137
1928.52	22.2693
1928.76	23.2206
1929.01	23.2256
1929.26	24.1809
1929.51	25.1361
1929.75	21.3483
1930	21.3539
1930.25	22.3089
1930.5	21.3621
1930.75	23.2617
1930.99	21.3617
1931.24	21.3591
1931.49	25.153
1931.74	18.5063
1931.99	22.2994
1932.23	21.3473
1932.48	20.3973
1932.73	22.2923
1932.98	23.2415
1933.22	21.3497
1933.47	21.3596
1933.72	21.3732
1933.97	18.5393
1934.22	21.4102
1934.46	20.4742
1934.71	23.3461
1934.96	22.4048
1935.21	20.5055
1935.45	25.262
1935.7	22.3971
1935.95	21.443
1936.2	24.2993
1936.45	26.2001
1936.69	23.3365
1936.94	25.2361
1937.19	22.3746
1937.44	21.4185
1937.68	24.2695
1937.93	21.4135
1938.18	21.4198
1938.43	24.2799
1938.67	24.2834
1938.92	22.3827
1939.17	24.291
1939.42	23.3422
1939.66	23.3438
1939.91	26.2077
1940.16	21.4481
1940.41	23.3685
1940.65	22.4247
1940.9	22.4261
1941.15	19.5611
1941.4	25.2783
1941.64	23.3575
1941.89	23.3621
1942.14	24.3384
1942.39	21.4833
1942.63	19.5749
1942.88	17.6594
1943.13	20.5139
1943.37	25.2755
1943.62	26.2417
1943.87	24.3407
1944.12	24.3458
1944.36	22.4415
1944.61	24.3575
1944.86	20.5419
1945.1	25.3254
1945.35	26.2871
1945.6	22.468
1945.85	21.5154
1946.09	20.5617
1946.34	23.4325
1946.59	21.5195
1946.83	24.387
1947.08	22.4721
1947.33	23.4276
1947.58	25.3399
1947.82	22.4712
1948.07	22.4697
1948.32	23.4266
1948.57	23.4304
1948.81	25.3483
1949.06	18.6566
1949.31	22.4892
1949.55	24.4097
1949.8	20.589
1950.05	21.5565
1950.3	23.4815
1950.54	22.5318
1950.79	24.4596
1951.04	23.5096
1951.28	23.5171
1951.53	21.6021
1951.78	23.5261
1952.02	23.53
1952.27	21.6092
1952.52	22.573
1952.76	22.5786
1953.01	19.6925
1953.26	22.5661
1953.5	23.5123
1953.75	19.6623
1954	24.445
1954.25	21.5591
1954.49	20.597
1954.74	19.6381
1954.98	22.5142
1955.23	24.4365
1955.48	25.4053
1955.72	21.585
1955.97	20.6329
1956.22	21.5996
1956.47	24.4845
1956.71	23.5297
1956.96	24.4955
1957.21	23.5396
1957.45	24.5042
1957.7	27.3901
1957.95	18.7422
1958.19	21.6269
1958.44	24.5091
1958.69	19.6999
1958.93	20.6586
1959.18	17.7753
1959.43	24.4978
1959.67	23.5335
1959.92	17.7675
1960.17	19.6851
1960.41	23.5218
1960.66	20.638
1960.9	23.5141
1961.15	21.5922
1961.4	22.5523
1961.64	23.5134
1961.89	21.5949
1962.14	25.4352
1962.38	21.5969
1962.63	26.3974
1962.88	22.5587
1963.12	21.5996
1963.37	26.4009
1963.62	18.7229
1963.86	22.5662
1964.11	21.606
1964.36	24.485
1964.6	25.4456
1964.85	22.5643
1965.09	21.6045
1965.34	23.527
1965.59	22.5709
1965.83	22.5761
1966.08	24.5031
1966.33	21.6241
1966.57	23.5496
1966.82	24.5105
1967.06	22.5881
1967.31	25.474
1967.56	20.6686
1967.8	21.6309
1968.05	22.5923
1968.3	25.4744
1968.54	21.6258
1968.79	22.5816
1969.03	22.5748
1969.28	21.6073
1969.53	23.5217
1969.77	22.5569
1970.02	22.5535
1970.26	21.5903
1970.51	25.4246
1970.76	23.503
1971	21.5823
1971.25	23.4989
1971.49	24.4592
1971.74	22.5433
1971.99	27.3414
1972.23	23.5041
1972.48	20.6246
1972.72	22.5397
1972.97	23.4939
1973.22	21.5719
1973.46	20.6104
1973.71	20.6085
1973.95	23.4831
1974.2	22.5247
1974.45	23.484
1974.69	24.4445
1974.94	24.4476
1975.18	20.6159
1975.43	21.5778
1975.68	22.5394
1975.92	24.4595
1976.17	21.5828
1976.41	20.6239
1976.66	23.5012
1976.9	23.4998
1977.15	22.5383
1977.4	21.5761
1977.64	20.6139
1977.89	21.5697
1978.13	23.4844
1978.38	21.5658
1978.63	20.6072
1978.87	23.4834
1979.12	22.5252
1979.36	21.5675
1979.61	21.5681
1979.85	21.5665
1980.1	21.5629
1980.34	22.5174
1980.59	22.5152
1980.84	20.5965
1981.08	25.3834
1981.33	23.466
1981.57	21.5496
1981.82	24.4221
1982.06	26.3341
1982.31	24.4147
1982.55	25.3667
1982.8	21.5316
1983.05	20.5699
1983.29	19.6109
1983.54	21.5227
1983.78	21.5208
1984.03	24.3878
1984.27	22.4731
1984.52	22.4698
1984.76	21.5084
1985.01	21.505
1985.25	22.4607
1985.5	22.462
1985.75	20.553
1985.99	22.4687
1986.24	22.4711
1986.48	23.4269
1986.73	26.2968
1986.97	20.5571
1987.22	18.6395
1987.46	20.5446
1987.71	24.3578
1987.95	22.4379
1988.2	22.4232
1988.44	19.5468
1988.69	23.3468
1988.93	20.4807
1989.18	24.2616
1989.42	22.3025
1989.67	21.4201
1989.91	25.9818
1990.16	21.4016
1990.41	22.5118
1990.65	22.5198
1990.89	22.4133
1991.14	25.1037
1991.39	20.2217
1991.63	19.7779
1991.88	19.8064
1992.12	19.9516
1992.37	21.6023
1992.61	23.3566
1992.86	25.7208
1993.1	22.132
1993.35	19.9013
1993.59	24.8309
1993.84	23.1214
1994.08	23.4981
1994.33	26.321
1994.57	22.0838
1994.82	19.4734
1995.06	23.0015
1995.31	20.3373
1995.55	27.2882
1995.8	23.9253
1996.04	20.0504
1996.29	22.2602
1996.53	22.5873
1996.78	21.7356
1997.02	22.8052
1997.26	20.9085
1997.51	20.668
1997.76	20.1699
1998	21.2266
1998.24	21.7336
1998.49	23.8844
1998.73	23.391
1998.98	21.831
1999.22	22.6137
1999.47	23.1233
1999.71	21.4653
1999.96	20.9837
2000.2	22.9725
2000.45	20.8626
2000.69	23.3807
2000.94	22.8125
2001.18	23.4894
2001.43	23.2338
2001.67	21.4739
2001.92	21.7835
2002.16	20.9833
2002.4	21.3982
2002.65	21.8009
2002.89	23.1908
2003.14	22.9354
2003.38	22.7321
2003.63	21.132
2003.87	20.3294
2004.12	21.514
2004.36	22.7947
2004.6	22.5929
2004.85	23.4135
2005.1	22.5014
2005.34	22.244
2005.58	21.7779
2005.83	22.4926
2006.07	21.9581
2006.32	23.893
2006.56	21.9678
2006.81	22.5229
2007.05	20.9371
2007.3	21.3993
2007.54	19.9415
2007.78	20.8276
2008.03	22.5968
2008.27	20.7766
2008.52	20.4377
2008.76	20.5775
2009	22.1709
2009.25	22.6997
2009.49	21.4166
2009.74	20.5944
2009.98	22.415
2010.23	22.301
2010.47	22.2071
2010.72	22.2449
2010.96	24.2379
2011.2	16.9073
2011.45	20.5195
2011.69	22.2174
2011.94	23.044
2012.18	22.0636
2012.42	19.2986
2012.67	18.3518
2012.92	22.104
2013.16	20.2172
2013.41	23.03
2013.66	22.0804
2013.91	21.13
2014.15	21.1185
2014.4	21.115
2014.65	19.2387
2014.9	21.1182
2015.14	22.9997
2015.39	23.9417
2015.64	22.0633
2015.88	20.1858
2016.13	20.2037
2016.38	21.1477
2016.63	20.2069
2016.87	19.2644
2017.12	23.9577
2017.37	20.1936
2017.61	21.125
2017.86	22.0546
2018.11	19.2318
2018.35	19.2249
2018.6	22.9668
2018.85	24.8322
2019.1	20.1422
2019.34	16.3927
2019.59	22.0108
2019.84	21.0738
2020.08	22.9461
2020.33	20.1355
2020.58	21.0728
2020.82	20.1378
2021.07	22.9481
2021.32	22.9472
2021.57	23.8818
2021.81	21.0694
2022.06	21.0656
2022.31	21.9966
2022.55	21.0547
2022.8	21.9854
2023.05	21.9807
2023.29	21.9758
2023.54	21.971
2023.79	23.8361
2024.03	21.0256
2024.28	20.084
2024.53	21.011
2024.77	19.1372
2025.02	20.0647
2025.27	20.0591
2025.51	21.9177
2025.76	23.7833
2026.01	22.8583
2026.25	19.1378
2026.5	19.1524
2026.75	19.1689
2026.99	19.1804
2027.24	21.9869
2027.49	21.0396
2027.73	21.0209
2027.98	20.0377
2028.23	21.9397
2028.47	19.2094
2028.72	21.9927
2028.97	19.1977
2029.21	21.975
2029.46	21.9492
2029.71	23.7876
2029.95	19.1222
2030.2	22.832
2030.45	24.7115
2030.69	22.8628
2030.94	18.1944
2031.19	20.0607
2031.43	18.1943
2031.68	20.0661
2031.92	21.0064
2032.17	21.9483
2032.42	21.956
2032.66	24.7658
2032.91	18.2275
2033.16	21.0377
2033.4	21.9794
2033.65	20.098
2033.89	22.8898
2034.14	20.9971
2034.39	22.8534
2034.64	22.8642
2034.88	19.1373
2035.13	20.0814
2035.37	22.9011
2035.62	22.9141
2035.87	21.0465
2036.11	18.2292
2036.36	22.9016
2036.6	20.1037
2036.85	21.9738
2037.1	26.6481
2037.34	21.036
2037.59	19.1639
2037.84	21.0306
2038.08	21.0273
2038.33	25.6959
2038.57	21.9548
2038.82	21.017
2039.07	20.0794
2039.31	21.0091
2039.56	20.0696
2039.8	19.1308
2040.05	23.7906
2040.3	21.9192
2040.54	20.0494
2040.79	19.1135
2041.03	21.9083
2041.28	19.1105
2041.53	23.7687
2041.77	20.9696
2042.02	18.1704
2042.26	20.9632
2042.51	21.895
2042.76	21.8964
2043	22.8337
2043.25	21.9103
2043.49	22.8525
2043.74	21.9245
2043.99	20.9911
2044.23	22.8523
2044.48	21.9103
2044.72	20.0294
2044.97	20.0446
2045.22	20.9902
2045.46	20.0802
2045.71	20.1141
2045.95	21.042
2046.2	21.0198
2046.44	20.0699
2046.69	21.9347
2046.94	22.8632
2047.18	22.8467
2047.43	21.9068
2047.67	18.1782
2047.92	19.1115
2048.16	22.8421
2048.41	20.9795
2048.66	20.0522
2048.9	20.9893
2049.15	24.7277
2049.39	21.9363
2049.64	22.8766
2049.88	23.8171
2050.13	21.0191
2050.37	21.0206
2050.62	20.0855
2050.87	23.8181
2051.11	21.0101
2051.36	19.1414
2051.6	21.943
2051.85	21.0122
2052.09	22.8814
2052.34	21.9499
2052.58	21.9535
2052.83	21.9578
2053.08	21.0287
2053.32	20.1035
2053.57	21.9787
2053.81	20.1113
2054.06	21.0478
2054.3	22.9184
2054.55	21.0465
2054.79	20.1102
2055.04	23.8459
2055.29	20.1027
2055.53	22.9068
2055.78	17.2954
2056.02	21.9674
2056.27	24.7699
2056.51	24.7696
2056.76	22.9013
2057	22.903
2057.25	24.7757
2057.49	21.9745
2057.74	22.9127
2057.98	20.1123
2058.23	22.9241
2058.47	18.2497
2058.72	22.9333
2058.96	22.935
2059.21	22.9362
2059.45	19.1927
2059.7	22.9347
2059.95	20.1237
2060.19	21.9921
2060.44	20.1228
2060.68	21.062
2060.93	21.0646
2061.17	21.0657
2061.42	22.0025
2061.66	20.1307
2061.91	19.1957
2062.15	22.0072
2062.4	22.0103
2062.64	19.204
2062.89	19.2075
2063.13	22.0215
2063.38	22.0242
2063.62	22.0262
2063.87	20.1534
2064.11	23.9055
2064.36	21.0964
2064.6	19.2252
2064.85	23.9219
2065.09	19.2369
2065.34	22.0578
2065.58	26.7567
2065.83	21.127
2066.07	21.1284
2066.32	23.9474
2066.56	22.0723
2066.81	20.1956
2067.05	21.1376
2067.29	23.0204
2067.54	23.024
2067.78	23.9665
2068.03	25.8482
2068.27	20.2112
2068.52	22.0927
2068.76	23.0299
2069.01	23.9637
2069.25	22.0751
2069.5	21.1306
2069.74	22.0712
2069.99	24.8979
2070.23	21.1507
2070.48	21.1619
2070.72	22.1038
2070.97	23.0377
2071.21	22.1163
2071.46	24.0143
2071.7	22.1302
2071.94	20.2452
2072.19	24.0109
2072.43	21.1845
2072.68	20.2426
2072.92	23.0663
2073.17	21.184
2073.41	23.068
2073.66	22.1277
2073.9	20.2467
2074.15	24.9598
2074.39	21.1978
2074.64	22.1475
2074.88	22.1572
2075.13	23.1124
2075.37	22.1778
2075.61	21.2388
2075.86	20.296
2076.1	21.241
2076.35	24.0712
2076.59	19.3477
2076.84	19.3434
2077.08	23.1075
2077.32	20.2746
2077.57	20.2764
2077.81	22.1675
2078.06	21.2265
2078.3	24.0589
2078.55	22.175
2078.79	24.0672
2079.03	22.1907
2079.28	23.1403
2079.52	21.2551
2079.77	18.4243
2080.01	22.207
2080.26	24.098
2080.5	24.0955
2080.74	23.1489
2080.99	21.2584
2081.23	25.0378
2081.48	20.3125
2081.72	18.4245
2081.97	20.3159
2082.21	19.3723
2082.45	24.098
2082.7	23.1528
2082.94	22.207
2083.19	20.3161
2083.43	20.3161
2083.67	22.2065
2083.92	19.3714
2084.16	22.2066
2084.41	22.2074
2084.65	17.4828
2084.89	18.4277
2085.14	25.0432
2085.38	22.2088
2085.63	23.1596
2085.87	18.4392
2086.12	23.1737
2086.36	22.2302
2086.6	18.4485
2086.85	21.2903
2087.09	21.2931
2087.34	23.1861
2087.58	21.2938
2087.82	20.3479
2088.07	20.3489
2088.31	21.2966
2088.56	20.3512
2088.8	22.2474
2089.04	19.4108
2089.29	21.3099
2089.53	20.3657
2089.77	21.3141
2090.02	22.263
2090.26	21.3177
2090.51	19.425
2090.75	19.4273
2090.99	21.325
2091.24	18.4861
2091.48	22.2848
2091.72	18.4976
2091.97	21.3505
2092.21	21.358
2092.45	20.4147
2092.7	19.4703
2092.94	22.3255
2093.19	20.4306
2093.43	19.4847
2093.67	19.4885
2093.92	22.3424
2094.16	23.2934
2094.41	23.2926
2094.65	21.3897
2094.89	23.2875
2095.14	19.482
2095.38	25.1803
2095.62	21.3769
2095.87	21.3753
2096.11	22.3244
2096.35	20.4237
2096.6	22.321
2096.84	23.2664
2097.08	22.3121
2097.33	24.2087
2097.57	23.2581
2097.81	20.4094
2098.06	22.3045
2098.3	21.3554
2098.55	20.4059
2098.79	22.3029
2099.03	22.3019
2099.28	21.3524
2099.52	20.4036
2099.76	22.3023
2100	25.1508
2100.25	21.356
2100.49	20.4122
2100.74	23.2654
2100.98	20.4195
2101.22	23.2705
2101.47	21.3711
2101.71	21.3705
2101.95	22.3207
2102.2	24.2194
2102.44	21.3669
2102.68	22.3117
2102.92	19.4608
2103.17	24.207
2103.41	23.2561
2103.65	22.3072
2103.9	24.2075
2104.14	23.2619
2104.39	22.316
2104.63	24.2186
2104.87	20.4231
2105.11	22.3281
2105.36	22.333
2105.6	24.2364
2105.84	21.3875
2106.09	20.4383
2106.33	20.4391
2106.57	17.5887
2106.82	20.4423
2107.06	22.3418
2107.3	18.5356
2107.54	24.2329
2107.79	20.4259
2108.03	23.2698
2108.27	21.3652
2108.52	24.2115
2108.76	24.2121
2109	22.3179
2109.25	24.2239
2109.49	22.3244
2109.73	22.3245
2109.97	18.5247
2110.22	22.3246
2110.46	18.5248
2110.7	23.2746
2110.95	17.5738
2111.19	20.421
2111.43	23.2677
2111.68	22.3167
2111.92	24.2156
2112.16	19.4691
2112.4	23.2707
2112.65	23.2734
2112.89	21.3783
2113.13	22.3338
2113.38	22.3363
2113.62	20.4348
2113.86	19.4825
2114.1	22.333
2114.35	19.4827
2114.59	17.5826
2114.83	21.3835
2115.07	20.4314
2115.32	23.2804
2115.56	20.4281
2115.8	22.3245
2116.04	21.3702
2116.29	22.3176
2116.53	19.4675
2116.77	22.3155
2117.02	23.2657
2117.26	22.3146
2117.5	23.2606
2117.74	23.2568
2117.99	22.302
2118.23	20.398
2118.47	24.1871
2118.71	19.4404
2118.96	20.3844
2119.2	20.3802
2119.44	24.1674
2119.68	22.2685
2119.93	23.2146
2120.17	19.4248
2120.41	24.1662
2120.65	24.1689
2120.9	20.3819
2121.14	22.2834
2121.38	21.3402
2121.62	23.2421
2121.86	22.2978
2122.11	22.3014
2122.35	24.2029
2122.59	21.3581
2122.84	19.4614
2123.08	21.3613
2123.32	24.208
2123.56	19.4593
2123.81	21.3544
2124.05	20.4004
2124.29	23.2381
2124.53	21.331
2124.77	21.3212
2125.02	18.4718
2125.26	23.2009
2125.5	17.5138
2125.74	19.402
2125.98	24.129
2126.23	23.1779
2126.47	21.2813
2126.71	21.2764
2126.95	24.111
2127.2	22.2187
2127.44	22.2177
2127.68	25.0513
2127.92	23.1588
2128.16	22.2136
2128.41	22.2139
2128.65	19.3776
2128.89	25.0471
2129.13	24.1002
2129.38	24.0991
2129.62	22.208
2129.86	23.1517
2130.1	22.2052
2130.34	21.2583
2130.58	22.2005
2130.83	18.419
2131.07	25.9715
2131.31	21.2463
2131.55	23.1324
2131.79	26.9065
2132.04	23.1259
2132.28	23.1212
2132.52	18.4006
2132.76	23.1181
2133	20.2882
2133.25	23.1201
2133.49	22.1769
2133.73	25.9525
2133.97	23.1225
2134.21	24.0657
2134.46	23.1214
2134.7	22.177
2134.94	21.2324
2135.18	22.1741
2135.42	19.3403
2135.67	23.1075
2135.91	22.1572
2136.15	21.2107
2136.39	24.0391
2136.63	19.3268
2136.87	21.2127
2137.12	23.1004
2137.36	21.219
2137.6	22.1622
2137.84	22.1561
2138.08	24.0361
2138.32	22.1532
2138.57	22.1607
2138.81	24.0528
2139.05	19.33
2139.29	24.9756
2139.53	22.1442
2139.77	20.2564
2140.02	23.0799
2140.26	20.2515
2140.5	23.0754
2140.74	18.3648
2140.98	22.1318
2141.22	21.1869
2141.46	20.2404
2141.71	19.2968
2141.95	22.1206
2142.19	23.0656
2142.43	24.0114
2142.67	23.0859
2142.91	24.0251
2143.15	20.2123
2143.4	20.2009
2143.64	23.0257
2143.88	19.2724
2144.12	22.1007
2144.36	24.9278
2144.6	17.3948
2144.85	23.035
2145.09	21.1562
2145.33	19.2749
2145.57	17.393
2145.81	20.2118
2146.05	20.2102
2146.29	26.7881
2146.53	24.9059
2146.78	24.9025
2147.02	22.0804
2147.26	20.1987
2147.5	20.1965
2147.74	21.1335
2147.98	23.0093
2148.22	23.0064
2148.46	23.0029
2148.7	20.1823
2148.95	21.1161
2149.19	23.922
2149.43	23.9159
2149.67	22.9718
2149.91	21.0919
2150.15	21.0895
2150.39	22.9634
2150.63	21.0903
2150.88	22.0313
2151.12	21.0961
2151.36	21.0996
2151.6	24.8523
2151.84	23.9186
2152.08	19.2261
2152.32	22.0367
2152.56	22.9703
2152.8	22.9661
2153.05	23.9014
2153.29	22.0251
2153.53	24.8329
2153.77	22.0165
2154.01	18.263
2154.25	20.1273
2154.49	21.9913
2154.73	20.1099
2154.97	19.1684
2155.21	19.1625
2155.45	24.7645
2155.7	21.9564
2155.94	24.7565
2156.18	21.9529
2156.42	21.0182
2156.66	22.8863
2156.9	20.0853
2157.14	21.0222
2157.38	21.0262
2157.62	21.0301
2157.86	21.966
2158.1	15.4229
2158.34	23.8346
2158.59	21.9634
2158.83	24.7643
2159.07	23.826
2159.31	23.8214
2159.55	18.2119
2159.79	21.9421
2160.03	22.8706
2160.27	22.8659
2160.51	19.1303
2160.75	21.9288
2160.99	17.2616
2161.23	23.7905
2161.47	20.9907
2161.72	21.9235
2161.95	20.9908
2162.2	24.7222
2162.44	20.0563
2162.68	18.1881
2162.92	24.7144
2163.16	21.9142
2163.4	20.0471
2163.64	20.0447
2163.88	21.9053
2164.12	21.8991
2164.36	20.9635
2164.6	20.9634
2164.84	25.6252
2165.08	22.8301
2165.32	19.1031
2165.56	21.8989
2165.8	23.7605
2166.04	23.7578
2166.28	19.0967
2166.53	21.8871
2166.76	20.9524
2167.01	21.8789
2167.25	22.8033
2167.49	20.9322
2167.73	20.9225
2167.97	22.7776
2168.21	20.9174
2168.45	20.9184
2168.69	21.8508
2168.93	20.9252
2169.17	22.7914
2169.41	21.8686
2169.65	18.1534
2169.89	22.814
2170.13	21.8852
2170.37	22.8155
2170.61	20.9494
2170.85	20.9471
2171.09	23.7316
2171.33	22.7859
2171.57	20.9168
2171.81	23.7006
2172.05	21.8379
2172.29	25.5514
2172.53	21.8338
2172.77	21.8335
2173.01	22.7623
2173.25	20.9054
2173.49	21.8373
2173.73	21.8395
2173.97	21.8407
2174.21	19.0529
2174.45	21.8411
2174.69	21.8408
2174.93	20.9102
2175.17	19.0503
2175.41	19.0496
2175.65	21.8363
2175.89	20.9056
2176.13	19.9733
2176.37	20.9007
2176.61	21.8296
2176.85	22.7591
2177.09	19.0439
2177.33	19.0433
2177.57	24.6183
2177.81	25.5457
2178.05	21.824
2178.29	20.8905
2178.53	22.7465
2178.77	22.7477
2179.01	22.7481
2179.25	20.8915
2179.49	22.7485
2179.73	19.0344
2179.97	23.6764
2180.21	22.7466
2180.45	22.7449
2180.69	23.6728
2180.93	19.9584
2181.17	19.9561
2181.41	24.5938
2181.65	21.8089
2181.89	21.806
2182.13	22.7315
2182.37	19.0189
2182.61	19.0152
2182.85	22.7208
2183.09	19.0055
2183.33	21.7818
2183.57	19.925
2183.81	22.7015
2184.05	22.7003
2184.28	19.9211
2184.53	21.7765
2184.76	21.7783
2185	22.7067
2185.24	20.8556
2185.48	23.6402
2185.72	24.5722
2185.96	24.576
2186.2	24.5831
2186.44	27.3745
2186.68	20.8851
2186.92	18.1059
2187.16	22.754
2187.4	20.8984
2187.64	23.6827
2187.88	22.7502
2188.12	25.531
2188.36	21.8128
2188.6	19.9517
2188.84	22.7295
2189.07	21.7949
2189.31	19.9338
2189.55	25.4932
2189.79	21.7837
2190.03	24.5654
2190.27	23.6398
2190.51	20.8612
2190.75	18.0795
2190.99	20.8622
2191.23	23.6458
2191.47	23.6481
2191.71	20.8679
2191.95	23.6523
2192.19	21.7992
2192.42	24.5859
2192.67	20.8789
2192.9	21.8103
2193.14	21.8151
2193.38	23.6809
2193.62	20.9057
2193.86	21.8426
2194.1	21.8471
2194.34	22.7767
2194.58	19.985
2194.82	19.9832
2195.06	19.9803
2195.3	21.8344
2195.53	23.6862
2195.77	22.7496
2196.01	21.8138
2196.25	21.8082
2196.49	19.9482
2196.73	18.0895
2196.97	19.9419
2197.21	19.9414
2197.45	21.7974
2197.69	19.944
2197.92	22.732
2198.16	22.7381
2198.4	23.6731
2198.64	19.9666
2198.88	22.7598
2199.12	22.7671
2199.36	20.9158
2199.6	19.0653
2199.84	23.7283
2200.07	20.016
2200.31	26.5441
2200.55	20.031
2200.79	21.8999
2201.03	22.8255
2201.27	22.8038
2201.51	20.9017
2201.75	22.7223
2201.99	18.0905
2202.23	23.6986
2202.46	22.792
2202.7	22.7853
2202.94	21.8508
2203.18	20.9235
2203.42	21.9458
2203.66	23.7792
2203.9	22.8428
2204.14	23.7829
2204.37	23.7678
2204.61	24.6774
2204.85	20.9354
2205.09	21.8519
2205.33	22.7779
2205.57	23.7072
2205.8	21.8529
2206.05	23.7164
2206.28	25.5649
2206.52	20.9178
2206.76	21.8507
2207	20.9248
2207.24	21.8594
2207.48	19.0731
2207.71	22.7997
2207.95	22.8046
2208.19	20.947
2208.43	20.0192
2208.67	22.8152
2208.91	23.7482
2209.15	21.8861
2209.38	23.748
2209.62	20.9546
2209.86	22.8202
2210.1	21.892
2210.34	24.6908
2210.58	19.1037
2210.81	24.6989
2211.05	21.9065
2211.29	23.7759
2211.53	21.9164
2211.77	21.9198
2212.01	23.788
2212.24	25.6522
2212.48	21.919
2212.72	20.9841
2212.96	23.7792
2213.2	20.9771
2213.44	21.9101
2213.67	21.9143
2213.91	24.7209
2214.15	21.9327
2214.39	23.8021
2214.63	20.0703
2214.87	20.0718
2215.1	21.9402
2215.34	23.8082
2215.58	21.9412
2215.82	24.742
2216.06	27.5424
2216.29	23.807
2216.53	19.1382
2216.77	25.6731
2217.01	18.2052
2217.25	18.2062
2217.49	21.0075
2217.72	23.8081
2217.96	22.8754
2218.2	18.2087
2218.44	21.013
2218.68	24.7531
2218.91	23.8237
2219.15	22.8925
2219.39	22.8951
2219.63	24.7672
2219.87	21.0288
2220.1	22.8969
2220.34	23.8308
2220.58	21.9599
2220.82	21.9553
2221.06	19.1472
2221.29	21.9444
2221.53	22.8738
2221.77	19.1367
2222.01	22.8698
2222.25	21.0042
2222.48	20.0736
2222.72	21.0106
2222.96	21.0141
2223.2	19.1507
2223.43	21.9597
2223.67	21.0319
2223.91	21.0382
2224.15	21.0437
2224.39	20.1131
2224.62	21.989
2224.86	22.9304
2225.1	21.0646
2225.34	22.9427
2225.58	22.011
2225.81	20.1422
2226.05	22.0198
2226.29	23.8986
2226.53	22.0289
2226.76	22.9703
2227	22.0357
2227.24	23.913
2227.48	23.9129
2227.72	22.9736
2227.95	25.7849
2228.19	22.9706
2228.43	21.0943
2228.67	24.8433
2228.9	19.2182
2229.14	20.1587
2229.38	22.0396
2229.62	22.0453
2229.85	23.9262
2230.09	19.2385
2230.33	21.1199
2230.57	19.2468
2230.8	20.1905
2231.04	22.0742
2231.28	22.0788
2231.52	18.3245
2231.75	23.0278
2231.99	22.0924
2232.23	21.1564
2232.47	25.8629
2232.7	21.1646
2232.94	23.9911
2233.18	21.1727
2233.42	22.1172
2233.65	25.8851
2233.89	24.002
2234.13	22.1179
2234.37	23.9976
2234.6	22.1118
2234.84	20.2234
2235.08	20.2179
2235.31	23.0386
2235.55	21.159
2235.79	20.2198
2236.03	24.9236
2236.26	24.9249
2236.5	19.2826
2236.74	21.1684
2236.97	21.1732
2237.21	22.1223
2237.45	21.1899
2237.69	24.9669
2237.92	25.9169
2238.16	22.1531
2238.4	22.16
2238.64	21.2247
2238.87	22.171
2239.11	18.396
2239.35	20.2802
2239.58	21.2184
2239.82	22.1553
2240.06	25.9234
2240.29	24.0451
2240.53	20.2836
2240.77	23.1155
2241.01	22.1736
2241.24	21.2318
2241.48	20.2897
2241.72	24.0666
2241.96	24.0694
2242.19	23.1285
2242.43	21.2416
2242.67	25.017
2242.9	23.1265
2243.14	25.9543
2243.38	21.2336
2243.61	17.4583
2243.85	25.9522
2244.09	24.0681
2244.32	23.1308
2244.56	22.1956
2244.8	19.3697
2245.03	22.2101
2245.27	24.1052
2245.51	23.165
2245.75	24.1157
2245.98	24.1201
2246.22	17.501
2246.46	19.3957
2246.69	23.1842
2246.93	21.2941
2247.17	20.3489
2247.4	24.1348
2247.64	19.4017
2247.88	23.1861
2248.11	25.0774
2248.35	22.2373
2248.59	25.0749
2248.82	21.2892
2249.06	21.2921
2249.3	20.349
2249.53	23.1887
2249.77	20.3472
2250.01	22.2359
2250.24	22.2314
2250.48	19.389
2250.72	21.2765
2250.95	21.2735
2251.19	22.2175
2251.43	19.3819
2251.66	23.1662
2251.9	17.4956
2252.14	23.1745
2252.37	19.3969
2252.61	21.3002
2252.85	21.3095
2253.08	24.1582
2253.32	23.2168
2253.55	25.117
2253.79	23.226
2254.03	20.3852
2254.26	21.3343
2254.5	21.3327
2254.74	22.2814
2254.97	18.4893
2255.21	21.3345
2255.45	23.2321
2255.68	22.2873
2255.92	22.2918
2256.16	20.3984
2256.39	22.2997
2256.63	20.4054
2256.87	25.1552
2257.1	21.3617
2257.34	22.3139
2257.57	19.4668
2257.81	22.3167
2258.05	21.3685
2258.28	21.3707
2258.52	21.3737
2258.76	25.1775
2258.99	20.4293
2259.23	22.3318
2259.47	21.384
2259.7	20.436
2259.94	22.3394
2260.17	22.3417
2260.41	22.3451
2260.64	23.303
2260.88	23.3086
2261.12	24.2619
2261.35	20.4574
2261.59	20.4592
2261.83	24.2678
2262.06	21.4158
2262.3	22.3723
2262.53	21.4252
2262.77	23.3359
2263.01	24.296
2263.24	24.3046
2263.48	22.4073
2263.71	24.3238
2263.95	20.5157
2264.19	26.2492
2264.42	21.4821
2264.66	23.3968
2264.89	21.4909
2265.13	24.3579
2265.37	22.4485
2265.6	23.4025
2265.84	25.308
2266.07	19.5734
2266.31	20.5233
2266.55	22.4275
2266.78	21.4695
2267.02	21.4664
2267.25	25.2789
2267.49	21.4587
2267.73	21.455
2267.96	22.407
2268.2	23.361
2268.43	21.4568
2268.67	26.2305
2268.91	20.513
2269.14	23.3821
2269.38	23.3893
2269.61	23.3975
2269.85	19.584
2270.08	18.6328
2270.32	23.4136
2270.56	24.3746
2270.79	21.5112
2271.03	22.4704
2271.26	23.43
2271.5	24.3912
2271.73	22.4809
2271.97	25.3517
2272.2	20.5694
2272.44	22.4842
2272.68	25.3562
2272.91	23.444
2273.15	20.5745
2273.38	19.6188
2273.62	18.6629
2273.85	19.621
2274.09	23.4509
2274.33	22.4951
2274.56	18.6674
2274.8	24.4131
2275.03	22.5002
2275.27	25.3717
2275.5	24.4176
2275.74	22.5079
2275.97	23.4718
2276.21	21.5607
2276.45	21.5653
2276.68	19.6527
2276.92	21.5772
2277.15	23.5041
2277.39	22.5536
2277.62	19.6837
2277.86	22.5682
2278.09	17.7681
2278.33	21.6105
2278.56	21.6099
2278.8	22.5693
2279.03	20.6458
2279.27	22.5559
2279.5	20.6302
2279.74	21.5839
2279.98	23.4969
2280.21	22.5335
2280.45	22.5301
2280.68	24.4454
2280.92	17.7328
2281.15	23.481
2281.39	19.6498
2281.62	24.4441
2281.86	20.6127
2282.09	21.5758
2282.33	21.5811
2282.56	19.6674
2282.8	21.5922
2283.03	18.7205
2283.27	21.6112
2283.5	23.542
2283.74	17.7857
2283.97	25.4847
2284.21	22.602
2284.44	23.5693
2284.68	20.6887
2284.91	21.6528
2285.15	19.7295
2285.38	20.6885
2285.62	21.6413
2285.85	21.6404
2286.09	23.5658
2286.32	23.5686
2286.56	22.6176
2286.79	20.7018
2287.03	22.6315
2287.26	19.7439
2287.5	21.6775
2287.74	20.713
2287.97	22.6365
2288.2	22.6332
2288.44	24.5556
2288.67	20.6978
2288.91	24.5392
2289.14	26.4556
2289.38	23.5586
2289.61	23.5553
2289.85	25.4753
2290.08	21.6302
2290.32	24.5145
2290.55	20.6719
2290.79	22.6007
2291.02	21.6467
2291.26	27.426
2291.49	20.6936
2291.73	23.5853
2291.96	23.5898
2292.2	22.6326
2292.43	20.7114
2292.67	20.7152
2292.9	24.5733
2293.14	23.6125
2293.37	22.6507
2293.6	20.7217
2293.84	24.5742
2294.07	24.5708
2294.31	21.6759
2294.54	19.7465
2294.78	23.5963
2295.01	19.7412
2295.25	19.7384
2295.48	20.6989
2295.72	22.6205
2295.95	21.6478
2296.19	20.6842
2296.42	19.7237
2296.65	24.5379
2296.89	21.6551
2297.12	23.5855
2297.36	22.629
2297.59	20.7107
2297.83	19.7523
2298.06	22.6462
2298.3	22.6506
2298.53	21.6926
2298.77	21.6977
2299	24.5953
2299.23	20.74
2299.47	20.7396
2299.7	18.8109
2299.94	21.704
2300.17	21.7063
2300.41	20.7455
2300.64	23.6435
2300.87	25.5768
2301.11	22.6832
2301.34	20.7535
2301.58	21.7184
2301.81	24.6123
2302.05	20.7498
2302.28	23.6459
2302.51	22.6806
2302.75	23.6444
2302.98	21.714
2303.22	21.7143
2303.45	23.6467
2303.69	22.6855
2303.92	23.655
2304.15	21.7266
2304.39	22.6954
2304.62	20.7681
2304.86	22.7032
2305.09	20.7721
2305.33	21.7401
2305.56	18.8438
2305.79	24.6455
2306.03	23.6803
2306.26	19.8148
2306.5	20.7812
2306.73	24.647
2306.97	18.8463
2307.2	23.6756
2307.43	25.6064
2307.67	22.7059
2307.9	23.6697
2308.13	20.7716
2308.37	21.7383
2308.6	22.708
2308.84	19.8126
2309.07	21.7507
2309.3	24.659
2309.54	22.7305
2309.77	21.7658
2310.01	22.7341
2310.24	20.799
2310.47	24.6664
2310.71	25.6286
2310.94	23.6826
2311.18	23.6656
2311.41	19.7949
2311.64	20.7546
2311.88	24.6126
2312.11	18.8182
2312.34	22.6751
2312.58	19.7799
2312.81	22.6769
2313.05	24.6136
2313.28	23.6583
2313.51	22.6996
2313.75	19.8077
2313.98	24.6467
2314.21	26.5894
2314.45	22.7306
2314.68	23.7023
2314.92	19.8288
2315.15	19.8234
2315.39	19.8195
2315.62	21.7476
2315.85	20.7706
2316.09	22.695
2316.32	21.7261
2316.55	19.7942
2316.79	20.7609
2317.02	21.7279
2317.25	24.6308
2317.49	22.7038
2317.72	22.698
2317.95	25.5901
2318.19	19.7938
2318.42	22.6869
2318.66	24.6137
2318.89	24.6101
2319.12	23.6424
2319.35	22.6757
2319.59	25.5704
2319.82	22.6764
2320.06	23.6415
2320.29	24.6084
2320.52	23.647
2320.76	21.7204
2320.99	21.7245
2321.22	23.6608
2321.46	24.6335
2321.69	21.7424
2321.92	24.6482
2322.16	25.6182
2322.39	27.5511
2322.62	25.6185
2322.86	22.7201
2323.09	26.5892
2323.32	23.6903
2323.56	23.6913
2323.79	23.6907
2324.02	24.6566
2324.26	26.5849
2324.49	27.5433
2324.72	28.4998
2324.96	29.4583
2325.19	33.3152
2325.42	34.2742
2325.66	31.3715
2325.89	37.1553
2326.12	35.2175
2326.36	40.9979
2326.59	45.8114
2326.82	55.4436
2327.06	68.9319
2327.29	96.8749
2327.52	126.741
2327.76	171.081
2327.99	199.038
2328.22	177.837
2328.46	127.695
2328.69	97.7992
2328.92	66.9493
2329.15	48.6405
2329.39	39.9702
2329.62	37.0848
2329.85	40.9367
2330.09	35.1543
2330.32	32.2622
2330.55	29.3718
2330.78	30.3366
2331.02	24.5617
2331.25	27.456
2331.48	22.6445
2331.72	24.5672
2331.95	25.5248
2332.18	22.6319
2332.42	23.5918
2332.65	23.5887
2332.88	21.6604
2333.12	22.6206
2333.35	25.5059
2333.58	23.578
2333.81	21.6497
2334.05	22.6064
2334.28	23.5644
2334.51	25.4854
2334.74	25.4843
2334.98	23.5599
2335.21	23.5605
2335.44	23.5622
2335.68	21.6385
2335.91	21.6365
2336.14	22.5965
2336.37	25.4801
2336.61	22.5948
2336.84	24.5167
2337.07	21.6315
2337.3	27.3979
2337.54	23.5509
2337.77	25.4723
2338	23.5488
2338.24	24.5092
2338.47	20.6653
2338.7	21.6272
2338.93	25.4721
2339.17	21.6268
2339.4	23.5475
2339.63	23.5448
2339.86	22.5802
2340.1	24.4977
2340.33	22.5716
2340.56	22.5655
2340.79	21.5984
2341.03	22.5499
2341.26	23.5024
2341.49	21.5797
2341.72	25.4118
2341.96	21.5728
2342.19	19.653
2342.42	21.5689
2342.65	23.4857
2342.89	19.6515
2343.12	22.5266
2343.35	23.4842
2343.58	21.5673
2343.82	24.4446
2344.05	25.4044
2344.28	23.4867
2344.51	21.5682
2344.75	25.4001
2344.98	21.5628
2345.21	21.5575
2345.44	23.4692
2345.68	23.4649
2345.91	24.4204
2346.14	19.6311
2346.37	22.5029
2346.6	25.3736
2346.84	23.4568
2347.07	19.6266
2347.3	20.5844
2347.53	24.4156
2347.77	22.5033
2348	21.5477
2348.23	21.548
2348.46	23.4615
2348.69	21.543
2348.93	25.363
2349.16	21.5254
2349.39	23.4272
2349.62	25.3248
2349.85	25.3069
2350.09	19.553
2350.32	19.5136
2350.55	24.2972
2350.78	23.4206
2351.02	22.4973
2351.25	23.4166
2351.48	23.3852
2351.71	25.2926
2351.94	25.2963
2352.18	24.3295
2352.41	24.3082
2352.64	26.195
2352.87	23.3401
2353.1	24.2925
2353.34	20.4782
2353.57	22.3828
2353.8	23.3347
2354.03	20.4815
2354.26	23.3463
2354.5	23.3458
2354.73	23.3444
2354.96	20.4842
2355.19	24.293
2355.42	23.3378
2355.66	22.3817
2355.89	27.136
2356.12	21.4129
2356.35	23.3067
2356.58	22.3507
2356.81	22.3469
2357.05	25.1956
2357.28	26.1425
2357.51	18.5349
2357.74	22.3342
2357.97	24.234
2358.21	22.328
2358.44	23.2758
2358.67	23.2741
2358.9	15.6737
2359.13	24.2202
2359.36	20.4177
2359.6	20.4133
2359.83	16.6117
2360.06	25.149
2360.29	24.1945
2360.52	23.2403
2360.75	24.183
2360.99	23.2289
2361.22	16.5879
2361.45	25.1125
2361.68	23.2107
2361.91	21.3102
2362.14	21.3053
2362.38	19.4076
2362.61	22.2437
2362.84	22.2401
2363.07	20.345
2363.3	21.2889
2363.53	24.1248
2363.77	22.2294
2364	23.1721
2364.23	20.3313
2364.46	22.2209
2364.69	19.3803
2364.92	23.1581
