#Acq. time (s)=	30
#Accumulations=	2
#Range (cm-¹)=	1200...2365
#Windows=	3
#Auto scanning=	Off
#Autofocus=	Off
#Macrospot=	Off
#AutoExposure=	Off
#Spike filter=	Multiple accum.
#Delay time (s)=	2
#Binning=	1
#Readout mode=	Signal
#DeNoise=	Off
#ICS correction=	On
#Dark correction=	Off
#Inst. Process=	Off
#Detector Gain=	Best Dynamic
#Detector ADC=	50 kHz HS
#Detector temperature (°C)=	-60.09
#Instrument=	LabRAM HR Evol
#Detector=	SIN-EM FIVIS
#Objective=	x100_VIS_LWD
#Grating=	1800 (450-850nm)
#ND Filter=	100%
#Laser=	532nm_Edge
#Hole=	49.98
#Temperature=	0
#Range=	Visible
#StageXY=	75x50mm Scan+
#StageZ=	Z motor
#X (µm)=	0
#Y (µm)=	0
#Z (µm)=	64.1
#Full time(mm:ss)=	3:19
#Project=	21_11_22
#Sample=	BU19w
#Site=	
#Title=	BU19w-D-FF2-FI10-V_1800 (450-850nm)_532nm_Edge_100%_x100_VIS_LWD_H50um_30sX2
#Remark=	
#Date=	22.11.2021 13:57
#Acquired=	22.11.2021 13:57:50
1202.84	61.7341
1203.12	61.7033
1203.4	57.3828
1203.67	57.3549
1203.95	60.5419
1204.23	58.3742
1204.51	53.0028
1204.78	56.2012
1205.06	50.8381
1205.34	60.4594
1205.62	64.7208
1205.9	60.4232
1206.17	62.5454
1206.45	53.9819
1206.73	61.4623
1207.01	60.3874
1207.29	58.2375
1207.56	59.2826
1207.84	56.0536
1208.12	56.034
1208.39	57.0798
1208.67	55.9941
1208.95	53.8387
1209.23	52.7507
1209.51	60.1951
1209.78	61.2424
1210.06	55.8973
1210.34	60.1441
1210.62	54.811
1210.89	62.2509
1211.17	54.7987
1211.45	62.2524
1211.72	56.9292
1212	53.7341
1212.28	55.8605
1212.56	57.9859
1212.84	57.9815
1213.11	55.8382
1213.39	57.946
1213.67	58.9833
1213.94	57.895
1214.22	58.9388
1214.5	52.547
1214.78	63.1508
1215.05	61.0114
1215.33	57.8122
1215.61	51.4305
1215.89	55.6676
1216.16	64.152
1216.44	51.4128
1216.72	54.5891
1216.99	59.8807
1217.27	54.5738
1217.55	55.6344
1217.83	56.691
1218.1	59.8671
1218.38	58.7946
1218.66	56.6637
1218.93	57.7071
1219.21	54.5059
1219.49	56.5984
1219.77	57.6278
1220.04	51.2511
1220.32	56.5145
1220.6	53.3176
1220.88	49.0721
1221.15	55.3907
1221.43	52.2074
1221.71	57.4754
1221.98	57.4657
1222.26	56.4068
1222.54	55.3555
1222.81	56.4173
1223.09	54.3114
1223.37	53.2532
1223.64	57.4716
1223.92	59.5721
1224.2	59.5607
1224.48	62.6971
1224.75	55.2616
1225.03	56.2774
1225.31	59.4022
1225.58	59.3479
1225.86	56.1472
1226.14	52.9842
1226.41	56.2549
1226.69	59.5456
1226.97	56.3459
1227.24	61.559
1227.52	58.3714
1227.8	64.6964
1228.07	67.8273
1228.35	60.3317
1228.63	66.6403
1228.9	69.7912
1229.18	65.5855
1229.46	63.4746
1229.73	68.7255
1230.01	75.0248
1230.29	71.8643
1230.56	73.9615
1230.84	67.6612
1231.12	71.8687
1231.39	80.28
1231.67	82.3919
1231.95	79.2528
1232.22	88.7181
1232.5	84.5201
1232.78	85.5811
1233.05	89.7939
1233.33	87.6902
1233.61	86.6275
1233.88	91.8688
1234.16	91.8497
1234.43	87.6158
1234.71	84.4328
1234.99	86.5015
1235.26	87.519
1235.54	82.2407
1235.82	75.9226
1236.09	80.1023
1236.37	79.0416
1236.65	80.0803
1236.92	69.5914
1237.2	69.5879
1237.47	68.5381
1237.75	67.4906
1238.03	65.3965
1238.3	69.5917
1238.58	58.0557
1238.85	64.3322
1239.13	62.2272
1239.41	58.0344
1239.68	67.4694
1239.96	65.3799
1240.24	61.1963
1240.51	58.0506
1240.79	61.194
1241.06	67.487
1241.34	62.2448
1241.62	61.1915
1241.89	62.2332
1242.17	58.0282
1242.45	58.0123
1242.72	64.2766
1243	62.1593
1243.27	60.054
1243.55	64.2354
1243.83	62.1402
1244.1	53.7651
1244.38	64.2263
1244.65	62.1299
1244.93	63.1702
1245.2	65.2406
1245.48	62.0862
1245.76	64.1732
1246.03	63.1293
1246.31	69.4091
1246.59	68.3591
1246.86	68.3551
1247.14	69.4006
1247.41	65.2048
1247.69	72.5049
1247.96	69.3518
1248.24	73.517
1248.51	79.7718
1248.79	76.6232
1249.07	75.5639
1249.34	73.4604
1249.62	77.622
1249.89	76.5611
1250.17	74.458
1250.45	73.4053
1250.72	74.4471
1251	81.7622
1251.27	81.7763
1251.55	82.8369
1251.82	77.6237
1252.1	77.6236
1252.38	79.7167
1252.65	77.628
1252.93	76.5791
1253.2	77.6251
1253.48	80.7628
1253.75	76.5959
1254.03	71.377
1254.3	74.5069
1254.58	77.6281
1254.86	74.4873
1255.13	69.2598
1255.41	69.2531
1255.68	67.1579
1255.96	64.0081
1256.23	73.3971
1256.51	67.1427
1256.78	68.1907
1257.06	67.1812
1257.33	66.1181
1257.61	66.1028
1257.88	59.8157
1258.16	62.9293
1258.44	58.7451
1258.71	67.0905
1258.99	57.7506
1259.26	67.2281
1259.54	58.9297
1259.81	61.9608
1260.09	63.9725
1260.36	60.7952
1260.64	63.987
1260.91	58.8136
1261.19	63.0449
1261.46	62.0468
1261.74	59.9126
1262.01	56.7588
1262.29	61.9827
1262.56	61.9791
1262.84	57.7855
1263.11	68.2322
1263.39	63.011
1263.66	65.1082
1263.94	66.1644
1264.21	61.9965
1264.49	67.2409
1264.76	62.0291
1265.04	65.1873
1265.31	61.0268
1265.59	52.6722
1265.86	57.9194
1266.14	60.0234
1266.41	65.2693
1266.69	54.7892
1266.96	54.7765
1267.24	62.0902
1267.51	57.8869
1267.79	62.0594
1268.06	57.8608
1268.34	59.9481
1268.61	58.8936
1268.89	58.8951
1269.16	66.2332
1269.44	55.7818
1269.71	61.0379
1269.99	57.9114
1270.26	66.3085
1270.54	58.9883
1270.81	59.003
1271.09	57.9691
1271.36	59.0274
1271.64	57.9813
1271.91	61.1254
1272.18	64.271
1272.46	57.9823
1272.74	55.8922
1273.01	60.0985
1273.28	54.8636
1273.56	60.1222
1273.83	62.2329
1274.11	64.3413
1274.38	61.2043
1274.66	59.1171
1274.93	59.1306
1275.21	57.0394
1275.48	63.3568
1275.76	59.168
1276.03	61.2804
1276.3	59.1872
1276.58	54.9756
1276.85	66.5412
1277.13	63.3766
1277.4	63.3722
1277.68	59.1693
1277.95	59.1728
1278.23	61.2902
1278.5	63.4147
1278.77	58.1611
1279.05	59.2107
1279.32	62.3727
1279.6	63.434
1279.87	61.3189
1280.15	59.1882
1280.42	60.1833
1280.69	61.2063
1280.97	59.1059
1281.24	70.6741
1281.52	62.415
1281.79	57.1567
1282.07	75.0737
1282.34	75.0361
1282.61	85.5345
1282.89	100.271
1283.16	126.62
1283.44	160.325
1283.71	193.981
1283.99	240.305
1284.26	229.764
1284.53	178.151
1284.81	142.333
1285.08	93.9057
1285.36	76.0131
1285.63	66.5429
1285.9	68.6509
1286.18	59.1866
1286.45	59.1964
1286.73	63.4183
1287	51.8453
1287.28	56.0677
1287.55	53.9614
1287.82	61.3275
1288.1	51.8436
1288.37	56.0548
1288.64	53.9469
1288.92	58.157
1289.19	52.89
1289.47	50.786
1289.74	45.5175
1290.01	51.8311
1290.29	48.6726
1290.56	49.7391
1290.84	51.8671
1291.11	51.888
1291.38	42.4056
1291.66	47.6769
1291.93	48.7282
1292.21	46.6242
1292.48	54.0276
1292.75	48.7778
1293.03	49.867
1293.3	49.8901
1293.57	55.1808
1293.85	52.0105
1294.12	48.8343
1294.4	44.5981
1294.67	53.0407
1294.94	53.0279
1295.22	56.1814
1295.49	54.0716
1295.76	46.6765
1296.04	49.8357
1296.31	48.772
1296.58	52.9859
1296.86	48.7611
1297.13	50.8793
1297.4	50.8844
1297.68	43.4942
1297.95	48.771
1298.22	49.824
1298.5	51.9368
1298.77	51.944
1299.04	55.1201
1299.32	49.8431
1299.59	46.675
1299.87	46.6738
1300.14	49.839
1300.41	47.7206
1300.69	46.6556
1300.96	40.3167
1301.23	43.4843
1301.51	51.9313
1301.78	46.6503
1302.05	48.756
1302.33	42.4129
1302.6	50.8459
1302.87	48.7234
1303.15	46.6006
1303.42	44.4807
1303.69	51.8577
1303.97	49.7468
1304.24	42.3677
1304.51	50.8063
1304.79	46.5859
1305.06	49.7483
1305.33	51.8606
1305.6	51.856
1305.88	46.5835
1306.15	48.7
1306.42	44.4857
1306.7	48.7125
1306.97	46.6063
1307.24	47.6599
1307.52	46.6004
1307.79	46.5993
1308.06	46.6004
1308.34	48.7129
1308.61	49.7697
1308.88	49.7723
1309.15	43.446
1309.43	48.7312
1309.7	47.6782
1309.97	55.0679
1310.25	45.5563
1310.52	44.4975
1310.79	48.7155
1311.06	50.8219
1311.34	46.5985
1311.61	53.9892
1311.88	45.5481
1312.16	40.2738
1312.43	47.6694
1312.7	51.8991
1312.98	49.7927
1313.25	49.7908
1313.52	42.3939
1313.79	41.335
1314.07	48.7254
1314.34	45.5562
1314.61	47.6735
1314.89	43.4524
1315.16	44.5109
1315.43	48.7377
1315.7	45.5687
1315.98	48.7376
1316.25	46.6226
1316.52	46.6199
1316.79	51.8992
1317.07	52.9578
1317.34	47.6757
1317.61	49.7855
1317.88	44.4966
1318.16	45.5422
1318.43	46.5844
1318.7	49.7346
1318.97	49.725
1319.25	46.5447
1319.52	43.373
1319.79	49.694
1320.06	44.4138
1320.34	50.728
1320.61	48.6248
1320.88	47.5717
1321.16	43.3542
1321.43	42.2972
1321.7	45.4608
1321.97	43.3489
1322.25	48.625
1322.52	46.5043
1322.79	42.2676
1323.06	46.4567
1323.33	43.2628
1323.61	42.1963
1323.88	45.3466
1324.15	44.3058
1324.42	48.5485
1324.7	45.4047
1324.97	43.3121
1325.24	45.4364
1325.51	45.4537
1325.79	44.4129
1326.06	48.6391
1326.33	49.6848
1326.6	48.6353
1326.87	47.5775
1327.15	46.518
1327.42	44.4018
1327.69	48.6115
1327.96	45.4362
1328.23	47.5301
1328.51	48.5652
1328.78	42.2232
1329.05	45.3657
1329.32	45.3522
1329.6	47.4421
1329.87	41.1137
1330.14	45.3041
1330.41	47.3906
1330.68	47.3751
1330.96	46.31
1331.23	48.3967
1331.5	52.583
1331.77	39.9722
1332.04	41.0122
1332.32	46.2499
1332.59	44.142
1332.86	45.1822
1333.13	46.2225
1333.4	49.3604
1333.67	45.1589
1333.95	44.1043
1334.22	45.1474
1334.49	49.3353
1334.76	43.0409
1335.03	45.1259
1335.3	45.1137
1335.58	48.2483
1335.85	50.3341
1336.12	45.0915
1336.39	46.1361
1336.66	41.9481
1336.94	49.2799
1337.21	39.8555
1337.48	48.2338
1337.75	47.1875
1338.02	44.0441
1338.29	45.0885
1338.57	46.1317
1338.84	44.0318
1339.11	46.1178
1339.38	41.9206
1339.65	50.2799
1339.93	45.035
1340.2	48.165
1340.47	43.9768
1340.74	41.8825
1341.01	47.1103
1341.28	45.0185
1341.55	46.0636
1341.82	48.1506
1342.1	45.0052
1342.37	46.0398
1342.64	40.7994
1342.91	44.967
1343.18	48.0847
1343.45	44.9287
1343.73	45.9558
1344	48.0278
1344.27	40.7111
1344.54	39.6559
1344.81	46.9447
1345.08	47.9798
1345.35	47.9746
1345.63	50.0544
1345.9	41.7099
1346.17	42.7432
1346.44	46.9004
1346.71	44.8079
1346.98	45.8401
1347.25	47.9132
1347.52	44.7809
1347.8	46.8505
1348.07	44.757
1348.34	46.8288
1348.61	47.8561
1348.88	49.9304
1349.15	42.6494
1349.42	45.7727
1349.69	45.7813
1349.96	44.7543
1350.24	43.7181
1350.51	42.7112
1350.78	40.6719
1351.05	46.8863
1351.32	43.693
1351.59	48.8363
1351.86	47.8017
1352.13	45.7286
1352.41	44.6736
1352.68	46.7389
1352.95	42.5966
1353.22	47.7979
1353.49	54.0185
1353.76	45.7026
1354.03	47.7749
1354.3	44.6539
1354.57	47.7624
1354.84	43.6012
1355.11	46.707
1355.39	47.7354
1355.66	47.7263
1355.93	46.6785
1356.2	53.9292
1356.47	42.5119
1356.74	47.6905
1357.01	50.7885
1357.28	42.4806
1357.55	47.6486
1357.82	45.5661
1358.09	40.3819
1358.36	47.631
1358.63	46.5928
1358.9	48.6607
1359.18	47.6188
1359.45	50.7191
1359.72	49.6778
1359.99	46.5686
1360.26	46.5702
1360.53	52.7905
1360.8	46.5824
1361.07	50.7306
1361.34	44.5148
1361.61	44.511
1361.88	44.5055
1362.15	49.6746
1362.42	49.6628
1362.69	51.7202
1362.97	47.5681
1363.24	49.6257
1363.51	49.6132
1363.78	50.6322
1364.05	43.3779
1364.32	46.4698
1364.59	50.598
1364.86	60.938
1365.13	49.5725
1365.4	48.5409
1365.67	51.6444
1365.94	51.6466
1366.21	48.5481
1366.48	57.8567
1366.75	49.5788
1367.02	53.7072
1367.29	53.7001
1367.56	50.5858
1367.83	50.5776
1368.1	55.7331
1368.37	56.7499
1368.64	57.7627
1368.91	59.8033
1369.18	64.9379
1369.45	61.8201
1369.72	57.6782
1369.99	49.4201
1370.26	58.6889
1370.54	54.5582
1370.81	55.582
1371.08	56.6067
1371.34	58.6624
1371.62	53.5064
1371.89	58.6523
1372.16	51.4335
1372.43	57.6145
1372.7	56.5908
1372.97	59.6791
1373.24	55.5618
1373.51	61.7271
1373.78	54.5031
1374.05	61.6907
1374.32	60.6321
1374.59	67.8418
1374.86	62.7108
1375.13	63.7639
1375.4	72.0357
1375.67	76.201
1375.94	70.0283
1376.21	76.2115
1376.48	72.0773
1376.75	80.3122
1377.02	73.082
1377.29	70.993
1377.56	75.049
1377.83	83.2445
1378.09	77.0363
1378.36	82.1945
1378.64	84.2308
1378.91	84.1911
1379.18	83.1204
1379.44	97.4609
1379.71	98.4516
1379.98	95.3332
1380.25	100.436
1380.52	98.3527
1380.79	101.411
1381.06	97.2927
1381.33	101.396
1381.6	100.378
1381.87	105.522
1382.14	92.2132
1382.41	107.643
1382.68	106.644
1382.95	99.4819
1383.22	96.4124
1383.49	100.541
1383.76	100.55
1384.03	98.4949
1384.3	91.2463
1384.57	104.386
1384.84	98.0682
1385.11	100.034
1385.38	104.235
1385.65	104.401
1385.92	103.502
1386.19	122.059
1386.45	156.973
1386.72	224.774
1386.99	338.661
1387.26	456.383
1387.53	435.652
1387.8	288.018
1388.07	176.167
1388.34	123.881
1388.61	95.1766
1388.88	86.9581
1389.15	78.7402
1389.42	74.625
1389.69	67.4441
1389.96	68.4575
1390.23	64.3541
1390.49	57.182
1390.76	69.4572
1391.03	61.2637
1391.3	60.2352
1391.57	56.1377
1391.84	62.2736
1392.11	53.0687
1392.38	56.1474
1392.65	61.2715
1392.92	60.2505
1393.19	52.0592
1393.46	53.0777
1393.73	52.0472
1393.99	55.1096
1394.26	54.0756
1394.53	57.1333
1394.8	54.0581
1395.07	55.0792
1395.34	49.9673
1395.61	52.0182
1395.88	46.906
1396.15	54.0697
1396.42	48.961
1396.68	57.1533
1396.95	55.111
1397.22	56.1337
1397.49	46.9272
1397.76	53.0813
1398.03	42.847
1398.3	45.9172
1398.57	51.042
1398.84	47.969
1399.11	49.0076
1399.38	51.0839
1399.64	45.9862
1399.91	52.1633
1400.18	53.2063
1400.45	47.0548
1400.72	49.1085
1400.99	50.1252
1401.26	45.9919
1401.53	48.0491
1401.79	53.1742
1402.06	48.0382
1402.33	47.0033
1402.6	51.0955
1402.87	42.8833
1403.14	43.9004
1403.41	47.995
1403.68	44.915
1403.94	49.0162
1404.21	49.0188
1404.48	51.0727
1404.75	49.0246
1405.02	52.1026
1405.29	43.9022
1405.56	50.0563
1405.82	44.9318
1406.09	46.9864
1406.36	49.0409
1406.63	49.0441
1406.9	50.072
1407.17	45.9689
1407.44	57.2414
1407.7	52.0983
1407.97	49.0058
1408.24	64.3655
1408.51	60.255
1408.78	68.442
1409.05	66.3889
1409.31	63.3233
1409.58	56.1656
1409.85	52.0951
1410.12	51.1313
1410.39	46.0306
1410.66	47.0258
1410.92	44.9053
1411.19	45.9381
1411.46	43.9157
1411.73	47.0186
1412	39.8279
1412.27	49.0687
1412.53	45.9882
1412.8	44.9619
1413.07	38.8041
1413.34	44.9683
1413.61	40.864
1413.88	43.9489
1414.14	44.9807
1414.41	36.7665
1414.68	47.0446
1414.95	42.9367
1415.22	39.8541
1415.48	42.9377
1415.75	44.9948
1416.02	42.939
1416.29	40.8841
1416.56	39.8517
1416.82	40.8711
1417.09	40.8619
1417.36	42.9077
1417.63	39.8176
1417.9	40.8348
1418.17	43.9056
1418.43	42.8741
1418.7	42.8754
1418.97	41.8586
1419.24	41.8728
1419.5	41.8856
1419.77	42.9352
1420.04	38.8549
1420.31	41.9797
1420.58	41.8983
1420.84	48.9624
1421.11	44.8817
1421.38	40.7392
1421.65	41.7571
1421.92	41.7727
1422.18	40.7695
1422.45	42.8348
1422.72	44.872
1422.99	43.8642
1423.26	41.8086
1423.52	40.7754
1423.79	41.7893
1424.06	43.8275
1424.33	41.7641
1424.59	43.7957
1424.86	41.7314
1425.13	37.6278
1425.4	42.7437
1425.66	47.8629
1425.93	44.7931
1426.2	41.724
1426.47	40.7039
1426.73	39.6851
1427	41.742
1427.27	47.9012
1427.54	36.6358
1427.81	42.7979
1428.07	43.8417
1428.34	39.7523
1428.61	40.7853
1428.88	39.7589
1429.14	40.7776
1429.41	42.8191
1429.68	43.8373
1429.94	39.7219
1430.21	37.6557
1430.48	46.8616
1430.75	40.6961
1431.02	43.757
1431.28	40.6795
1431.55	40.6957
1431.82	42.7549
1432.08	41.7313
1432.35	46.8547
1432.62	41.7294
1432.89	41.7268
1433.15	38.6497
1433.42	42.7445
1433.69	44.7888
1433.96	45.8081
1434.22	43.7548
1434.49	38.6314
1434.76	42.7233
1435.02	40.6719
1435.29	41.6971
1435.56	34.5324
1435.83	45.8038
1436.09	42.7313
1436.36	38.6348
1436.63	35.5658
1436.89	39.6727
1437.16	42.7589
1437.43	36.612
1437.7	36.6137
1437.96	35.5882
1438.23	40.717
1438.5	39.6881
1438.77	38.6556
1439.03	41.7267
1439.3	47.8866
1439.57	41.7347
1439.83	40.717
1440.1	41.7372
1440.37	39.6785
1440.63	40.6972
1440.9	40.6922
1441.17	38.6395
1441.43	41.716
1441.7	37.6258
1441.97	37.634
1442.24	37.6467
1442.5	40.7207
1442.77	36.6126
1443.03	39.6861
1443.3	39.682
1443.57	39.6782
1443.84	41.7255
1444.1	43.7726
1444.37	37.615
1444.64	37.6094
1444.9	39.655
1445.17	40.6787
1445.44	37.6088
1445.7	41.7195
1445.97	40.696
1446.24	39.6692
1446.5	41.7164
1446.77	35.5575
1447.04	39.6521
1447.3	39.6445
1447.57	38.6153
1447.84	39.6365
1448.1	39.6326
1448.37	42.7029
1448.64	34.5
1448.9	37.5697
1449.17	39.6151
1449.44	39.6125
1449.7	41.6613
1449.97	37.5641
1450.24	43.7159
1450.5	42.6948
1450.77	38.5954
1451.04	39.6167
1451.3	40.6383
1451.57	38.5881
1451.83	43.7111
1452.1	41.6598
1452.37	41.6562
1452.63	36.5325
1452.9	38.588
1453.17	41.666
1453.43	35.5157
1453.7	35.5122
1453.97	45.7525
1454.23	42.6704
1454.5	39.5929
1454.77	39.5896
1455.03	39.587
1455.3	38.5621
1455.56	41.6354
1455.83	40.6126
1456.1	36.5157
1456.36	40.6145
1456.63	37.541
1456.9	38.5634
1457.16	44.7072
1457.43	39.5811
1457.69	39.577
1457.96	35.475
1458.23	35.4695
1458.49	37.5121
1458.76	33.4104
1459.02	40.5698
1459.29	38.5146
1459.56	38.5059
1459.82	40.5429
1460.09	41.5556
1460.36	41.5448
1460.62	40.5125
1460.89	35.3976
1461.15	43.5885
1461.42	40.5391
1461.69	42.6002
1461.95	41.5949
1462.22	41.5699
1462.48	39.446
1462.75	34.3082
1463.02	37.3632
1463.28	35.3331
1463.55	43.4961
1463.81	38.3746
1464.08	38.367
1464.35	36.3301
1464.61	36.327
1464.88	39.3839
1465.14	38.3611
1465.41	37.3395
1465.67	36.3179
1465.94	41.415
1466.21	39.3703
1466.47	40.3844
1466.74	36.2976
1467	37.3074
1467.27	40.3567
1467.54	39.3312
1467.8	39.3257
1468.07	40.3406
1468.33	39.3159
1468.6	39.3072
1468.86	36.2456
1469.13	33.1871
1469.39	36.2397
1469.66	32.1649
1469.93	41.327
1470.19	36.2325
1470.46	37.2444
1470.72	36.22
1470.99	36.2147
1471.25	36.211
1471.52	36.2099
1471.79	40.2832
1472.05	34.1784
1472.32	37.2315
1472.58	36.2118
1472.85	35.19
1473.11	41.29
1473.38	36.1975
1473.64	42.2979
1473.91	37.2042
1474.17	37.197
1474.44	39.2268
1474.71	39.2245
1474.97	36.1718
1475.24	44.3017
1475.5	40.2257
1475.77	39.2022
1476.03	37.1628
1476.3	32.0746
1476.56	38.1636
1476.83	36.1229
1477.09	44.2389
1477.36	41.1767
1477.62	42.1786
1477.89	41.1543
1478.15	40.1348
1478.42	42.1561
1478.68	43.1731
1478.95	39.1203
1479.22	33.0373
1479.48	38.1188
1479.75	40.1546
1480.01	40.154
1480.28	40.1579
1480.54	39.1444
1480.81	38.1283
1481.07	37.1109
1481.34	38.1105
1481.6	40.1177
1481.87	31.9665
1482.13	39.0058
1482.4	35.9507
1482.66	42.9931
1482.93	42.0808
1483.19	42.093
1483.46	39.0699
1483.72	36.9989
1483.99	42.0837
1484.25	41.0771
1484.52	41.0637
1484.78	37.0015
1485.05	36.9954
1485.31	36.9886
1485.58	37.9918
1485.84	38.9937
1486.11	35.9494
1486.37	39.9918
1486.64	37.9639
1486.9	37.9603
1487.17	40.9941
1487.43	37.9579
1487.7	40.9871
1487.96	37.9439
1488.22	39.9576
1488.49	38.9417
1488.75	36.9169
1489.02	37.9268
1489.28	48.0383
1489.55	32.8706
1489.81	35.9008
1490.08	41.9642
1490.34	40.9525
1490.61	36.9051
1490.87	40.9461
1491.14	36.9023
1491.4	33.871
1491.67	37.9173
1491.93	35.8932
1492.19	38.9191
1492.46	36.8858
1492.72	38.8916
1492.99	41.9087
1493.25	37.8612
1493.52	42.9027
1493.78	41.8872
1494.05	40.8709
1494.31	37.8417
1494.58	37.8406
1494.84	37.8375
1495.1	37.8356
1495.37	42.8811
1495.63	36.8258
1495.9	39.8539
1496.16	36.8268
1496.43	41.8752
1496.69	35.8213
1496.96	37.8427
1497.22	39.8625
1497.48	37.8422
1497.75	38.8495
1498.01	45.9142
1498.28	38.8427
1498.54	37.8246
1498.81	42.8671
1499.07	38.8284
1499.34	36.8078
1499.6	39.8306
1499.86	32.7596
1500.13	34.769
1500.39	36.7812
1500.66	43.8314
1500.92	40.8051
1501.18	36.7747
1501.45	39.8009
1501.71	39.8004
1501.98	40.8062
1502.24	37.7762
1502.5	38.7777
1502.77	32.7188
1503.03	38.7506
1503.3	36.732
1503.56	34.7151
1503.83	42.775
1504.09	37.7427
1504.35	37.7433
1504.62	37.7442
1504.88	33.7123
1505.15	39.7549
1505.41	39.7516
1505.67	43.7818
1505.94	40.7597
1506.2	39.7519
1506.47	40.7581
1506.73	37.734
1506.99	39.7525
1507.26	38.7472
1507.52	33.7006
1507.78	39.7378
1508.05	37.7131
1508.31	38.7085
1508.58	39.6988
1508.84	38.6706
1509.1	39.6546
1509.37	43.6539
1509.63	37.6065
1509.9	41.6128
1510.16	32.5653
1510.42	33.5618
1510.69	35.5655
1510.95	41.5966
1511.21	40.6081
1511.48	38.6027
1511.74	42.6152
1512.01	40.5963
1512.27	36.5684
1512.53	43.5841
1512.8	40.5596
1513.06	34.5277
1513.32	38.5307
1513.59	38.5259
1513.85	39.5245
1514.11	39.521
1514.38	42.5268
1514.64	38.516
1514.9	39.5206
1515.17	42.5355
1515.43	41.5343
1515.7	35.5183
1515.96	33.5134
1516.22	35.5218
1516.49	41.5433
1516.75	33.5181
1517.01	39.5362
1517.28	39.5318
1517.54	39.5281
1517.8	35.5166
1518.07	39.5324
1518.33	41.5419
1518.59	37.5289
1518.86	36.5232
1519.12	39.5289
1519.38	33.5045
1519.65	34.5026
1519.91	39.5128
1520.17	41.511
1520.44	37.4876
1520.7	33.4633
1520.96	35.4568
1521.23	41.458
1521.49	36.4424
1521.75	35.4342
1522.02	38.4414
1522.28	38.4425
1522.54	39.4445
1522.81	48.4642
1523.07	41.4596
1523.33	38.4636
1523.59	38.4709
1523.86	39.4758
1524.12	36.467
1524.38	38.4652
1524.65	40.4662
1524.91	34.4493
1525.17	37.4516
1525.44	46.4632
1525.7	34.4357
1525.96	38.4384
1526.23	39.4371
1526.49	41.4389
1526.75	39.4322
1527.02	39.4247
1527.28	34.415
1527.54	38.423
1527.8	38.4301
1528.07	42.4448
1528.33	42.4507
1528.59	38.4428
1528.86	39.4411
1529.12	34.4315
1529.38	40.4369
1529.64	41.4427
1529.91	36.4416
1530.17	40.4646
1530.43	37.468
1530.69	42.488
1530.96	39.4813
1531.22	30.4517
1531.48	43.4894
1531.75	39.473
1532.01	41.4737
1532.27	42.472
1532.53	35.4448
1532.8	40.4364
1533.06	39.421
1533.32	35.4047
1533.59	43.4017
1533.85	40.3816
1534.11	40.3669
1534.37	40.3605
1534.64	32.3478
1534.9	43.3503
1535.16	38.3403
1535.42	40.3263
1535.69	41.321
1535.95	41.3155
1536.21	42.3254
1536.48	41.3487
1536.74	43.3809
1537	43.4026
1537.26	43.4202
1537.53	35.4193
1537.79	37.4338
1538.05	41.4495
1538.31	47.4452
1538.58	41.4279
1538.84	34.4006
1539.1	41.4042
1539.36	38.3877
1539.62	40.3798
1539.89	40.3693
1540.15	39.3583
1540.41	40.3482
1540.67	38.3334
1540.94	43.3188
1541.2	43.3199
1541.46	39.321
1541.72	43.3297
1541.98	35.3371
1542.25	38.3465
1542.51	42.3664
1542.77	44.3781
1543.03	46.3862
1543.3	38.3771
1543.56	41.3787
1543.82	35.3695
1544.08	38.3782
1544.35	40.3858
1544.61	38.3855
1544.87	43.386
1545.13	41.3587
1545.39	38.3538
1545.66	35.35
1545.92	38.3665
1546.18	40.3314
1546.44	42.2866
1546.71	40.2761
1546.97	41.2978
1547.23	37.3356
1547.49	41.4036
1547.75	34.4227
1548.02	40.4869
1548.28	43.4689
1548.54	41.4645
1548.8	41.4556
1549.06	40.4368
1549.33	38.4461
1549.59	42.4799
1549.85	42.4733
1550.11	44.4691
1550.37	40.4211
1550.64	46.4324
1550.9	43.4185
1551.16	45.4145
1551.42	43.3952
1551.68	37.366
1551.94	41.3589
1552.21	41.3526
1552.47	46.3574
1552.73	40.3459
1552.99	36.3404
1553.25	42.351
1553.52	36.3335
1553.78	37.3346
1554.04	40.3413
1554.3	42.3464
1554.56	39.341
1554.82	43.3449
1555.09	42.3345
1555.35	43.3211
1555.61	45.3114
1555.87	43.2935
1556.13	41.2782
1556.39	45.2665
1556.65	40.256
1556.92	41.2475
1557.18	36.2427
1557.44	40.2358
1557.7	42.2303
1557.96	43.2261
1558.22	41.2261
1558.49	43.2268
1558.75	44.2334
1559.01	41.2451
1559.27	43.2575
1559.53	36.256
1559.79	41.2538
1560.05	44.2494
1560.32	42.2507
1560.58	41.2456
1560.84	41.2418
1561.1	41.2555
1561.36	37.2687
1561.62	46.2797
1561.88	39.2708
1562.15	43.2496
1562.41	35.1838
1562.67	42.0674
1562.93	41.0119
1563.19	41.1858
1563.45	44.2378
1563.71	41.2155
1563.98	41.1853
1564.24	42.2179
1564.5	41.256
1564.76	43.2466
1565.02	44.2136
1565.28	46.2176
1565.54	42.2237
1565.8	42.226
1566.07	44.221
1566.33	39.2058
1566.59	43.1932
1566.85	38.1961
1567.11	41.1964
1567.37	39.1977
1567.63	44.1944
1567.89	44.1926
1568.15	42.191
1568.42	41.187
1568.68	42.1786
1568.94	45.1667
1569.2	42.1676
1569.46	44.1589
1569.72	39.1562
1569.98	42.1448
1570.24	36.1479
1570.5	47.1204
1570.77	40.1266
1571.03	48.1105
1571.29	44.1256
1571.55	44.135
1571.81	45.1436
1572.07	40.1597
1572.33	44.1653
1572.59	47.1707
1572.85	43.1747
1573.11	43.1705
1573.37	43.1688
1573.64	51.1565
1573.9	44.1471
1574.16	42.132
1574.42	42.1155
1574.68	42.0996
1574.94	42.0849
1575.2	44.0654
1575.46	38.074
1575.72	43.0554
1575.98	42.0571
1576.24	42.0558
1576.5	44.0491
1576.76	43.0537
1577.03	47.0477
1577.29	43.0615
1577.55	45.0558
1577.81	42.0615
1578.07	41.0586
1578.33	43.0448
1578.59	47.0253
1578.85	39.0419
1579.11	43.0178
1579.37	45.0062
1579.63	44.0058
1579.89	43.0052
1580.15	50.9704
1580.41	45.9876
1580.67	42.0013
1580.93	42.992
1581.19	41.9949
1581.46	41.0017
1581.72	46.9801
1581.98	42.9966
1582.24	47.9758
1582.5	43.9879
1582.76	43.9858
1583.02	45.9725
1583.28	40.9821
1583.54	43.9571
1583.8	47.9293
1584.06	45.9315
1584.32	45.9255
1584.58	43.9305
1584.84	43.9273
1585.1	45.9165
1585.36	48.9043
1585.62	44.9286
1585.88	47.9201
1586.14	39.9621
1586.4	45.9395
1586.66	49.9253
1586.92	43.9524
1587.18	39.9687
1587.44	45.9453
1587.7	38.979
1587.96	45.9533
1588.22	42.9633
1588.48	44.9538
1588.74	41.9623
1589	43.9484
1589.26	46.924
1589.52	47.903
1589.78	37.941
1590.04	43.903
1590.3	43.8857
1590.56	48.8372
1590.82	50.8027
1591.08	44.8281
1591.34	41.8411
1591.6	43.8266
1591.86	48.7976
1592.12	42.8454
1592.38	41.8566
1592.64	48.812
1592.9	51.7678
1593.16	47.7928
1593.42	44.8121
1593.68	38.8521
1593.94	39.8459
1594.2	47.7944
1594.46	42.8306
1594.72	45.814
1594.98	48.7924
1595.24	43.8197
1595.5	49.77
1595.76	51.7412
1596.02	42.7931
1596.28	48.739
1596.54	55.676
1596.8	48.7202
1597.06	37.7987
1597.32	49.6935
1597.58	49.6828
1597.84	47.6865
1598.1	48.6616
1598.36	50.6257
1598.62	43.6748
1598.88	40.6911
1599.14	49.5914
1599.4	43.6418
1599.66	45.6103
1599.92	47.5768
1600.18	48.5541
1600.44	44.5881
1600.7	48.5367
1600.96	40.6216
1601.22	47.5407
1601.48	47.5405
1601.73	45.5634
1601.99	53.4731
1602.25	40.619
1602.51	44.5749
1602.77	50.5111
1603.03	52.4941
1603.29	49.5327
1603.55	52.5061
1603.81	46.5745
1604.07	43.6092
1604.33	51.5254
1604.59	48.5553
1604.85	49.542
1605.11	48.5508
1605.37	47.5598
1605.63	49.5366
1605.89	43.5959
1606.14	41.6054
1606.4	45.5464
1606.66	43.5567
1606.92	50.4605
1607.18	51.4394
1607.44	47.524
1607.7	44.74
1607.96	55.2223
1608.22	48.5914
1608.48	50.1627
1608.74	45.6732
1609	51.8826
1609.26	50.3064
1609.51	54.2776
1609.77	44.6129
1610.03	47.6641
1610.29	51.9422
1610.55	47.1529
1610.81	51.2186
1611.07	53.7317
1611.33	49.3892
1611.59	45.8498
1611.85	45.5399
1612.11	50.3812
1612.36	49.8751
1612.62	49.9557
1612.88	51.976
1613.14	54.3357
1613.4	50.4264
1613.66	52.8663
1613.92	54.656
1614.18	50.5536
1614.44	45.6282
1614.7	51.723
1614.95	51.2383
1615.21	50.8049
1615.47	51.1812
1615.73	52.1401
1615.99	53.747
1616.25	47.681
1616.51	47.3199
1616.77	51.5672
1617.03	47.0283
1617.28	50.5189
1617.54	48.8129
1617.8	52.665
1618.06	51.0984
1618.32	52.7085
1618.58	51.5785
1618.84	49.6659
1619.1	51.9343
1619.35	52.2269
1619.61	51.3912
1619.87	53.6544
1620.13	53.7716
1620.39	56.7366
1620.65	51.6652
1620.91	51.5763
1621.17	50.3259
1621.42	49.1648
1621.68	48.2298
1621.94	50.159
1622.2	49.9045
1622.46	50.7933
1622.72	53.7234
1622.98	52.9892
1623.23	51.2428
1623.49	50.3471
1623.75	50.3727
1624.01	51.8775
1624.27	50.7978
1624.53	53.0672
1624.79	51.6548
1625.04	50.8155
1625.3	53.5891
1625.56	53.6019
1625.82	52.8398
1626.08	48.6178
1626.34	53.9656
1626.59	55.2937
1626.85	52.4391
1627.11	56.2568
1627.37	47.9929
1627.63	49.9154
1627.89	49.479
1628.14	53.6376
1628.4	55.3871
1628.66	54.9799
1628.92	53.2594
1629.18	55.0585
1629.44	56.5735
1629.69	53.5424
1629.95	53.1774
1630.21	53.7876
1630.47	51.383
1630.73	49.1115
1630.99	54.6539
1631.24	54.9571
1631.29	54.8023
1631.55	54.804
1631.81	55.7899
1632.07	54.8024
1632.33	57.7562
1632.59	57.7518
1632.86	54.7896
1633.12	55.7685
1633.38	59.702
1633.64	56.7383
1633.9	52.7896
1634.16	53.7649
1634.42	57.6943
1634.68	51.7817
1634.95	48.8247
1635.21	53.7418
1635.47	51.7669
1635.73	49.7949
1635.99	58.6539
1636.25	58.6531
1636.51	54.7145
1636.77	56.6821
1637.03	53.7271
1637.3	55.6933
1637.56	57.6661
1637.82	53.7375
1638.08	52.7583
1638.34	54.7275
1638.6	55.7066
1638.86	58.6541
1639.12	57.6651
1639.39	54.7084
1639.65	55.6895
1639.91	51.7493
1640.17	53.7153
1640.43	50.761
1640.69	56.6636
1640.95	57.642
1641.21	56.6507
1641.47	51.7206
1641.73	54.6665
1641.99	49.7453
1642.25	58.6064
1642.52	59.5954
1642.78	53.6953
1643.04	60.5815
1643.3	52.7024
1643.56	57.6148
1643.82	49.7382
1644.08	57.6046
1644.34	57.5964
1644.6	56.607
1644.86	46.7667
1645.12	57.5842
1645.38	53.6519
1645.65	56.6134
1645.91	52.6885
1646.17	53.7052
1646.43	50.7498
1646.69	59.6049
1646.95	60.5805
1647.21	54.6769
1647.47	51.7428
1647.73	53.7205
1647.99	58.6565
1648.25	53.74
1648.51	55.7161
1648.77	60.6448
1649.03	51.7748
1649.29	51.7744
1649.55	50.7908
1649.82	55.7092
1650.08	56.6878
1650.34	68.5078
1650.6	52.7442
1650.86	55.7025
1651.12	53.7372
1651.38	55.7102
1651.64	57.6827
1651.9	62.6147
1652.16	54.737
1652.42	56.7204
1652.68	49.8333
1652.94	56.7567
1653.2	52.8205
1653.46	52.8271
1653.72	56.7788
1653.98	57.767
1654.24	58.7508
1654.5	56.7705
1654.76	52.8164
1655.02	51.8254
1655.28	54.7808
1655.54	52.8004
1655.81	56.7381
1656.07	56.7291
1656.33	57.7062
1656.58	53.7527
1656.84	59.6585
1657.11	52.749
1657.37	52.7532
1657.63	55.7176
1657.89	57.6983
1658.15	60.6671
1658.41	56.732
1658.67	53.7807
1658.93	53.7866
1659.19	49.8239
1659.45	48.8319
1659.71	54.8434
1659.97	45.9749
1660.23	52.8723
1660.49	53.859
1660.75	52.8169
1661.01	47.8297
1661.27	52.8035
1661.53	54.7859
1661.79	53.8098
1662.05	60.7513
1662.31	44.9387
1662.57	52.7625
1662.83	52.7872
1663.09	51.8952
1663.35	52.8842
1663.61	52.8906
1663.87	48.7816
1664.13	49.7462
1664.39	54.7698
1664.65	56.7309
1664.91	55.7365
1665.17	52.7678
1665.43	52.7597
1665.69	53.7514
1665.95	53.7827
1666.21	51.8283
1666.47	50.8434
1666.72	52.8196
1666.99	54.7965
1667.25	51.8227
1667.51	53.8065
1667.76	52.8493
1668.02	51.8673
1668.28	53.8378
1668.54	49.8804
1668.8	52.8423
1669.06	51.858
1669.32	57.7914
1669.58	53.8384
1669.84	49.8826
1670.1	47.9052
1670.36	49.8831
1670.62	51.8619
1670.88	50.8765
1671.14	46.9263
1671.4	45.9433
1671.66	51.8822
1671.92	53.867
1672.18	51.8987
1672.44	49.9255
1672.7	53.8871
1672.96	51.9067
1673.22	51.9051
1673.48	53.8865
1673.74	44.9809
1674	49.9298
1674.25	45.9688
1674.51	47.9443
1674.77	49.918
1675.03	48.9201
1675.29	47.92
1675.55	49.8868
1675.81	50.8666
1676.07	48.8818
1676.33	49.864
1676.59	50.8479
1676.85	47.8764
1677.11	47.8709
1677.37	45.8901
1677.63	48.8488
1677.89	50.8194
1678.15	55.7543
1678.4	50.8117
1678.66	48.8344
1678.92	49.8212
1679.18	46.8568
1679.44	47.8445
1679.7	48.8321
1679.96	48.8293
1680.22	46.8516
1680.48	47.8382
1680.74	48.8249
1681	45.8588
1681.25	42.8908
1681.51	47.8223
1681.77	41.8927
1682.03	45.8399
1682.29	45.8378
1682.55	47.8112
1682.81	48.7978
1683.07	46.8225
1683.33	48.7984
1683.59	47.8158
1683.84	45.8479
1684.1	46.8388
1684.36	43.8741
1684.62	48.8085
1684.88	49.7897
1685.14	43.858
1685.4	43.853
1685.66	52.7336
1685.92	49.7622
1686.18	43.8295
1686.43	45.7949
1686.69	44.7993
1686.95	40.8434
1687.21	47.7376
1687.47	43.7949
1687.73	45.7753
1687.99	49.7264
1688.25	51.703
1688.51	45.7838
1688.76	47.7631
1689.02	44.8041
1689.28	43.8157
1689.54	42.825
1689.8	43.8034
1690.06	49.7134
1690.32	46.7418
1690.58	41.798
1690.84	43.7559
1691.09	46.7048
1691.35	47.6794
1691.61	45.6987
1691.87	44.7071
1692.13	43.7224
1692.39	46.6799
1692.64	42.7408
1692.9	47.6687
1693.16	43.7301
1693.42	44.7217
1693.68	43.7384
1693.94	43.736
1694.2	43.7302
1694.46	49.6313
1694.71	42.7228
1694.97	41.7265
1695.23	40.7331
1695.49	46.6312
1695.75	42.6864
1696.01	46.6164
1696.26	44.645
1696.52	44.6438
1696.78	42.6776
1697.04	46.6129
1697.3	40.7073
1697.56	39.7155
1697.81	43.6487
1698.07	37.7432
1698.33	40.6911
1698.59	40.6859
1698.85	39.6946
1699.11	43.619
1699.37	40.6611
1699.62	38.6868
1699.88	42.6109
1700.14	39.66
1700.4	43.5882
1700.66	39.654
1700.91	44.562
1701.17	43.5779
1701.43	42.599
1701.69	42.6027
1701.95	44.5676
1702.21	44.5643
1702.46	45.5441
1702.72	38.6654
1702.98	47.5057
1703.24	39.6378
1703.5	42.5748
1703.75	42.5639
1704.01	43.534
1704.27	40.5787
1704.53	42.5311
1704.79	39.5756
1705.04	38.5817
1705.3	45.431
1705.56	39.5352
1705.82	43.4388
1706.08	44.4045
1706.33	43.4154
1706.59	41.4511
1706.85	42.4269
1707.11	39.4891
1707.37	37.5311
1707.62	42.4266
1707.88	40.4724
1708.14	40.4768
1708.4	33.6243
1708.66	41.4617
1708.91	42.4431
1709.17	45.3801
1709.43	43.4137
1709.69	42.4195
1709.95	38.487
1710.2	39.4475
1710.46	43.344
1710.72	37.461
1710.98	43.3115
1711.23	41.3498
1711.49	43.2976
1711.75	36.4561
1712.01	38.4067
1712.27	37.4291
1712.52	37.4381
1712.78	40.3734
1713.04	40.3712
1713.3	39.3895
1713.55	38.4055
1713.81	39.3724
1714.07	37.4072
1714.33	41.2964
1714.58	42.2529
1714.84	36.3806
1715.1	39.2895
1715.36	41.2216
1715.61	40.235
1715.87	38.2787
1716.13	36.3269
1716.39	38.2736
1716.64	41.1926
1716.9	41.189
1717.16	41.1938
1717.42	45.0871
1717.68	35.345
1717.93	37.2839
1718.19	40.1912
1718.45	39.2106
1718.71	41.1467
1718.96	34.3291
1719.22	40.153
1719.48	39.1699
1719.74	36.244
1719.99	40.1209
1720.25	40.1118
1720.51	34.2778
1720.76	39.1288
1721.02	34.2733
1721.28	34.2685
1721.54	38.1499
1721.79	36.2
1722.05	38.1295
1722.31	39.083
1722.56	33.2508
1722.82	40.9923
1723.08	40.014
1723.34	38.072
1723.59	38.0741
1723.85	39.038
1724.11	34.1857
1724.37	34.1739
1724.62	39.9868
1724.88	34.1812
1725.14	39.0198
1725.39	39.979
1725.65	37.0505
1725.91	39.8946
1726.17	39.8417
1726.42	36.9364
1726.68	40.8193
1726.94	36.0083
1727.19	42.7746
1727.45	39.8544
1727.71	34.0525
1727.96	36.9569
1728.22	34.0872
1728.48	37.9541
1728.74	36.0206
1728.99	38.9179
1729.25	34.0825
1729.51	37.9434
1729.76	39.8704
1730.02	37.931
1730.28	35.9896
1730.53	36.9425
1730.79	39.8214
1731.05	37.8764
1731.3	34.9709
1731.56	37.8513
1731.82	39.7659
1732.08	37.8254
1732.33	39.739
1732.59	41.6538
1732.85	33.9432
1733.1	39.7134
1733.36	37.784
1733.62	38.7412
1733.87	36.8108
1734.13	37.767
1734.39	36.7987
1734.64	38.717
1734.9	31.9788
1735.16	37.7411
1735.41	36.771
1735.67	35.8014
1735.93	42.5194
1736.18	37.7046
1736.44	39.6131
1736.7	41.5162
1736.95	38.618
1737.21	38.6015
1737.47	36.669
1737.72	40.4916
1737.98	39.5232
1738.24	38.5553
1738.49	37.5884
1738.75	37.5801
1739.01	38.5313
1739.26	40.4419
1739.52	33.7373
1739.78	36.605
1740.03	40.4295
1740.29	37.5552
1740.54	34.6821
1740.8	34.6765
1741.06	38.4951
1741.31	34.6621
1741.57	34.6558
1741.83	35.6105
1742.08	33.6967
1742.34	37.5227
1742.6	38.478
1742.85	35.6052
1743.11	37.5117
1743.36	37.5027
1743.62	33.6683
1743.88	37.4793
1744.13	29.8283
1744.39	35.5481
1744.65	37.4503
1744.9	37.4401
1745.16	36.4825
1745.42	36.4813
1745.67	34.5721
1745.93	36.4822
1746.18	36.4841
1746.44	37.4429
1746.7	36.4935
1746.95	35.545
1747.21	36.5078
1747.46	39.3824
1747.72	36.5217
1747.98	37.4788
1748.23	33.6584
1748.49	38.4371
1748.74	35.5621
1749	33.6392
1749.26	28.8524
1749.51	35.5308
1749.77	37.432
1750.02	34.5589
1750.28	35.505
1750.54	35.4978
1750.79	33.5829
1751.05	30.7145
1751.31	35.4753
1751.56	34.5138
1751.82	40.2282
1752.07	35.4558
1752.33	35.4509
1752.59	39.2572
1752.84	33.5323
1753.1	39.2399
1753.35	36.372
1753.61	32.5525
1753.86	33.493
1754.12	33.4819
1754.38	34.4243
1754.63	36.3216
1754.89	37.2693
1755.14	39.1759
1755.4	36.33
1755.66	34.4288
1755.91	38.2348
1756.17	35.3798
1756.42	35.3799
1756.68	32.5254
1756.93	35.3782
1757.19	40.1323
1757.44	35.3708
1757.7	25.8529
1757.96	35.3611
1758.21	36.3052
1758.47	31.5429
1758.72	37.2414
1758.98	35.3354
1759.23	35.3318
1759.49	37.2334
1759.75	35.3369
1760	35.3392
1760.26	34.3873
1760.51	31.5334
1760.77	36.2882
1761.02	41.045
1761.28	34.3916
1761.53	35.3522
1761.79	31.5553
1762.05	28.704
1762.3	35.3698
1762.56	29.6602
1762.81	34.4214
1763.07	38.2297
1763.32	37.2767
1763.58	39.1782
1763.83	30.6064
1764.09	34.4121
1764.34	31.5544
1764.6	36.3096
1764.85	38.2063
1765.11	36.2978
1765.37	36.2919
1765.62	36.2904
1765.88	33.4297
1766.13	34.3629
1766.39	36.2451
1766.64	33.3755
1766.9	34.3183
1767.15	35.2689
1767.41	35.28
1767.66	37.1838
1767.92	36.2339
1768.17	33.3861
1768.43	34.3477
1768.68	38.161
1768.94	33.4076
1769.19	35.3116
1769.45	36.2688
1769.7	36.2754
1769.96	34.3766
1770.21	34.3799
1770.47	38.1899
1770.72	32.4821
1770.98	38.1958
1771.23	32.4859
1771.49	33.4388
1771.74	35.3442
1772	32.492
1772.26	35.3508
1772.51	34.4059
1772.76	33.468
1773.02	36.3336
1773.27	35.3832
1773.53	36.3361
1773.78	30.6132
1774.04	38.2331
1774.29	37.2732
1774.55	33.4566
1774.8	37.2604
1775.06	34.3954
1775.31	36.293
1775.57	30.5723
1775.82	38.1804
1776.08	32.4591
1776.33	38.159
1776.59	36.2509
1776.84	31.4955
1777.1	36.2605
1777.35	33.4069
1777.61	38.1678
1777.86	36.2667
1778.12	35.3168
1778.37	38.173
1778.63	36.2703
1778.88	36.2733
1779.13	38.1824
1779.39	34.3788
1779.65	31.5271
1779.9	40.1064
1780.15	34.3925
1780.41	32.4896
1780.66	35.3527
1780.92	32.4967
1781.17	34.4079
1781.43	29.6457
1781.68	31.5594
1781.94	34.4251
1782.19	36.3346
1782.45	35.3791
1782.7	37.284
1782.95	33.4634
1783.21	32.5065
1783.46	35.3686
1783.72	34.4177
1783.97	38.2399
1784.23	35.3847
1784.48	38.2586
1784.74	36.3649
1784.99	33.519
1785.24	32.5837
1785.5	31.6449
1785.75	35.4838
1786.01	36.4469
1786.26	38.3725
1786.52	30.72
1786.77	32.6422
1787.03	34.5624
1787.28	38.4009
1787.54	34.5691
1787.79	35.5264
1788.04	29.7727
1788.3	35.5073
1788.55	30.7037
1788.81	35.4883
1789.06	34.5277
1789.31	34.528
1789.57	34.5283
1789.82	36.4465
1790.08	32.618
1790.33	34.536
1790.59	32.6184
1790.84	35.495
1791.09	29.748
1791.35	31.6655
1791.6	39.3266
1791.86	35.4894
1792.11	30.7155
1792.36	41.2885
1792.62	33.6278
1792.87	33.634
1793.13	38.4394
1793.38	32.6841
1793.64	33.6501
1793.89	30.7741
1794.14	33.6621
1794.4	33.6674
1794.65	31.7494
1794.9	31.7526
1795.16	31.7553
1795.41	35.6033
1795.67	36.5659
1795.92	33.68
1796.17	31.7538
1796.43	32.7106
1796.68	30.7818
1796.94	35.5798
1797.19	35.5732
1797.44	35.5676
1797.7	32.681
1797.95	37.4804
1798.21	34.5962
1798.46	30.7526
1798.71	35.5547
1798.97	31.7134
1799.22	33.6363
1799.47	35.5606
1799.73	30.7605
1799.98	38.4537
1800.24	34.6159
1800.49	33.6612
1800.74	34.6272
1801	36.5521
1801.25	36.5533
1801.5	31.749
1801.76	34.6407
1802.01	32.7216
1802.27	33.6914
1802.52	33.6991
1802.77	32.7434
1803.03	33.7126
1803.28	30.8272
1803.53	37.5762
1803.79	29.8707
1804.04	33.727
1804.29	34.6907
1804.55	30.835
1804.8	33.7257
1805.05	34.6893
1805.31	33.7254
1805.56	35.6533
1805.81	33.7258
1806.07	33.7264
1806.32	29.8709
1806.58	31.7992
1806.83	34.6922
1807.08	30.8363
1807.34	33.7289
1807.59	32.7639
1807.84	33.7253
1808.1	31.7949
1808.35	27.9376
1808.6	32.7564
1808.86	33.7194
1809.11	34.6834
1809.36	30.8285
1809.62	32.7598
1809.87	34.693
1810.12	35.663
1810.38	35.6659
1810.63	34.7034
1810.88	32.7785
1811.14	34.7162
1811.39	30.8625
1811.64	34.7349
1811.9	33.7775
1812.15	34.7494
1812.4	33.7867
1812.65	37.6542
1812.91	32.8228
1813.16	31.8573
1813.41	35.7242
1813.67	36.6939
1813.92	31.8595
1814.17	33.7912
1814.43	32.8145
1814.68	31.8318
1814.93	36.6541
1815.19	33.7592
1815.44	29.9013
1815.69	31.8421
1815.95	36.6739
1816.2	34.7404
1816.45	35.7092
1816.7	38.613
1816.96	30.8823
1817.21	37.6523
1817.46	30.8878
1817.72	32.8253
1817.97	34.7619
1818.22	34.7648
1818.47	35.7367
1818.73	31.8712
1818.98	37.6812
1819.23	36.7166
1819.49	31.8794
1819.74	32.8485
1819.99	34.7857
1820.24	32.8503
1820.5	35.7518
1820.75	33.8119
1821	32.8396
1821.26	34.7756
1821.51	32.8419
1821.76	32.844
1822.01	37.6869
1822.27	32.8488
1822.52	33.8199
1822.77	30.9156
1823.03	36.7257
1823.28	28.9771
1823.53	28.9774
1823.78	36.7251
1824.04	31.8828
1824.29	34.7904
1824.54	32.8557
1824.79	32.8587
1825.05	36.7365
1825.3	30.9211
1825.55	34.7947
1825.8	37.6955
1826.06	31.8778
1826.31	33.8119
1826.56	33.8102
1826.81	33.8078
1827.07	31.8681
1827.32	34.7675
1827.57	33.7953
1827.82	35.7269
1828.08	31.8556
1828.33	33.7957
1828.58	31.8626
1828.83	32.8348
1829.09	34.7753
1829.34	36.7167
1829.59	35.7523
1829.84	37.698
1830.1	34.7933
1830.35	30.9149
1830.6	36.7312
1830.85	33.8263
1831.11	32.8568
1831.36	33.8277
1831.61	35.7519
1831.86	29.9192
1832.12	32.8089
1832.37	32.7936
1832.62	36.6547
1832.87	34.71
1833.13	32.7761
1833.38	35.6824
1833.63	29.0456
1833.88	31.9079
1834.13	36.7174
1834.39	30.8908
1834.64	33.77
1834.89	32.7801
1835.14	33.712
1835.39	35.6287
1835.65	32.7377
1835.9	30.8599
1836.15	41.5271
1836.4	30.8815
1836.65	37.6671
1836.91	30.8882
1837.16	34.7651
1837.41	34.7286
1837.66	33.7385
1837.92	34.6856
1838.17	34.668
1838.42	31.7527
1838.67	33.6696
1838.92	30.7598
1839.18	32.6779
1839.43	39.4188
1839.68	32.6588
1839.93	32.6626
1840.18	37.4824
1840.43	33.6266
1840.69	28.802
1840.94	34.5879
1841.19	33.6198
1841.44	26.8682
1841.7	32.658
1841.95	31.6913
1842.2	33.6161
1842.45	36.5101
1842.7	35.5494
1842.95	33.6336
1843.2	33.647
1843.46	31.7308
1843.71	33.6721
1843.96	31.7122
1844.21	31.6631
1844.46	31.623
1844.72	34.503
1844.97	32.583
1845.22	34.5252
1845.47	33.5655
1845.72	34.5131
1845.97	32.5811
1846.23	34.5044
1846.48	36.4209
1846.73	32.5602
1846.98	33.5115
1847.23	35.4227
1847.48	35.4099
1847.74	31.5547
1847.99	32.5071
1848.24	31.5388
1848.49	36.3349
1848.74	32.4878
1848.99	33.4445
1849.25	30.562
1849.5	35.3622
1849.75	32.4808
1850	35.3604
1850.25	31.5173
1850.5	29.594
1850.75	33.4292
1851.01	34.3805
1851.26	32.4506
1851.51	38.1938
1851.76	33.3892
1852.01	33.3844
1852.26	34.3358
1852.51	33.3649
1852.76	30.4803
1853.02	33.3492
1853.27	28.5563
1853.52	34.3014
1853.77	37.1745
1854.02	36.215
1854.27	33.3391
1854.52	31.4193
1854.78	36.2025
1855.03	34.2823
1855.28	35.2328
1855.53	35.2245
1855.78	27.5608
1856.03	32.3367
1856.28	37.1095
1856.53	33.2747
1856.79	35.1818
1857.04	34.2257
1857.29	32.3123
1857.54	37.0958
1857.79	32.3214
1858.04	32.3252
1858.29	27.5463
1858.54	32.3352
1858.79	33.2956
1859.04	31.3813
1859.3	36.1624
1859.55	36.155
1859.8	33.2764
1860.05	36.1365
1860.3	29.4347
1860.55	36.1181
1860.8	34.1985
1861.05	38.0131
1861.3	32.2736
1861.56	33.2224
1861.81	33.2155
1862.06	34.1621
1862.31	32.243
1862.56	32.2322
1862.81	33.1741
1863.06	31.2529
1863.31	36.9574
1863.56	36.9406
1863.81	31.211
1864.06	35.9563
1864.32	34.0381
1864.57	33.0736
1864.82	38.7696
1865.07	34.0098
1865.32	30.2028
1865.57	35.9042
1865.82	33.0531
1866.07	34.9555
1866.32	34.9533
1866.57	25.444
1866.82	32.0957
1867.07	32.0931
1867.32	31.1401
1867.57	33.9891
1867.83	32.0863
1868.08	33.9856
1868.33	34.9345
1868.58	33.98
1868.83	34.9252
1869.08	33.018
1869.33	33.0139
1869.58	33.0095
1869.83	33.0017
1870.08	34.8934
1870.33	31.0915
1870.58	33.9376
1870.83	35.8317
1871.08	30.1308
1871.33	32.0217
1871.58	34.8594
1871.84	32.0044
1872.08	32.9434
1872.33	36.725
1872.59	32.9229
1872.84	30.067
1873.09	32.8897
1873.34	31.932
1873.59	31.922
1873.84	32.8603
1874.09	30.0155
1874.34	35.6685
1874.59	33.7527
1874.84	33.7255
1875.09	30.9461
1875.34	30.0833
1875.59	33.8134
1875.84	37.5916
1876.09	33.811
1876.34	29.106
1876.59	30.0586
1876.84	31.9406
1877.09	30.9856
1877.34	31.9306
1877.59	30.0363
1877.84	30.9862
1878.09	32.8723
1878.34	32.8671
1878.59	37.5818
1878.84	29.051
1879.09	35.6518
1879.34	33.7419
1879.59	33.7204
1879.84	33.7
1880.1	33.6856
1880.34	29.9558
1880.59	32.9042
1880.84	34.6552
1881.1	37.4222
1881.34	33.6622
1881.59	30.8411
1881.84	30.8321
1882.1	33.6738
1882.34	33.6864
1882.59	32.7465
1882.85	29.9225
1883.1	34.6547
1883.34	31.828
1883.59	33.7184
1883.85	30.8776
1884.09	33.6977
1884.34	34.633
1884.59	38.3978
1884.84	32.7279
1885.09	30.8325
1885.34	32.707
1885.59	30.8091
1885.84	34.5661
1886.09	29.8454
1886.34	28.8951
1886.59	31.7154
1886.84	36.4194
1887.09	29.8293
1887.34	34.5402
1887.59	33.6063
1887.84	34.5531
1888.09	32.6697
1888.34	37.3755
1888.59	29.8385
1888.84	32.6618
1889.09	35.4838
1889.34	30.7736
1889.59	33.5951
1889.84	35.4717
1890.09	35.4625
1890.34	29.8008
1890.59	36.3652
1890.84	33.5294
1891.09	32.5934
1891.34	30.7086
1891.59	31.6386
1891.84	33.512
1892.09	32.5706
1892.34	27.8738
1892.59	30.6942
1892.83	36.3348
1893.08	31.6394
1893.33	34.4628
1893.58	30.7078
1893.83	35.4143
1894.08	29.7764
1894.33	33.5414
1894.58	38.2465
1894.83	38.2468
1895.08	31.6606
1895.33	35.4196
1895.58	30.7116
1895.83	33.5257
1896.08	32.5765
1896.33	29.7482
1896.58	31.6224
1896.83	33.4975
1897.08	32.5521
1897.32	33.4878
1897.57	31.6078
1897.82	29.7301
1898.07	30.6723
1898.32	31.6174
1898.57	35.3824
1898.82	34.4487
1899.07	36.3353
1899.32	32.5824
1899.57	32.5861
1899.82	32.5838
1900.07	35.402
1900.31	28.8137
1900.57	33.5115
1900.81	31.6275
1901.06	36.326
1901.31	28.8022
1901.56	33.5014
1901.81	35.3795
1902.06	33.4964
1902.31	34.4349
1902.56	29.7332
1902.81	33.4898
1903.06	35.3541
1903.31	31.5878
1903.55	38.1579
1903.8	34.396
1904.05	33.453
1904.3	29.694
1904.55	30.6341
1904.8	35.33
1905.05	32.5187
1905.3	30.6437
1905.55	32.5236
1905.79	34.4042
1906.04	36.2872
1906.29	34.413
1906.54	34.4198
1906.79	34.4283
1907.04	30.6758
1907.29	35.3902
1907.54	33.5195
1907.79	28.8202
1908.04	32.5923
1908.28	33.5378
1908.53	34.4817
1908.78	31.6556
1909.03	31.6542
1909.28	33.534
1909.53	36.3574
1909.78	33.5305
1910.03	37.2973
1910.27	32.5873
1910.52	32.5884
1910.77	33.5365
1911.02	30.7195
1911.27	32.6134
1911.52	32.6189
1911.77	33.5686
1912.02	32.6316
1912.26	33.5805
1912.51	36.4145
1912.76	33.5839
1913.01	38.2994
1913.26	35.4643
1913.51	31.6886
1913.76	31.681
1914	36.3893
1914.25	29.782
1914.5	27.8914
1914.75	36.3729
1915	32.5996
1915.25	29.7727
1915.49	35.4349
1915.74	30.7269
1915.99	28.8479
1916.24	34.5186
1916.49	34.5292
1916.74	30.7665
1916.99	34.5538
1917.23	32.668
1917.48	32.6671
1917.73	34.5501
1917.98	31.7214
1918.23	30.7844
1918.48	33.6279
1918.72	30.7938
1918.97	33.6352
1919.22	29.8529
1919.47	36.4717
1919.72	34.5756
1919.97	38.3508
1920.21	33.6183
1920.46	28.8882
1920.71	28.885
1920.96	33.607
1921.21	31.7108
1921.46	32.6489
1921.7	32.6453
1921.95	33.5888
1922.2	32.6456
1922.45	30.7603
1922.7	34.5476
1922.94	30.7761
1923.19	37.4037
1923.44	34.5747
1923.69	35.5302
1923.94	32.7004
1924.19	34.5989
1924.43	28.9218
1924.68	34.6071
1924.93	33.6634
1925.18	33.6664
1925.43	31.7743
1925.67	31.776
1925.92	34.6225
1926.17	27.9925
1926.42	30.8403
1926.66	36.5359
1926.91	30.8562
1927.16	34.6579
1927.41	36.5656
1927.66	39.421
1927.91	28.9859
1928.15	35.6322
1928.4	34.6822
1928.65	38.4751
1928.9	29.9261
1929.15	31.8194
1929.39	33.7121
1929.64	31.8088
1929.89	35.5987
1930.14	30.8528
1930.38	36.5403
1930.63	28.0064
1930.88	30.8631
1931.13	30.8794
1931.37	34.7022
1931.62	30.9283
1931.87	39.5205
1932.12	37.6422
1932.37	37.6631
1932.61	32.9108
1932.86	32.9122
1933.11	36.7027
1933.36	32.8894
1933.61	34.7916
1933.85	36.6912
1934.1	37.6348
1934.35	34.7679
1934.6	31.9034
1934.84	33.8001
1935.09	34.7449
1935.34	35.6904
1935.59	34.7417
1935.83	32.8478
1936.08	34.7548
1936.33	35.7122
1936.58	35.717
1936.82	30.9579
1937.07	30.9612
1937.32	34.7747
1937.57	34.7831
1937.81	37.6555
1938.06	30.9993
1938.31	33.8692
1938.56	33.8662
1938.8	33.8585
1939.05	31.9355
1939.3	32.8773
1939.55	35.7592
1939.79	37.6977
1940.04	33.882
1940.29	36.7421
1940.54	31.9531
1940.78	36.7086
1941.03	33.8446
1941.28	33.8632
1941.52	31.9594
1941.77	35.785
1942.02	29.1072
1942.27	33.8902
1942.51	33.8979
1942.76	34.861
1943.01	31.9996
1943.26	32.0044
1943.5	31.0517
1943.75	35.8359
1944	30.0977
1944.24	34.8775
1944.49	33.9171
1944.74	33.9137
1944.99	31.0437
1945.23	31.0427
1945.48	31.9971
1945.73	29.1265
1945.97	33.9098
1946.22	34.8721
1946.47	32.9652
1946.71	35.8425
1946.96	34.894
1947.21	34.9043
1947.46	33.0032
1947.7	34.933
1947.95	31.1106
1948.2	35.9173
1948.44	35.931
1948.69	31.1444
1948.94	32.1119
1949.19	30.1966
1949.43	32.1212
1949.68	35.9651
1949.93	38.847
1950.17	32.1298
1950.42	33.092
1950.67	31.1597
1950.91	33.0641
1951.16	39.7585
1951.41	33.9826
1951.65	36.84
1951.9	34.9103
1952.15	35.8639
1952.39	35.8639
1952.64	33.9532
1952.89	33.9636
1953.14	37.8171
1953.38	34.9588
1953.63	28.2496
1953.88	38.8175
1954.12	33.0627
1954.37	31.1484
1954.62	36.9183
1954.86	37.8848
1955.11	32.123
1955.36	35.0084
1955.6	35.01
1955.85	38.854
1956.1	31.16
1956.34	36.9197
1956.59	34.9944
1956.84	34.9908
1957.08	32.1027
1957.33	34.9783
1957.58	34.972
1957.82	34.0049
1958.07	33.0378
1958.31	35.9109
1958.56	33.9858
1958.81	34.943
1959.05	35.9034
1959.3	34.9447
1959.55	39.7444
1959.79	33.0265
1960.04	33.987
1960.29	31.1078
1960.53	34.948
1960.78	31.1086
1961.03	32.0704
1961.27	35.9143
1961.52	34.9555
1961.77	33.0327
1962.01	37.8317
1962.26	32.0696
1962.5	31.1081
1962.75	36.8704
1963	32.0728
1963.24	29.1969
1963.49	34.0068
1963.74	33.0518
1963.98	32.0948
1964.23	32.0961
1964.48	35.9395
1964.72	36.9016
1964.97	35.9424
1965.21	33.0585
1965.46	33.0592
1965.71	33.0566
1965.95	36.8968
1966.2	32.0832
1966.44	34.956
1966.69	34.9435
1966.94	31.0913
1967.18	33.0032
1967.43	33.9558
1967.68	34.9103
1967.92	32.0245
1968.17	32.9788
1968.41	31.056
1968.66	33.9299
1968.91	32.0091
1969.15	40.6455
1969.4	28.1768
1969.64	32.0144
1969.89	35.8497
1970.14	31.0486
1970.38	35.8369
1970.63	36.7869
1970.87	36.7801
1971.12	32.9408
1971.37	34.8548
1971.61	36.7702
1971.86	32.9361
1972.1	31.9784
1972.35	34.8569
1972.6	32.9435
1972.84	32.9478
1973.09	32.9511
1973.33	35.8309
1973.58	35.832
1973.82	31.0359
1974.07	32.9534
1974.32	33.9103
1974.56	35.825
1974.81	31.9835
1975.05	34.8539
1975.3	37.7238
1975.55	33.8839
1975.79	31.0043
1976.04	33.8776
1976.28	31.9604
1976.53	29.0852
1976.77	34.8356
1977.02	31.0023
1977.26	36.7525
1977.51	32.9128
1977.76	30.9891
1978	33.8581
1978.25	29.0646
1978.49	28.1011
1978.74	31.9292
1978.98	35.7576
1979.23	34.7981
1979.48	34.7951
1979.72	35.7451
1979.97	29.0368
1980.21	30.9423
1980.46	28.062
1980.7	35.7095
1980.95	35.7064
1981.19	29.0071
1981.44	29.9596
1981.69	34.7375
1981.93	33.7772
1982.18	31.8571
1982.42	33.7598
1982.67	30.8897
1982.91	30.89
1983.16	33.7595
1983.4	36.6323
1983.65	33.7687
1983.89	37.5941
1984.14	35.6793
1984.38	33.7687
1984.63	40.4504
1984.88	34.7031
1985.12	31.8238
1985.37	32.7653
1985.61	37.5208
1985.86	31.7677
1986.1	34.6061
1986.35	30.7748
1986.59	35.5187
1986.84	32.6525
1987.08	38.3567
1987.33	37.4045
1987.57	32.6502
1987.82	32.665
1988.06	31.7192
1988.31	30.7743
1988.55	39.3629
1988.8	32.7124
1989.04	33.6762
1989.29	34.5983
1989.53	34.5557
1989.78	30.9554
1990.02	34.6237
1990.27	33.6364
1990.52	36.3787
1990.76	30.2675
1991.01	33.5959
1991.25	35.1393
1991.49	35.0523
1991.74	33.6222
1991.99	29.5699
1992.23	33.0048
1992.47	35.9553
1992.72	34.1576
1992.97	33.4622
1993.21	35.8335
1993.45	33.9817
1993.7	37.9708
1993.95	31.8757
1994.19	31.8169
1994.43	37.3939
1994.68	31.6479
1994.93	32.0013
1995.17	33.6167
1995.41	34.2622
1995.66	34.4088
1995.9	34.5074
1996.15	34.0818
1996.39	35.9988
1996.64	35.4587
1996.88	36.4423
1997.13	33.8833
1997.37	32.4362
1997.62	35.5448
1997.86	34.8363
1998.11	34.8726
1998.35	35.5531
1998.6	33.528
1998.84	36.1042
1999.09	33.5489
1999.33	37.3895
1999.57	33.0298
1999.82	34.8024
2000.06	35.5958
2000.31	32.4573
2000.55	35.7024
2000.8	36.6512
2001.04	35.2583
2001.29	32.4989
2001.53	37.2438
2001.78	30.7391
2002.02	36.16
2002.27	33.9686
2002.51	30.4378
2002.75	32.4453
2003	34.8268
2003.24	34.4865
2003.49	34.8234
2003.73	35.5709
2003.98	38.306
2004.22	35.6631
2004.47	32.1772
2004.71	33.3827
2004.95	30.91
2005.2	34.5977
2005.44	33.5693
2005.69	34.598
2005.93	33.5903
2006.18	35.315
2006.42	35.9917
2006.66	36.5325
2006.91	35.8004
2007.15	32.7147
2007.4	33.3977
2007.64	35.8487
2007.89	33.9933
2008.13	33.8252
2008.38	33.5166
2008.62	33.7114
2008.86	33.612
2009.11	33.4068
2009.35	33.3415
2009.6	33.2107
2009.84	35.7181
2010.08	36.5727
2010.33	34.3839
2010.57	35.1953
2010.82	37.2501
2011.06	34.4583
2011.3	31.9509
2011.55	33.5199
2011.79	33.2031
2012.04	34.7133
2012.18	33.0801
2012.43	34.9609
2012.68	37.7831
2012.93	37.7875
2013.17	36.8467
2013.42	37.7869
2013.67	35.9392
2013.91	33.1257
2014.16	34.0636
2014.41	36.8777
2014.66	32.1715
2014.9	33.1008
2015.15	35.9048
2015.4	34.951
2015.64	33.0613
2015.89	34.9247
2016.14	33.973
2016.38	33.9601
2016.63	37.6994
2016.88	36.7574
2017.13	33.0069
2017.37	35.8156
2017.62	33.9405
2017.87	34.8752
2018.11	35.8127
2018.36	33.0049
2018.61	32.0683
2018.86	33.9398
2019.1	31.1269
2019.35	35.8044
2019.6	34.8612
2019.84	34.8526
2020.09	37.6498
2020.34	36.7054
2020.58	32.0204
2020.83	35.7535
2021.08	35.7453
2021.32	36.6726
2021.57	36.6612
2021.82	32.9116
2022.06	34.7678
2022.31	31.0223
2022.56	29.1463
2022.8	37.5347
2023.05	30.0603
2023.3	34.7242
2023.54	32.8696
2023.79	32.8886
2024.04	33.8471
2024.28	33.8752
2024.53	34.83
2024.78	34.8281
2025.02	32.9378
2025.27	34.7769
2025.52	35.6224
2025.76	34.7562
2026.01	31.134
2026.26	32.9603
2026.5	34.8579
2026.75	34.8038
2027	32.8962
2027.24	33.7882
2027.49	38.4513
2027.74	34.6865
2027.98	35.6422
2028.23	33.8004
2028.48	35.6603
2028.72	35.6603
2028.97	35.6596
2029.22	35.6693
2029.46	35.6804
2029.71	37.5612
2029.96	34.7706
2030.2	33.845
2030.45	34.786
2030.69	33.8603
2030.94	36.6747
2031.19	33.8506
2031.43	33.8307
2031.68	33.7931
2031.93	34.7121
2032.17	34.7274
2032.42	33.8045
2032.66	31.9537
2032.91	33.8467
2033.16	38.5411
2033.4	36.6737
2033.65	31.9778
2033.9	33.8453
2034.14	34.7899
2034.39	40.3996
2034.63	32.9174
2034.88	34.7838
2035.13	35.714
2035.37	30.1005
2035.62	34.7682
2035.87	31.9591
2036.11	37.559
2036.36	33.8159
2036.6	34.7436
2036.85	31.9348
2037.1	34.7259
2037.34	34.7159
2037.59	33.7735
2037.83	34.6976
2038.08	33.7573
2038.33	35.6156
2038.57	35.6118
2038.82	39.3383
2039.06	34.6725
2039.31	37.4635
2039.56	35.5925
2039.8	36.5197
2040.05	34.6559
2040.3	34.6579
2040.54	34.6659
2040.79	34.679
2041.03	37.4913
2041.28	32.8336
2041.52	30.9664
2041.77	30.0266
2042.02	40.2692
2042.26	33.7149
2042.51	31.8788
2042.75	33.7615
2043	33.8013
2043.25	32.9209
2043.49	36.6454
2043.74	34.7392
2043.98	31.912
2044.23	36.5766
2044.47	33.7681
2044.72	32.8105
2044.97	33.7324
2045.21	31.8682
2045.46	33.7339
2045.7	37.465
2045.95	35.6035
2046.19	33.7467
2046.44	33.7533
2046.69	35.6285
2046.93	35.6408
2047.18	34.7169
2047.42	31.9241
2047.67	35.6661
2047.91	37.5365
2048.16	32.8633
2048.41	32.8568
2048.65	31.9135
2048.9	35.6465
2049.14	39.3818
2049.39	34.7174
2049.63	31.9172
2049.88	35.6565
2050.12	31.9249
2050.37	32.8651
2050.62	33.8074
2050.86	37.563
2051.11	33.8296
2051.35	35.7049
2051.6	33.8352
2051.84	32.8988
2052.09	31.026
2052.33	31.9594
2052.58	32.8862
2052.82	32.8818
2053.07	35.6849
2053.31	33.8115
2053.56	30.0682
2053.8	34.7392
2054.05	34.7384
2054.3	35.6743
2054.54	35.6766
2054.79	35.6804
2055.03	36.6208
2055.28	35.6902
2055.52	34.7634
2055.77	36.6422
2056.01	34.778
2056.26	34.7835
2056.5	31.0409
2056.75	37.5954
2056.99	36.6606
2057.24	30.1028
2057.48	35.7141
2057.73	33.8369
2057.97	35.7122
2058.22	37.5894
2058.46	35.7208
2058.71	32.9134
2058.95	38.5314
2059.2	29.1692
2059.45	34.7891
2059.69	35.7288
2059.94	34.7967
2060.18	35.7393
2060.43	30.1235
2060.67	40.4352
2060.92	38.5651
2061.16	34.819
2061.4	35.7588
2061.65	33.8874
2061.9	32.9545
2062.14	34.8368
2062.39	33.909
2062.63	37.6718
2062.88	33.9262
2063.12	32.994
2063.37	30.1815
2063.61	33.939
2063.86	35.8198
2064.1	33.9455
2064.34	38.6447
2064.59	37.7098
2064.83	34.8968
2065.08	33.9617
2065.32	31.1455
2065.57	35.8469
2065.81	36.7913
2066.06	33.9724
2066.3	33.0275
2066.55	36.7773
2066.79	31.1255
2067.04	33.9357
2067.28	33.9378
2067.53	32.0711
2067.77	34.9071
2068.02	33.0436
2068.26	39.6279
2068.51	36.7951
2068.75	34.9465
2069	33.0828
2069.24	39.673
2069.48	34.9613
2069.73	33.0765
2069.97	33.0736
2070.22	36.8388
2070.46	35.8953
2070.71	35.896
2070.95	35.897
2071.2	30.249
2071.44	37.7855
2071.69	34.0245
2071.93	34.0328
2072.18	34.0439
2072.42	34.0584
2072.66	34.0757
2072.91	35.032
2073.15	29.3752
2073.4	38.8161
2073.64	33.1532
2073.89	35.0377
2074.13	35.9743
2074.38	34.0789
2074.62	35.0063
2074.87	39.7156
2075.11	36.8899
2075.35	34.0677
2075.6	31.2404
2075.84	34.0732
2076.09	35.0211
2076.33	35.0279
2076.58	37.8781
2076.82	36.9411
2077.06	35.0578
2077.31	41.6771
2077.55	36.9578
2077.8	32.2335
2078.04	34.1196
2078.29	36.0064
2078.53	36.0048
2078.77	37.894
2079.02	38.8364
2079.26	36.0045
2079.51	37.8969
2079.75	34.1189
2080	38.8445
2080.24	36.9536
2080.48	36.9518
2080.73	37.8947
2080.97	29.3898
2081.22	34.1148
2081.46	35.0589
2081.7	38.8389
2081.95	35.0598
2082.19	34.1149
2082.44	35.0593
2082.68	37.8944
2082.93	37.8957
2083.17	35.0688
2083.41	37.9165
2083.66	31.3048
2083.9	33.1996
2084.14	34.1491
2084.39	38.8856
2084.63	34.158
2084.88	35.1042
2085.12	35.1045
2085.36	34.1585
2085.61	35.1062
2085.85	35.1077
2086.1	36.0556
2086.34	37.0071
2086.58	37.0131
2086.83	30.3922
2087.07	32.2901
2087.32	35.1333
2087.56	37.0301
2087.8	31.3484
2088.05	41.7746
2088.29	36.0929
2088.54	37.0443
2088.78	32.3127
2089.02	35.1667
2089.27	34.2289
2089.51	34.2395
2089.75	35.2002
2090	34.2603
2090.24	36.1681
2090.48	36.177
2090.73	33.3348
2090.97	33.3414
2091.22	35.2487
2091.46	35.251
2091.7	36.2016
2091.95	32.3968
2092.19	34.2955
2092.43	36.1907
2092.68	35.2335
2092.92	36.1781
2093.17	37.1235
2093.41	36.1703
2093.65	37.1184
2093.9	37.1167
2094.14	35.2121
2094.38	36.1545
2094.63	35.1972
2094.87	38.0417
2095.11	38.0392
2095.36	34.2404
2095.6	33.2854
2095.84	31.3869
2096.09	36.1314
2096.33	37.0779
2096.57	35.1778
2096.82	34.2277
2097.06	35.1766
2097.3	37.0753
2097.55	32.3315
2097.79	38.9779
2098.03	32.3414
2098.28	41.8438
2098.52	34.251
2098.76	32.3534
2099.01	34.2529
2099.25	36.1511
2099.5	32.3519
2099.74	33.2997
2099.98	32.3446
2100.22	34.2363
2100.47	36.1301
2100.71	35.1798
2100.95	37.0756
2101.2	33.2787
2101.44	38.0275
2101.68	34.2351
2101.93	38.988
2102.17	31.395
2102.41	32.3499
2102.66	38.0576
2102.9	35.2141
2103.14	35.2176
2103.39	33.3198
2103.63	36.1732
2103.87	39.9769
2104.12	36.1771
2104.36	33.3262
2104.6	36.1746
2104.85	34.2665
2105.09	36.1581
2105.33	35.1976
2105.57	35.1878
2105.82	31.3813
2106.06	35.1759
2106.3	36.126
2106.55	38.0334
2106.79	36.1423
2107.03	38.9923
2107.27	36.1421
2107.52	37.0917
2107.76	38.0412
2108	36.141
2108.25	34.2403
2108.49	36.1378
2108.73	33.2832
2108.98	35.1785
2109.22	31.3775
2109.46	39.9234
2109.7	37.0774
2109.95	39.9305
2110.19	35.185
2110.43	34.2426
2110.68	34.2497
2110.92	36.1539
2111.16	34.2512
2111.4	34.2477
2111.65	36.147
2111.89	37.0985
2112.13	38.0496
2112.38	36.1468
2112.62	38.0439
2112.86	37.0903
2113.1	34.2364
2113.35	31.3798
2113.59	30.4234
2113.83	38.967
2114.07	35.166
2114.32	33.265
2114.56	36.1145
2114.8	38.0103
2115.04	33.257
2115.29	37.9973
2115.53	36.0894
2115.77	31.3348
2116.01	37.9665
2116.26	37.9581
2116.5	34.1573
2116.74	33.202
2116.99	35.0909
2117.23	35.0853
2117.47	32.2401
2117.71	31.2929
2117.96	35.0881
2118.2	34.1435
2118.44	36.0463
2118.68	36.0547
2118.92	36.0624
2119.17	36.0696
2119.41	37.0249
2119.65	37.9794
2119.9	32.2893
2120.14	39.8868
2120.38	33.2445
2120.62	37.9926
2120.86	33.243
2121.11	35.1375
2121.35	30.386
2121.59	34.1735
2121.83	37.0053
2122.08	36.0392
2122.32	32.2322
2122.56	33.1679
2122.8	34.1043
2123.04	36.9339
2123.29	32.1916
2123.53	35.023
2123.77	36.9073
2124.01	36.899
2124.26	29.3256
2124.5	37.8322
2124.74	34.0479
2124.98	33.1003
2125.22	35.9323
2125.47	31.203
2125.71	33.0932
2125.95	36.8742
2126.19	33.0916
2126.44	35.924
2126.68	35.9211
2126.92	32.1388
2127.16	34.9719
2127.4	34.0245
2127.65	38.7461
2127.89	34.0179
2128.13	34.9582
2128.37	33.0636
2128.61	34.9468
2128.86	37.7742
2129.1	33.9932
2129.34	34.9333
2129.58	34.9263
2129.82	33.9754
2130.06	34.9151
2130.31	37.7448
2130.55	28.3095
2130.79	32.085
2131.03	34.9161
2131.27	37.7481
2131.52	34.918
2131.76	37.748
2132	32.0841
2132.24	27.3643
2132.48	38.6865
2132.73	31.1339
2132.97	33.0152
2133.21	32.062
2133.45	39.5945
2133.69	36.7596
2133.94	36.7601
2134.18	34.8761
2134.42	32.0479
2134.66	32.9935
2134.9	33.9431
2135.14	32.9985
2135.39	35.8172
2135.63	35.8089
2135.87	35.8133
2136.11	35.8247
2136.35	37.7196
2136.59	34.8751
2136.84	32.9746
2137.08	30.1415
2137.32	33.9051
2137.56	36.7264
2137.8	32.9543
2138.04	35.7767
2138.28	37.6571
2138.53	34.8314
2138.77	36.7082
2139.01	35.7579
2139.25	32.93
2139.49	37.6359
2139.74	36.7007
2139.98	32.9399
2140.22	35.7911
2140.46	36.7237
2140.7	35.6982
2140.94	31.9287
2141.18	33.8152
2141.43	35.7061
2141.67	33.8371
2141.91	36.6661
2142.15	33.8266
2142.39	35.7069
2142.63	33.8282
2142.87	35.7066
2143.12	29.1222
2143.36	34.7597
2143.6	36.6365
2143.84	34.7533
2144.08	37.569
2144.32	32.8649
2144.56	35.6788
2144.8	32.8555
2145.05	26.2761
2145.29	35.6652
2145.53	37.5389
2145.77	35.6556
2146.01	30.0164
2146.25	31.8874
2146.49	36.572
2146.73	37.4946
2146.98	33.7338
2147.22	37.4746
2147.46	36.5289
2147.7	31.8379
2147.94	32.7739
2148.18	34.6507
2148.42	34.6562
2148.66	32.784
2148.9	37.4778
2149.15	31.8527
2149.39	34.6716
2149.63	33.7281
2149.87	33.7231
2150.11	36.5291
2150.35	31.8354
2150.59	35.5815
2150.83	31.8292
2151.07	31.8235
2151.31	33.6893
2151.56	29.9315
2151.8	35.535
2152.04	33.6493
2152.28	33.6332
2152.52	36.4272
2152.76	32.6767
2153	37.3403
2153.24	36.3982
2153.48	35.4595
2153.72	30.7867
2153.97	29.8513
2154.21	32.6533
2154.45	32.6551
2154.69	38.2651
2154.93	35.4682
2155.17	35.4739
2155.41	34.5404
2155.65	36.4093
2155.89	35.4727
2156.13	36.4039
2156.37	34.53
2156.61	32.6554
2156.86	29.8461
2157.1	34.508
2157.34	33.5651
2157.58	27.9564
2157.82	34.4834
2158.06	32.6125
2158.3	36.3429
2158.54	34.4732
2158.78	35.4022
2159.02	34.4675
2159.26	27.9365
2159.5	33.5337
2159.74	32.5999
2159.98	34.4626
2160.22	33.5248
2160.47	37.2511
2160.71	35.3818
2160.95	31.6479
2161.19	33.5084
2161.43	31.637
2161.67	37.2192
2161.91	36.2807
2162.15	37.2127
2162.39	32.5573
2162.63	32.5573
2162.87	39.0804
2163.11	37.2167
2163.35	32.5535
2163.59	34.4128
2163.83	33.4758
2164.07	36.2629
2164.31	33.4633
2164.55	32.5244
2164.79	29.7222
2165.03	37.1501
2165.27	32.4835
2165.51	33.407
2165.76	34.3352
2166	39.9148
2166.24	35.2704
2166.48	36.207
2166.72	33.4257
2166.96	30.645
2167.2	36.2421
2167.44	32.5256
2167.68	35.3222
2167.92	35.3198
2168.16	34.3817
2168.4	30.654
2168.64	37.1563
2168.88	35.2706
2169.12	37.1154
2169.36	35.2487
2169.6	32.4543
2169.84	36.166
2170.08	38.0224
2170.32	35.2341
2170.56	34.3041
2170.8	35.2351
2171.04	36.1684
2171.28	36.1715
2171.52	32.4553
2171.76	35.2436
2172	37.1018
2172.24	32.4539
2172.48	38.9567
2172.72	33.3781
2172.96	33.3765
2173.2	34.3036
2173.44	32.4423
2173.68	35.2235
2173.92	38.0075
2174.16	34.2914
2174.4	36.1498
2174.64	32.4343
2174.88	32.433
2175.12	37.0791
2175.36	36.1467
2175.6	37.0652
2175.84	28.7007
2176.08	36.1268
2176.32	34.2711
2176.56	35.1997
2176.8	31.4857
2177.04	33.3422
2177.28	34.2701
2177.52	35.1973
2177.76	35.1947
2178	34.2635
2178.24	37.0472
2178.48	31.475
2178.72	35.1835
2178.96	35.1789
2179.2	35.1769
2179.44	32.3881
2179.68	35.1679
2179.92	33.3091
2180.16	34.2297
2180.4	34.2219
2180.64	35.1384
2180.88	34.2035
2181.12	36.0512
2181.35	29.5591
2181.59	33.2634
2181.83	36.9702
2182.07	35.1201
2182.31	37.9027
2182.55	36.0515
2182.79	36.0555
2183.03	36.061
2183.27	36.0674
2183.51	31.4359
2183.75	33.2997
2183.99	34.2374
2184.23	35.1754
2184.47	35.1853
2184.71	35.1929
2184.95	36.1237
2185.19	34.2623
2185.43	37.9703
2185.67	37.0342
2185.91	37.9541
2186.15	36.0887
2186.38	37.934
2186.62	36.0664
2186.86	35.1284
2187.1	35.1233
2187.34	34.1941
2187.58	32.3406
2187.82	32.3426
2188.06	35.1268
2188.3	36.0534
2188.54	38.8368
2188.78	29.5666
2189.02	32.3511
2189.26	32.3536
2189.5	35.1385
2189.74	29.5755
2189.97	36.0743
2190.21	37.9364
2190.45	36.0859
2190.69	36.0935
2190.93	34.2505
2191.17	30.5503
2191.41	33.3487
2191.65	33.3545
2191.89	36.1419
2192.13	32.4189
2192.37	35.2037
2192.61	38.9152
2192.85	37.0483
2193.08	29.6069
2193.32	37.953
2193.56	32.3709
2193.8	34.2184
2194.04	39.7783
2194.28	36.0606
2194.52	33.2722
2194.76	34.1991
2195	34.1999
2195.24	36.0582
2195.47	35.1383
2195.71	33.2907
2195.95	37.9422
2196.19	33.3113
2196.43	33.3209
2196.67	36.1192
2196.91	35.2013
2197.15	34.2873
2197.39	35.2361
2197.63	34.3214
2197.86	34.3351
2198.1	36.2086
2198.34	32.4895
2198.58	29.6826
2198.82	35.2367
2199.06	31.4492
2199.3	34.1836
2199.54	37.9119
2199.78	36.1186
2200.01	33.3587
2200.25	37.0687
2200.49	36.1308
2200.73	36.152
2200.97	33.4797
2201.21	32.5032
2201.45	37.1611
2201.69	35.304
2201.92	39.0083
2202.16	35.2482
2202.4	35.2196
2202.64	34.2688
2202.88	35.1927
2203.12	35.1926
2203.36	28.6907
2203.59	36.1327
2203.83	34.2585
2204.07	36.1195
2204.31	35.1947
2204.55	34.2708
2204.79	35.2077
2205.03	34.2846
2205.27	36.1529
2205.5	36.1599
2205.74	34.3043
2205.98	37.1024
2206.22	35.2435
2206.46	38.9707
2206.7	34.3142
2206.93	34.3129
2207.17	32.4509
2207.41	38.0434
2207.65	34.3222
2207.89	30.6004
2208.13	33.4007
2208.37	36.2016
2208.6	30.6141
2208.84	33.4175
2209.08	34.3572
2209.32	36.2276
2209.56	34.3647
2209.8	31.5638
2210.03	32.493
2210.27	34.3547
2210.51	34.3493
2210.75	36.2071
2210.99	36.2084
2211.23	36.2151
2211.47	32.4974
2211.7	34.3772
2211.94	34.3806
2212.18	31.5828
2212.42	35.3189
2212.66	34.3866
2212.89	35.3208
2213.13	38.1218
2213.37	32.519
2213.61	33.4515
2213.85	34.3833
2214.09	29.7137
2214.32	34.3811
2214.56	30.6476
2214.8	30.6487
2215.04	36.2504
2215.28	36.2496
2215.51	34.3834
2215.75	37.1878
2215.99	29.7212
2216.23	31.5943
2216.47	35.337
2216.71	28.8001
2216.94	35.3448
2217.18	32.5445
2217.42	32.5436
2217.66	31.6072
2217.9	36.2784
2218.13	36.2747
2218.37	30.6606
2218.61	37.1899
2218.85	34.3799
2219.08	39.0411
2219.32	30.6343
2219.56	34.3668
2219.8	37.1694
2220.04	35.3071
2220.27	35.3121
2220.51	29.7138
2220.75	29.7205
2220.99	33.4667
2221.23	34.4115
2221.46	34.4212
2221.7	34.4295
2221.94	33.5014
2222.18	33.5083
2222.42	37.2601
2222.65	34.4617
2222.89	33.5329
2223.13	30.7296
2223.37	35.4203
2223.6	27.9295
2223.84	38.2445
2224.08	33.5647
2224.32	34.5074
2224.55	33.5737
2224.79	33.5757
2225.03	33.5748
2225.27	31.6966
2225.5	29.8187
2225.74	33.5666
2225.98	35.4396
2226.22	35.4374
2226.46	35.437
2226.69	36.38
2226.93	35.4513
2227.17	31.7072
2227.41	36.4041
2227.64	34.5338
2227.88	34.5406
2228.12	27.9755
2228.36	32.6773
2228.59	37.3817
2228.83	33.6306
2229.07	32.6973
2229.31	30.8236
2229.54	36.4701
2229.78	30.8348
2230.02	30.8403
2230.26	31.7863
2230.49	31.7918
2230.73	31.7975
2230.97	36.5077
2231.21	30.8639
2231.44	34.6271
2231.68	35.5652
2231.92	31.7965
2232.16	37.436
2232.39	36.4822
2232.63	37.4127
2232.87	33.6514
2233.11	33.6526
2233.34	29.8923
2233.58	32.7152
2233.82	32.7163
2234.05	35.5396
2234.29	32.725
2234.53	34.6138
2234.77	29.9195
2235	34.6407
2235.24	36.5381
2235.48	36.5481
2235.72	38.443
2235.95	33.7394
2236.19	34.6946
2236.43	29.9801
2236.66	32.8074
2236.9	37.5189
2237.14	34.6796
2237.37	34.6706
2237.61	33.7235
2237.85	34.6794
2238.09	30.9197
2238.32	33.7519
2238.56	33.7538
2238.8	31.8689
2239.04	29.0396
2239.27	31.8731
2239.51	29.9885
2239.75	29.0479
2239.98	33.7688
2240.22	31.8791
2240.46	33.7627
2240.69	29.9821
2240.93	36.5854
2241.17	34.6966
2241.4	36.5849
2241.64	31.8707
2241.88	34.7121
2242.11	30.0031
2242.35	35.6833
2242.59	32.8562
2242.83	33.8077
2243.06	37.5967
2243.3	38.55
2243.54	31.935
2243.77	30.046
2244.01	32.8887
2244.25	30.0545
2244.48	33.843
2244.72	31.005
2244.96	33.8437
2245.19	35.7346
2245.43	32.893
2245.67	32.8907
2245.91	29.1036
2246.14	34.7789
2246.38	30.9925
2246.61	31.9436
2246.85	36.6799
2247.09	31.947
2247.32	35.7283
2247.56	34.775
2247.8	32.8756
2248.03	37.5964
2248.27	30.0243
2248.51	40.4199
2248.74	31.9085
2248.98	31.9093
2249.22	30.9669
2249.45	33.8086
2249.69	30.9773
2249.93	33.8255
2250.16	28.1628
2250.4	33.8563
2250.64	32.9187
2250.87	31.9787
2251.11	34.8279
2251.35	33.8863
2251.58	32.9426
2251.82	32.9431
2252.06	31.9917
2252.29	34.8372
2252.53	32.941
2252.77	30.0972
2253	31.9948
2253.24	34.845
2253.48	32.0056
2253.71	29.1646
2253.95	32.0159
2254.18	32.9701
2254.42	31.0767
2254.66	31.0813
2254.89	31.0845
2255.13	33.9349
2255.37	29.1878
2255.6	30.1392
2255.84	31.0916
2256.08	33.9456
2256.31	30.15
2256.55	29.2025
2256.78	31.1053
2257.02	33.9598
2257.26	33.9632
2257.49	33.9663
2257.73	33.9693
2257.96	31.1216
2258.2	32.0823
2258.44	34.9431
2258.67	28.2846
2258.91	30.189
2259.15	30.1913
2259.38	28.2902
2259.62	29.2457
2259.85	34.9638
2260.09	33.0668
2260.33	30.2178
2260.56	28.3211
2260.8	32.1434
2261.03	32.1558
2261.27	29.306
2261.51	31.2245
2261.74	31.2334
2261.98	31.2407
2262.21	30.2919
2262.45	36.9833
2262.69	36.0293
2262.92	34.12
2263.16	28.386
2263.39	32.1996
2263.63	34.1013
2263.87	32.1835
2264.1	34.0848
2264.34	29.3079
2264.57	31.2114
2264.81	31.2062
2265.05	34.0601
2265.28	32.1469
2265.52	33.0981
2265.75	28.3312
2265.99	28.3348
2266.22	32.1559
2266.46	30.256
2266.7	31.2187
2266.93	32.1825
2267.17	33.1485
2267.4	35.0696
2267.64	35.0762
2267.87	27.4349
2268.11	33.176
2268.35	33.1817
2268.58	31.2734
2268.82	35.1028
2269.05	35.1094
2269.29	31.2863
2269.53	31.2867
2269.76	32.2446
2270	36.0732
2270.23	33.2046
2270.47	33.2061
2270.7	30.3368
2270.94	31.2952
2271.18	34.1678
2271.41	33.212
2271.65	31.2992
2271.88	28.4289
2272.12	31.3026
2272.35	30.3467
2272.59	28.4336
2272.82	27.4749
2273.06	27.4786
2273.3	30.3583
2273.53	35.1559
2273.77	30.3721
2274	34.2119
2274.24	32.3019
2274.47	33.2713
2274.71	28.4865
2274.94	36.1757
2275.18	36.1913
2275.41	29.4741
2275.65	28.5156
2275.88	33.318
2276.12	32.3561
2276.36	28.5123
2276.59	29.4673
2276.83	33.2927
2277.06	31.3637
2277.3	25.5994
2277.53	30.3883
2277.77	34.2174
2278	27.5011
2278.24	31.3327
2278.47	31.3284
2278.71	33.2418
2278.94	31.3282
2279.18	27.4957
2279.41	32.2932
2279.65	35.1762
2279.89	31.3475
2280.12	27.5168
2280.36	30.4035
2280.59	31.3752
2280.83	31.3897
2281.06	31.4028
2281.3	29.4945
2281.53	30.464
2281.77	32.3909
2282	31.4361
2282.24	31.443
2282.47	29.5205
2282.71	33.3708
2282.94	31.4392
2283.18	32.3886
2283.41	31.4254
2283.65	32.3894
2283.88	29.5082
2284.12	28.5592
2284.35	31.4589
2284.59	31.4635
2284.82	27.6139
2285.06	31.4752
2285.29	28.5825
2285.53	32.4309
2285.76	32.4257
2286	33.3826
2286.23	31.4469
2286.47	28.5479
2286.7	30.4619
2286.94	29.4871
2287.17	28.5212
2287.41	30.4406
2287.64	28.5178
2287.88	29.4794
2288.11	29.4834
2288.35	30.4527
2288.58	36.2354
2288.82	32.3941
2289.05	31.437
2289.28	33.3676
2289.52	33.3738
2289.75	30.4921
2289.99	33.3887
2290.22	30.5038
2290.46	32.4355
2290.69	33.4027
2290.93	26.6575
2291.16	32.4379
2291.4	34.3612
2291.63	28.5744
2291.87	32.4221
2292.1	30.4907
2292.34	26.6338
2292.57	33.3704
2292.81	31.4398
2293.04	28.5476
2293.28	34.3157
2293.51	29.4907
2293.74	31.4128
2293.98	31.4151
2294.21	30.457
2294.45	30.4625
2294.68	29.5064
2294.92	29.5144
2295.15	29.5243
2295.39	26.6399
2295.62	30.4982
2295.86	33.3957
2296.09	30.5116
2296.32	34.3755
2296.56	27.6295
2296.79	27.6321
2297.03	30.5252
2297.26	31.4898
2297.5	27.6302
2297.73	30.5273
2297.97	28.6025
2298.2	27.6409
2298.43	34.4
2298.67	31.5064
2298.9	29.5763
2299.14	31.5056
2299.37	29.5721
2299.61	29.5697
2299.84	28.605
2300.07	34.3949
2300.31	29.5673
2300.54	28.6014
2300.78	31.4969
2301.01	31.4997
2301.25	29.5742
2301.48	31.5097
2301.71	31.513
2301.95	28.6199
2302.18	33.4549
2302.42	27.662
2302.65	29.5954
2302.89	27.6651
2303.12	27.6683
2303.35	28.6379
2303.59	30.572
2303.82	35.4052
2304.05	29.6051
2304.29	34.4366
2304.52	29.6008
2304.76	28.6305
2304.99	28.628
2305.23	31.5236
2305.46	28.6223
2305.69	28.622
2305.93	30.5553
2306.16	30.5596
2306.4	30.5646
2306.63	34.4389
2306.86	27.6803
2307.1	32.5223
2307.33	30.5905
2307.57	30.5911
2307.8	29.6225
2308.03	26.7172
2308.27	29.6119
2308.5	35.3938
2308.74	32.4728
2308.97	30.5299
2309.2	29.5565
2309.44	29.5518
2309.67	28.5812
2309.91	31.4718
2310.14	32.4359
2310.37	29.5445
2310.61	32.4491
2310.84	33.4272
2311.07	31.5049
2311.31	27.6489
2311.54	31.5234
2311.78	30.5681
2312.01	31.5455
2312.24	30.5832
2312.48	27.6731
2312.71	29.5998
2312.94	31.527
2313.18	29.5852
2313.41	28.6026
2313.65	28.5941
2313.88	30.5209
2314.11	25.692
2314.35	29.5556
2314.58	31.4883
2314.81	29.5646
2315.05	31.5019
2315.28	31.4908
2315.51	29.5539
2315.75	31.4807
2315.98	33.4062
2316.22	28.5741
2316.45	29.5346
2316.68	31.461
2316.92	32.4233
2317.15	31.4582
2317.38	26.634
2317.62	27.5984
2317.85	25.6707
2318.08	29.535
2318.32	29.5397
2318.55	27.6138
2318.78	29.5511
2319.02	29.5592
2319.25	30.5346
2319.48	25.7091
2319.72	29.5783
2319.95	36.3435
2320.19	29.5777
2320.42	28.6128
2320.65	31.5148
2320.89	31.5167
2321.12	28.6164
2321.35	28.6149
2321.58	31.5139
2321.82	27.6391
2322.05	30.5293
2322.28	29.552
2322.52	33.408
2322.75	31.4698
2322.98	31.4632
2323.22	27.5953
2323.45	31.4491
2323.68	29.5123
2323.92	29.5055
2324.15	36.2496
2324.38	30.4559
2324.62	31.415
2324.85	34.3011
2325.08	35.2606
2325.32	30.4428
2325.55	37.1897
2325.78	34.2986
2326.02	37.1824
2326.25	36.2113
2326.48	40.0543
2326.71	41.0134
2326.95	42.9375
2327.18	48.7225
2327.41	54.4979
2327.65	62.1981
2327.88	67.9703
2328.11	72.7828
2328.35	50.6369
2328.58	49.6809
2328.81	41.9819
2329.05	40.0646
2329.28	39.0897
2329.51	33.3025
2329.75	41.0017
2329.98	37.144
2330.21	30.3992
2330.44	28.4697
2330.68	28.4661
2330.91	33.2755
2331.14	25.5717
2331.38	30.3779
2331.61	28.4457
2331.84	32.2882
2332.07	25.5527
2332.31	31.3214
2332.54	33.2425
2332.77	28.4352
2333	34.2073
2333.24	27.4739
2333.47	30.3554
2333.7	30.3531
2333.94	29.3899
2334.17	32.2728
2334.4	28.4251
2334.63	28.4235
2334.87	29.3821
2335.1	31.3021
2335.33	31.3004
2335.56	30.3373
2335.8	31.2972
2336.03	30.3369
2336.26	34.1821
2336.5	32.2592
2336.73	31.2966
2336.96	29.3715
2337.19	31.2895
2337.43	28.4013
2337.66	32.2387
2337.89	31.2707
2338.12	28.3809
2338.36	27.4114
2338.59	29.3196
2338.82	28.3515
2339.05	30.2641
2339.29	32.1765
2339.52	32.1712
2339.75	36.9606
2339.98	29.2891
2340.22	27.371
2340.45	29.2881
2340.68	27.3693
2340.91	29.2848
2341.15	28.3264
2341.38	28.328
2341.61	31.2046
2341.84	29.286
2342.08	27.3666
2342.31	26.4048
2342.54	34.0667
2342.77	32.1412
2343.01	29.2612
2343.24	28.2976
2343.47	33.0835
2343.7	28.2932
2343.93	33.0793
2344.17	34.9909
2344.4	30.2008
2344.63	32.1146
2344.86	30.2002
2345.1	30.2018
2345.33	28.2899
2345.56	26.3764
2345.79	33.0797
2346.03	27.3306
2346.26	29.2405
2346.49	29.2275
2346.72	27.3013
2346.95	28.2432
2347.19	29.1815
2347.42	26.295
2347.65	28.1672
2347.88	30.0095
2348.12	29.1058
2348.35	28.2501
2348.58	29.2354
2348.81	32.9952
2349.04	29.141
2349.28	31.0527
2349.51	28.1924
2349.74	30.0824
2349.97	30.0543
2350.2	29.0801
2350.44	30.9932
2350.67	30.0373
2350.9	31.9359
2351.13	27.1739
2351.36	27.1724
2351.6	31.9425
2351.83	29.0908
2352.06	29.0895
2352.29	30.0401
2352.52	27.1788
2352.76	30.9864
2352.99	30.9824
2353.22	26.2147
2353.45	30.0141
2353.68	30.9509
2353.92	29.0363
2354.15	27.1279
2354.38	28.0737
2354.61	30.921
2354.84	29.9654
2355.07	23.3074
2355.31	28.0565
2355.54	29.9544
2355.77	27.0973
2356	29.9442
2356.23	29.9417
2356.46	31.8394
2356.7	28.0359
2356.93	28.9803
2357.16	28.9736
2357.39	28.0173
2357.62	28.9593
2357.86	24.2084
2358.09	27.0479
2358.32	29.8858
2358.55	30.826
2358.78	31.7657
2359.01	28.9141
2359.25	27.9582
2359.48	27.9504
2359.71	27.9437
2359.94	24.1509
2360.17	26.9857
2360.4	26.9811
2360.63	25.085
2360.87	28.8664
2361.1	28.8626
2361.33	26.9662
2361.56	27.9074
2361.79	29.7942
2362.02	26.9541
2362.26	26.9485
2362.49	28.8329
2362.72	31.653
2362.95	27.8567
2363.18	29.7305
2363.41	27.8392
2363.64	29.7246
2363.88	26.8955
2364.11	25.963
2364.34	28.8122
2364.57	24.0996
2364.8	25.0419
