#Acq. time (s)=	30
#Accumulations=	2
#Range (cm-¹)=	1200...2365
#Windows=	3
#Auto scanning=	Off
#Autofocus=	Off
#Macrospot=	Off
#AutoExposure=	Off
#Spike filter=	Multiple accum.
#Delay time (s)=	2
#Binning=	1
#Readout mode=	Signal
#DeNoise=	Off
#ICS correction=	On
#Dark correction=	Off
#Inst. Process=	Off
#Detector Gain=	Best Dynamic
#Detector ADC=	50 kHz HS
#Detector temperature (°C)=	-60.09
#Instrument=	LabRAM HR Evol
#Detector=	SIN-EM FIVIS
#Objective=	x50_VIS_LWD
#Grating=	1800 (450-850nm)
#ND Filter=	100%
#Laser=	532nm_Edge
#Hole=	49.98
#Temperature=	0
#Range=	Visible
#StageXY=	75x50mm Scan+
#StageZ=	Z motor
#X (µm)=	0
#Y (µm)=	0
#Z (µm)=	1.4
#Full time(mm:ss)=	3:22
#Project=	21_11_26
#Sample=	BU19(2)w
#Site=	
#Title=	BU19(2)w-A-FF2b-FI01-V_1800 (450-850nm)_532nm_Edge_100%_x50_VIS_LWD_H50um_30sX2
#Remark=	
#Date=	26.11.2021 14:41
#Acquired=	26.11.2021 14:41:45
1202.72	45.7053
1203	45.7698
1203.28	41.474
1203.56	44.6778
1203.84	41.4143
1204.11	41.3928
1204.39	45.6747
1204.67	38.1504
1204.95	49.9795
1205.23	42.4438
1205.5	46.724
1205.78	46.7031
1206.06	44.5326
1206.34	38.0713
1206.61	43.4146
1206.89	42.3204
1207.17	48.728
1207.45	39.0674
1207.73	47.6225
1208	43.3271
1208.28	45.4592
1208.56	37.9569
1208.84	42.2234
1209.11	45.4189
1209.39	40.059
1209.67	42.1908
1209.95	45.3949
1210.23	37.9059
1210.5	44.3095
1210.78	45.3578
1211.06	38.9303
1211.34	43.1865
1211.61	38.8997
1211.89	38.8864
1212.17	47.4008
1212.45	44.1828
1212.72	44.1691
1213	47.351
1213.28	42.0095
1213.56	44.1293
1213.83	39.8629
1214.11	39.8528
1214.39	41.9822
1214.67	41.9821
1214.94	40.9163
1215.22	41.979
1215.5	37.7172
1215.78	40.9073
1216.05	40.9023
1216.33	39.826
1216.61	41.9378
1216.89	36.6012
1217.16	44.0255
1217.44	41.8851
1217.72	43.996
1218	39.7336
1218.27	37.5992
1218.55	38.6506
1218.83	46.0699
1219.1	42.8793
1219.38	41.8135
1219.66	40.7469
1219.94	37.5576
1220.21	41.792
1220.49	38.607
1220.77	41.7874
1221.04	42.8441
1221.32	42.8381
1221.6	39.6479
1221.88	47.0598
1222.15	41.7455
1222.43	42.7869
1222.71	40.6478
1222.98	41.6841
1223.26	44.8362
1223.54	40.5846
1223.81	35.2813
1224.09	34.2106
1224.37	37.3655
1224.65	37.3546
1224.92	39.4573
1225.2	39.4503
1225.48	37.3363
1225.76	39.4507
1226.03	39.4532
1226.31	43.6805
1226.59	37.341
1226.86	36.2808
1227.14	42.6059
1227.42	32.0426
1227.69	40.4634
1227.97	41.4766
1228.25	40.3966
1228.52	39.3192
1228.8	36.1251
1229.08	37.1466
1229.35	37.142
1229.63	40.3925
1229.91	41.5327
1230.18	44.6555
1230.46	36.1827
1230.74	40.381
1231.01	40.3838
1231.29	40.3583
1231.57	39.2264
1231.84	46.5878
1232.12	43.4328
1232.4	37.1249
1232.67	43.4227
1232.95	42.3694
1233.23	36.0618
1233.5	36.0566
1233.78	41.3063
1234.06	43.4079
1234.33	42.3595
1234.61	46.5649
1234.89	38.1633
1235.16	41.321
1235.44	41.3227
1235.71	40.2737
1235.99	40.277
1236.27	38.1758
1236.54	41.3277
1236.82	42.3721
1237.1	36.0571
1237.37	40.251
1237.65	39.1852
1237.93	32.8685
1238.2	39.1537
1238.48	41.2366
1238.76	44.3671
1239.03	41.2069
1239.31	40.1495
1239.58	41.1907
1239.86	42.233
1240.14	38.0357
1240.41	45.3701
1240.69	41.1754
1240.97	47.4642
1241.24	44.3202
1241.52	34.8854
1241.79	41.1699
1242.07	42.2087
1242.35	45.3459
1242.62	42.2013
1242.9	39.0583
1243.18	44.3029
1243.45	46.4037
1243.73	43.2566
1244	42.207
1244.28	39.0632
1244.56	39.061
1244.83	40.1051
1245.11	47.4365
1245.39	46.3766
1245.66	44.2679
1245.94	47.3927
1246.21	44.2343
1246.49	42.1328
1246.76	47.3614
1247.04	40.0328
1247.32	44.2172
1247.59	43.1652
1247.87	47.349
1248.14	53.6211
1248.42	55.6917
1248.7	47.312
1248.97	49.3997
1249.25	45.2174
1249.52	48.3571
1249.8	46.2603
1250.08	49.3948
1250.35	46.256
1250.63	48.3359
1250.9	43.0947
1251.18	51.4447
1251.45	45.1631
1251.73	45.1534
1252.01	48.2777
1252.28	45.134
1252.56	50.345
1252.83	45.1138
1253.11	45.1025
1253.39	40.9178
1253.66	53.4341
1253.94	46.1281
1254.21	46.1339
1254.49	46.141
1254.76	43.0171
1255.04	49.2843
1255.31	46.15
1255.59	48.2406
1255.87	45.1061
1256.14	45.1022
1256.42	49.2797
1256.69	48.2376
1256.97	57.6435
1257.24	56.6001
1257.52	58.6845
1257.79	59.7187
1258.07	56.579
1258.35	62.838
1258.62	51.3461
1258.9	60.7344
1259.17	59.6746
1259.45	59.6715
1259.72	56.5453
1260	57.596
1260.27	63.8846
1260.55	59.6899
1260.82	76.3759
1261.1	70.0855
1261.37	75.2829
1261.65	90.9153
1261.92	89.8832
1262.2	98.315
1262.48	102.624
1262.75	116.288
1263.02	130.718
1263.3	123.256
1263.58	127.369
1263.85	120.186
1264.13	117.143
1264.4	102.614
1264.68	81.7431
1264.95	75.4175
1265.23	76.4424
1265.5	67.0343
1265.78	67.0268
1266.05	67.0129
1266.33	58.652
1266.6	54.4748
1266.88	60.751
1267.15	56.5797
1267.43	59.7278
1267.7	58.6964
1267.98	55.5737
1268.25	53.4975
1268.53	57.7074
1268.8	57.7269
1269.08	52.4992
1269.35	51.4585
1269.63	57.7501
1269.9	55.6495
1270.18	50.398
1270.45	60.8527
1270.73	60.8381
1271	59.7749
1271.28	58.7164
1271.55	61.8502
1271.83	56.6086
1272.1	51.3793
1272.38	59.7628
1272.65	50.3557
1272.93	54.5629
1273.2	60.8612
1273.47	58.7799
1273.75	48.3124
1274.03	56.7112
1274.3	60.9195
1274.57	54.6346
1274.85	60.9293
1275.12	60.9252
1275.4	53.5814
1275.67	55.6838
1275.95	59.8881
1276.22	57.7983
1276.5	59.91
1276.77	63.0689
1277.05	59.9294
1277.32	56.7857
1277.6	60.9999
1277.87	63.1147
1278.14	65.2301
1278.42	69.4463
1278.69	63.1496
1278.97	83.1477
1279.24	83.1596
1279.52	82.1198
1279.79	89.4772
1280.07	102.091
1280.34	104.18
1280.61	136.778
1280.89	151.512
1281.16	189.393
1281.44	250.463
1281.71	317.899
1281.99	456.887
1282.26	607.398
1282.53	848.523
1282.81	1086.56
1283.08	1376.91
1283.36	1618.22
1283.63	1535.86
1283.91	1291.51
1284.18	920.541
1284.45	630.852
1284.73	409.859
1285	294.021
1285.28	213.933
1285.55	167.486
1285.83	135.842
1286.1	118.997
1286.37	110.597
1286.65	95.8513
1286.92	87.4087
1287.2	81.0887
1287.47	84.2405
1287.75	75.8053
1288.02	78.9478
1288.29	69.4664
1288.57	72.6212
1288.84	65.2549
1289.12	68.4155
1289.39	63.1611
1289.66	53.6956
1289.94	65.2871
1290.21	67.4057
1290.49	65.3091
1290.76	60.0402
1291.03	60.032
1291.31	54.7609
1291.58	57.9181
1291.86	63.182
1292.13	58.9654
1292.4	55.8048
1292.68	53.7003
1292.95	56.8552
1293.22	56.8492
1293.5	54.7442
1293.77	50.5465
1294.05	45.2962
1294.32	57.967
1294.59	55.8632
1294.87	50.5891
1295.14	54.8018
1295.42	49.537
1295.69	49.5565
1295.96	48.5266
1296.24	46.4472
1296.51	49.6357
1296.79	49.6394
1297.06	53.8673
1297.33	48.5753
1297.61	49.622
1297.88	54.8928
1298.15	46.4285
1298.43	46.4146
1298.7	48.5308
1298.97	52.7495
1299.25	48.5157
1299.52	52.7304
1299.79	49.5536
1300.07	51.6626
1300.34	52.726
1300.62	47.4506
1300.89	48.5063
1301.16	43.2232
1301.44	46.3875
1301.71	44.2765
1301.98	44.2825
1302.25	49.569
1302.53	49.5717
1302.8	47.459
1303.08	45.3442
1303.35	45.3396
1303.62	44.2769
1303.9	43.2113
1304.17	48.4878
1304.44	42.1517
1304.72	47.43
1304.99	40.0362
1305.26	50.5878
1305.54	45.2992
1305.81	41.0656
1306.08	39.9996
1306.35	45.2627
1306.63	46.3068
1306.9	46.3011
1307.18	48.4086
1307.45	42.0832
1307.72	50.5208
1308	45.2449
1308.27	45.243
1308.54	43.1343
1308.81	47.349
1309.09	47.3501
1309.36	42.0813
1309.63	45.2511
1309.91	45.2562
1310.18	41.0375
1310.45	42.0902
1310.73	45.2517
1311	37.8633
1311.27	46.3059
1311.55	39.9746
1311.82	47.3629
1312.09	38.9211
1312.37	44.2048
1312.64	41.0423
1312.91	42.0995
1313.18	41.0402
1313.46	44.1992
1313.73	43.1404
1314	39.9681
1314.28	42.0746
1314.55	46.2951
1314.82	34.6849
1315.09	36.7982
1315.37	45.2479
1315.64	46.3078
1315.91	38.9197
1316.18	37.8671
1316.46	45.2572
1316.73	45.2527
1317	43.1371
1317.28	39.9661
1317.55	47.3569
1317.82	47.3622
1318.09	42.0837
1318.37	35.7466
1318.64	38.9158
1318.91	41.028
1319.18	43.1396
1319.46	39.9674
1319.73	36.795
1320	44.1866
1320.28	41.0187
1320.55	36.7919
1320.82	37.8447
1321.09	44.175
1321.37	36.7713
1321.64	42.0378
1321.91	44.1336
1322.18	38.8479
1322.46	38.8352
1322.73	44.1021
1323	38.8212
1323.27	40.9227
1323.55	40.9131
1323.82	44.0795
1324.09	43.0255
1324.36	39.8612
1324.64	41.9673
1324.91	47.2386
1325.18	35.637
1325.45	40.9102
1325.73	40.898
1326	44.039
1326.27	45.065
1326.54	36.6117
1326.81	41.8597
1327.09	45.011
1327.36	41.8675
1327.63	40.8408
1327.9	39.8004
1328.18	39.8131
1328.45	46.1525
1328.72	40.896
1328.99	36.6877
1329.27	46.1853
1329.54	38.7933
1329.81	40.906
1330.08	37.7376
1330.35	43.0075
1330.63	41.9455
1330.9	38.7723
1331.17	39.8157
1331.44	40.8561
1331.71	40.8384
1331.99	38.7123
1332.26	47.1198
1332.53	37.6321
1332.8	41.8278
1333.07	41.8116
1333.35	38.6404
1333.62	43.8817
1333.89	42.8158
1334.16	45.9534
1334.43	40.6876
1334.71	38.5752
1334.98	35.4149
1335.25	33.3067
1335.52	35.3971
1335.79	34.3396
1336.07	41.6743
1336.34	39.5681
1336.61	40.6091
1336.88	43.7474
1337.15	36.4022
1337.43	43.7348
1337.7	38.4887
1337.97	41.6269
1338.24	42.6626
1338.51	44.7461
1338.78	43.6905
1339.06	43.6816
1339.33	37.3925
1339.6	35.2956
1339.87	38.4367
1340.14	41.5788
1340.42	46.8141
1340.69	42.6254
1340.96	35.2942
1341.23	40.5282
1341.5	38.4303
1341.77	36.3316
1342.04	42.6081
1342.32	34.2246
1342.59	40.4953
1342.86	38.3901
1343.13	40.4704
1343.4	45.6929
1343.67	45.6878
1343.95	43.5929
1344.22	42.5451
1344.49	37.315
1344.76	41.4969
1345.03	39.3999
1345.3	38.3461
1345.58	40.4264
1345.85	38.3218
1346.12	42.4894
1346.39	42.4732
1346.66	40.3623
1346.93	36.1732
1347.2	42.4201
1347.47	40.3192
1347.75	40.3062
1348.02	43.4245
1348.29	37.1632
1348.56	41.3273
1348.83	37.1539
1349.1	36.1044
1349.37	46.5141
1349.65	43.3784
1349.92	39.203
1350.19	43.3591
1350.46	39.1855
1350.73	39.1765
1351	41.2464
1351.27	43.3149
1351.54	41.2257
1351.81	43.2932
1352.09	45.3679
1352.36	44.3257
1352.63	38.0896
1352.9	43.2972
1353.17	40.1876
1353.44	38.1111
1353.71	40.2255
1353.98	42.347
1354.25	39.1804
1354.53	42.2389
1354.8	46.349
1355.07	38.0403
1355.34	34.9245
1355.61	40.1043
1355.88	43.2109
1356.15	41.1464
1356.42	40.109
1356.69	44.2538
1356.96	47.3638
1357.24	42.1651
1357.51	45.2747
1357.78	43.1904
1358.05	43.1819
1358.32	45.2488
1358.59	40.0497
1358.86	42.1165
1359.13	42.1061
1359.4	42.0963
1359.67	38.9771
1359.94	42.0814
1360.22	39.9953
1360.49	42.0544
1360.76	42.0409
1361.03	47.2109
1361.3	42.0262
1361.57	40.988
1361.84	43.0564
1362.11	47.1953
1362.38	44.0811
1362.65	52.3588
1362.92	45.1041
1363.19	47.1717
1363.46	48.2085
1363.73	51.3222
1364	43.0411
1364.28	50.2961
1364.55	54.4375
1364.82	46.1457
1365.09	49.2462
1365.36	52.3422
1365.63	47.1524
1365.9	53.3497
1366.17	52.301
1366.44	47.1146
1366.71	52.2734
1366.98	52.2565
1367.25	51.2029
1367.52	52.2267
1367.79	53.2534
1368.06	56.3596
1368.33	54.2951
1368.6	68.7688
1368.87	107.021
1369.15	131.838
1369.41	97.7282
1369.68	69.8155
1369.95	55.3311
1370.23	53.2556
1370.5	55.3151
1370.77	47.032
1371.04	54.2569
1371.31	49.0799
1371.58	46.9988
1371.85	58.3381
1372.12	50.0569
1372.39	41.7828
1372.66	47.954
1372.93	55.1566
1373.2	49.9913
1373.47	58.2285
1373.74	48.9444
1374.01	54.09
1374.28	54.0837
1374.55	61.2904
1374.82	50.9823
1375.09	58.1878
1375.36	48.9085
1375.63	59.2097
1375.9	61.276
1376.17	47.8805
1376.44	55.0934
1376.71	60.2275
1376.98	51.973
1377.25	59.1597
1377.52	62.2202
1377.79	63.2557
1378.06	54.0062
1378.33	60.205
1378.6	64.3547
1378.87	55.1113
1379.14	58.2122
1379.41	63.3634
1379.68	60.2608
1379.95	67.4654
1380.22	72.6022
1380.49	71.5391
1380.76	69.4208
1381.03	77.617
1381.3	71.4159
1381.57	72.4548
1381.84	84.7738
1382.11	88.8437
1382.38	87.7703
1382.65	93.893
1382.92	94.8836
1383.19	103.054
1383.46	114.308
1383.73	115.298
1384	147.062
1384.27	156.267
1384.54	180.877
1384.81	218.829
1385.08	276.297
1385.34	355.359
1385.61	489.93
1385.88	682.011
1386.15	1071.28
1386.42	1724.5
1386.69	2644.07
1386.96	3505.08
1387.23	3413.61
1387.5	2368.16
1387.77	1371
1388.04	782.717
1388.31	509.38
1388.58	347.281
1388.85	248.411
1389.12	189.201
1389.39	169.811
1389.66	140.046
1389.93	127.739
1390.2	106.136
1390.46	105.026
1390.73	90.63
1391	96.7775
1391.27	92.6365
1391.54	82.3783
1391.81	80.3196
1392.08	81.3241
1392.35	66.9614
1392.62	75.1372
1392.89	71.0273
1393.16	62.8259
1393.43	60.7698
1393.7	56.6679
1393.97	57.6845
1394.23	59.7249
1394.5	63.8123
1394.77	59.7138
1395.04	61.7563
1395.31	57.6683
1395.58	57.6765
1395.85	53.5876
1396.12	55.636
1396.39	58.7035
1396.66	59.7205
1396.93	50.501
1397.2	52.5395
1397.46	58.6665
1397.73	47.4019
1398	53.5326
1398.27	56.599
1398.54	49.4412
1398.81	56.6066
1399.08	56.6091
1399.35	50.4718
1399.62	56.6189
1399.89	51.5065
1400.16	54.5806
1400.42	44.3434
1400.69	52.5375
1400.96	53.5734
1401.23	47.434
1401.5	57.6708
1401.77	54.6039
1402.04	55.6261
1402.31	49.4969
1402.58	50.549
1402.84	56.7331
1403.11	52.6525
1403.38	56.774
1403.65	52.6749
1403.92	55.7538
1404.19	60.8729
1404.46	64.9401
1404.73	64.9484
1404.99	59.8115
1405.26	61.8544
1405.53	69.0214
1405.8	78.236
1406.07	74.1196
1406.34	88.4577
1406.61	92.547
1406.87	103.812
1407.14	116.116
1407.41	130.474
1407.68	160.213
1407.95	185.852
1408.22	198.166
1408.49	215.607
1408.76	207.415
1409.02	182.818
1409.29	158.22
1409.56	130.539
1409.83	110.033
1410.1	91.5731
1410.37	75.1589
1410.63	72.0657
1410.9	60.7654
1411.17	59.7198
1411.44	51.5059
1411.71	47.3969
1411.98	50.4626
1412.25	44.3125
1412.51	46.3666
1412.78	39.2044
1413.05	46.407
1413.32	48.5157
1413.59	44.4349
1413.86	47.4784
1414.12	45.3626
1414.39	45.3714
1414.66	43.3486
1414.93	41.3144
1415.2	39.2569
1415.47	39.2569
1415.73	35.1489
1416	42.3355
1416.27	39.2572
1416.54	43.367
1416.81	38.2349
1417.07	43.3731
1417.34	41.3225
1417.61	40.2987
1417.88	32.0819
1418.15	40.3026
1418.42	40.302
1418.68	37.2194
1418.95	38.2475
1419.22	39.2742
1419.49	34.135
1419.76	32.0745
1420.02	40.2863
1420.29	36.1676
1420.56	39.2404
1420.83	44.3649
1421.1	42.3004
1421.36	40.2381
1421.63	38.1802
1421.9	38.1811
1422.17	36.1367
1422.44	36.1477
1422.7	41.2958
1422.97	35.1495
1423.24	38.2656
1423.51	41.3881
1423.77	38.2044
1424.04	38.1209
1424.31	44.2829
1424.58	38.0908
1424.85	35.016
1425.11	37.0746
1425.38	39.1507
1425.65	37.1031
1425.92	31.9686
1426.19	31.9786
1426.45	35.0521
1426.72	35.0442
1426.99	39.135
1427.26	38.0974
1427.52	37.0597
1427.79	39.0915
1428.06	30.8842
1428.33	34.9732
1428.59	35.9933
1428.86	34.9685
1429.13	26.7775
1429.4	37.0189
1429.67	33.9493
1429.93	37.0263
1430.2	38.0576
1430.47	31.9176
1430.74	29.8731
1431	35.0079
1431.27	32.9707
1431.54	34.0072
1431.81	32.9854
1432.07	41.1951
1432.34	31.9501
1432.61	29.8889
1432.87	41.1667
1433.14	36.0249
1433.41	30.8839
1433.68	34.9676
1433.95	27.7817
1434.21	33.9176
1434.48	34.9365
1434.75	35.9763
1435.01	29.8346
1435.28	28.8097
1435.55	31.8826
1435.82	30.8557
1436.08	31.8774
1436.35	30.8492
1436.62	34.9438
1436.89	31.8656
1437.15	32.8853
1437.42	28.7837
1437.69	31.8542
1437.95	31.849
1438.22	26.7253
1438.49	30.8219
1438.76	28.7767
1439.02	27.7535
1439.29	34.9243
1439.56	27.753
1439.82	30.8301
1440.09	30.8359
1440.36	32.8939
1440.63	32.8967
1440.89	29.8211
1441.16	32.8965
1441.43	27.7693
1441.69	33.9183
1441.96	30.8352
1442.23	33.9065
1442.49	29.8106
1442.76	33.9117
1443.03	30.8403
1443.3	27.7582
1443.56	32.8785
1443.83	31.847
1444.1	29.7919
1444.36	30.8144
1444.63	29.7897
1444.9	30.8226
1445.16	27.7518
1445.43	28.7857
1445.7	31.8596
1445.97	30.8291
1446.23	29.7991
1446.5	26.7178
1446.77	23.6373
1447.03	27.7361
1447.3	28.7578
1447.57	28.7533
1447.83	33.8744
1448.1	33.8694
1448.37	33.8677
1448.63	29.7709
1448.9	29.7764
1449.17	28.7511
1449.43	29.7749
1449.7	31.8219
1449.97	28.7398
1450.23	27.7081
1450.5	28.7269
1450.77	29.7479
1451.03	32.8189
1451.3	27.6902
1451.57	28.711
1451.83	27.6818
1452.1	27.6775
1452.37	29.7228
1452.63	30.7445
1452.9	32.7925
1453.17	26.6452
1453.43	26.6468
1453.7	26.648
1453.97	27.6715
1454.23	30.7423
1454.5	27.6649
1454.77	27.6633
1455.03	27.6619
1455.3	24.5854
1455.56	26.6315
1455.83	25.6059
1456.1	30.7332
1456.36	29.7098
1456.63	26.6334
1456.9	29.7041
1457.16	26.6232
1457.43	23.5436
1457.7	28.6625
1457.96	22.5126
1458.23	27.632
1458.49	25.5818
1458.76	24.5565
1459.03	25.5809
1459.29	27.6297
1459.56	26.6047
1459.82	27.6283
1460.09	28.6502
1460.36	31.7203
1460.62	25.5698
1460.89	28.6391
1461.16	25.5616
1461.42	24.5324
1461.69	27.5995
1461.95	26.5699
1462.22	24.5164
1462.49	26.5571
1462.75	27.5732
1463.02	25.5192
1463.28	21.42
1463.55	23.4582
1463.82	27.5411
1464.08	27.5385
1464.35	30.6141
1464.61	25.5114
1464.88	26.543
1465.15	27.5786
1465.41	26.5316
1465.68	25.458
1465.94	25.4345
1466.21	30.5328
1466.48	27.4786
1466.74	26.4536
1467.01	26.4399
1467.27	27.4547
1467.54	26.4357
1467.8	26.4324
1468.07	21.3282
1468.34	28.4661
1468.6	27.444
1468.87	25.4017
1469.13	24.3786
1469.4	26.4142
1469.67	31.5081
1469.93	25.3828
1470.2	27.4136
1470.46	27.4065
1470.73	24.344
1470.99	26.3772
1471.26	22.2983
1471.53	28.4056
1471.79	24.3241
1472.06	25.3374
1472.32	26.3522
1472.59	24.313
1472.85	24.3107
1473.12	25.3266
1473.39	20.2323
1473.65	25.3175
1473.92	25.3119
1474.18	23.2717
1474.45	30.3918
1474.71	25.3019
1474.98	22.2495
1475.24	30.392
1475.51	27.3373
1475.78	22.2458
1476.04	27.3307
1476.31	23.2549
1476.57	20.1984
1476.84	25.2819
1477.1	28.3278
1477.37	22.2189
1477.63	21.1983
1477.9	24.2468
1478.16	26.2784
1478.43	26.2736
1478.69	26.2666
1478.96	27.2774
1479.22	26.2553
1479.49	19.1357
1479.76	22.1782
1480.02	22.1715
1480.29	26.2271
1480.55	23.17
1480.82	20.1166
1481.08	20.1107
1481.35	26.1949
1481.61	23.1452
1481.88	30.2477
1482.14	23.1482
1482.41	19.0914
1482.67	26.1998
1482.94	23.1568
1483.2	24.1703
1483.47	25.1873
1483.73	23.1565
1484	24.1704
1484.26	25.1834
1484.53	21.1109
1484.79	22.1112
1485.06	24.1112
1485.32	25.0871
1485.59	24.061
1485.85	25.0505
1486.12	24.0972
1486.38	24.1028
1486.65	26.1385
1486.91	23.0695
1487.18	27.1334
1487.44	24.0959
1487.71	26.1129
1487.97	22.0535
1488.24	24.0741
1488.5	24.0683
1488.77	21.024
1489.03	23.0411
1489.3	27.0826
1489.56	25.0542
1489.83	24.0386
1490.09	24.0352
1490.36	24.0334
1490.62	23.0198
1490.89	28.0728
1491.15	20.986
1491.42	20.98
1491.68	20.9762
1491.95	20.9735
1492.21	21.9828
1492.48	21.9823
1492.74	19.9578
1493	25.0099
1493.27	23.9964
1493.53	26.0166
1493.8	23.9913
1494.06	22.9779
1494.33	24.9983
1494.59	23.9875
1494.86	24.999
1495.12	24.9964
1495.39	17.9149
1495.65	24.9811
1495.92	23.9598
1496.18	24.9607
1496.45	22.9348
1496.71	22.9299
1496.97	24.9441
1497.24	21.911
1497.5	25.9462
1497.77	25.9444
1498.03	24.9319
1498.3	23.9205
1498.56	23.9191
1498.82	22.9088
1499.09	19.8802
1499.35	26.9447
1499.62	29.973
1499.88	23.9174
1500.15	25.9371
1500.41	23.9173
1500.68	25.9346
1500.94	23.913
1501.2	22.901
1501.47	21.8874
1501.73	22.8904
1502	22.8872
1502.26	20.8666
1502.52	22.8823
1502.79	27.9234
1503.05	24.8891
1503.32	21.8564
1503.58	19.8351
1503.85	20.8379
1504.11	26.886
1504.37	18.8199
1504.64	23.8614
1504.9	25.8769
1505.17	22.8488
1505.43	20.828
1505.7	25.8637
1505.96	24.8465
1506.22	23.8279
1506.49	24.832
1506.75	24.8296
1507.02	21.8067
1507.28	19.7932
1507.54	26.846
1507.81	20.7995
1508.07	23.8207
1508.34	30.8708
1508.6	27.8446
1508.86	22.8056
1509.13	24.8202
1509.39	21.796
1509.66	22.8016
1509.92	23.8075
1510.18	22.801
1510.45	23.8088
1510.71	21.787
1510.98	27.8254
1511.24	22.781
1511.5	24.7864
1511.77	22.7611
1512.03	23.7526
1512.29	20.7213
1512.56	19.7036
1512.82	27.7296
1513.08	23.703
1513.35	25.7038
1513.61	20.6774
1513.88	24.6892
1514.14	21.6816
1514.4	26.7112
1514.67	22.6942
1514.93	25.7031
1515.2	17.6616
1515.46	23.6784
1515.72	19.6556
1515.99	22.6576
1516.25	24.6549
1516.51	24.6477
1516.78	19.6295
1517.04	25.6425
1517.3	28.647
1517.57	21.6262
1517.83	23.6302
1518.09	24.6332
1518.36	23.6334
1518.62	28.6479
1518.88	23.6334
1519.15	20.624
1519.41	21.6275
1519.67	26.644
1519.94	26.6438
1520.2	25.6382
1520.47	22.6245
1520.73	18.6087
1520.99	18.6082
1521.26	23.625
1521.52	23.6257
1521.78	21.6181
1522.05	20.6122
1522.31	23.6184
1522.57	22.6108
1522.84	22.6063
1523.1	25.611
1523.36	19.5881
1523.62	25.595
1523.89	25.5826
1524.15	27.5774
1524.41	22.5614
1524.68	26.5614
1524.94	23.5514
1525.2	24.5541
1525.47	24.5537
1525.73	26.556
1525.99	20.5486
1526.26	26.5622
1526.52	21.5576
1526.78	23.5654
1527.05	19.5562
1527.31	20.5564
1527.57	20.5516
1527.84	21.5507
1528.1	21.5471
1528.36	23.5476
1528.63	22.5411
1528.89	28.5476
1529.15	21.5313
1529.41	22.5302
1529.68	23.5297
1529.94	20.5217
1530.2	22.5193
1530.47	20.5139
1530.73	23.5187
1530.99	26.5273
1531.25	22.5239
1531.52	24.5301
1531.78	20.5208
1532.04	21.5197
1532.31	19.5147
1532.57	21.514
1532.83	21.5151
1533.09	22.522
1533.36	21.5264
1533.62	24.5409
1533.88	21.5338
1534.15	20.5309
1534.41	24.5417
1534.67	25.5417
1534.94	24.5349
1535.2	22.5246
1535.46	27.535
1535.72	25.5225
1535.99	19.4944
1536.25	20.4881
1536.51	19.4798
1536.77	24.4773
1537.04	25.4668
1537.3	24.4556
1537.56	19.448
1537.82	24.4426
1538.09	22.4408
1538.35	25.4343
1538.61	24.4244
1538.87	23.4205
1539.14	21.4174
1539.4	23.4217
1539.66	26.4357
1539.92	22.4503
1540.19	24.4641
1540.45	24.4736
1540.71	20.4736
1540.97	24.489
1541.24	22.4847
1541.5	22.4729
1541.76	23.4725
1542.02	24.4661
1542.29	21.4523
1542.55	24.4497
1542.81	17.4318
1543.07	27.4372
1543.34	22.4244
1543.6	27.4202
1543.86	24.408
1544.12	20.3973
1544.39	25.3971
1544.65	26.3972
1544.91	25.4011
1545.17	24.4071
1545.43	22.4095
1545.7	20.415
1545.96	24.4242
1546.22	20.4195
1546.48	22.4238
1546.74	21.4191
1547.01	21.4185
1547.27	25.4269
1547.53	25.4286
1547.79	27.434
1548.06	24.4204
1548.32	21.4011
1548.58	24.4034
1548.84	22.4004
1549.1	21.4043
1549.37	22.3819
1549.63	24.3546
1549.89	25.3467
1550.15	21.36
1550.42	21.3827
1550.68	24.4241
1550.94	21.4403
1551.2	21.4614
1551.46	23.452
1551.73	22.4488
1551.99	24.4501
1552.25	20.4258
1552.51	23.4463
1552.77	22.4506
1553.03	22.4458
1553.3	26.4533
1553.56	20.4112
1553.82	22.4123
1554.08	20.4024
1554.34	23.4049
1554.61	23.396
1554.87	23.3859
1555.13	30.3886
1555.39	21.3669
1555.65	24.3688
1555.91	26.3705
1556.18	21.3617
1556.44	25.3675
1556.7	25.3617
1556.96	25.3604
1557.22	23.3571
1557.48	18.3481
1557.75	19.3486
1558.01	22.351
1558.27	24.348
1558.53	21.3343
1558.79	18.3238
1559.06	22.3179
1559.32	22.3089
1559.58	24.3009
1559.84	22.2938
1560.1	19.2888
1560.36	23.2824
1560.63	22.2786
1560.89	21.2756
1561.15	22.2719
1561.41	22.27
1561.67	23.2695
1561.93	25.2716
1562.19	25.2774
1562.46	27.2842
1562.72	22.2821
1562.98	18.2788
1563.24	26.2757
1563.5	21.2751
1563.76	23.2711
1564.02	24.2679
1564.29	18.2739
1564.55	20.2814
1564.81	23.2849
1565.07	26.2836
1565.33	24.2657
1565.59	24.218
1565.85	24.1528
1566.11	28.0972
1566.38	27.2207
1566.64	20.254
1566.9	21.2404
1567.16	20.2246
1567.42	26.2391
1567.68	21.2598
1567.94	26.2543
1568.2	21.2347
1568.47	21.2359
1568.73	22.2374
1568.99	24.2374
1569.25	22.2335
1569.51	18.2249
1569.77	21.2168
1570.03	24.2132
1570.29	21.2155
1570.55	26.2114
1570.82	26.2101
1571.08	24.2091
1571.34	22.2076
1571.6	23.203
1571.86	19.2009
1572.12	23.1912
1572.38	25.1866
1572.64	23.1839
1572.9	19.183
1573.17	22.1736
1573.43	21.1702
1573.69	19.1684
1573.95	21.1597
1574.21	23.1546
1574.47	22.1593
1574.73	19.168
1574.99	18.1727
1575.25	25.1686
1575.51	23.1752
1575.78	24.1775
1576.04	25.1765
1576.3	23.1743
1576.56	25.1707
1576.82	23.1676
1577.08	24.1569
1577.34	22.1481
1577.6	24.134
1577.86	20.1321
1578.12	18.1284
1578.38	23.1066
1578.64	22.1033
1578.9	24.094
1579.17	23.0952
1579.43	22.0964
1579.69	22.0949
1579.95	23.0917
1580.21	21.0994
1580.47	23.0938
1580.73	24.0899
1580.99	25.0843
1581.25	18.1
1581.51	25.0735
1581.77	21.0812
1582.03	19.0817
1582.29	21.0682
1582.55	24.0537
1582.81	23.054
1583.07	21.058
1583.33	25.0394
1583.59	22.0487
1583.85	18.0623
1584.11	24.0342
1584.38	18.0569
1584.64	27.0211
1584.9	21.0449
1585.16	21.0442
1585.42	24.0306
1585.68	21.0393
1585.94	23.0291
1586.2	20.0372
1586.46	22.0218
1586.72	25.0005
1586.98	23.0034
1587.24	21.0081
1587.5	20.0089
1587.76	23.9852
1588.02	20.0025
1588.28	20.996
1588.54	25.9712
1588.8	25.9727
1589.06	14.0321
1589.32	26.9723
1589.58	21.0013
1589.84	17.0194
1590.1	25.9791
1590.36	22.9905
1590.62	23.9866
1590.88	21.0005
1591.14	19.0091
1591.4	21.9945
1591.66	20.0009
1591.92	28.96
1592.18	23.9766
1592.44	22.9736
1592.7	24.9543
1592.96	21.9615
1593.22	17.9769
1593.48	20.9511
1593.74	24.9164
1594	24.9035
1594.26	22.9081
1594.52	19.9233
1594.78	21.9081
1595.04	22.9027
1595.3	23.8996
1595.56	23.9014
1595.82	19.925
1596.08	24.8795
1596.34	23.884
1596.6	24.8755
1596.86	21.8944
1597.12	18.9138
1597.38	22.8869
1597.64	22.8875
1597.9	20.901
1598.16	21.8922
1598.42	16.9213
1598.68	21.8822
1598.94	22.8669
1599.2	24.8445
1599.46	22.8528
1599.72	24.8315
1599.98	27.8018
1600.24	20.8509
1600.5	26.7966
1600.76	25.7976
1601.02	21.8234
1601.28	20.8231
1601.54	16.8507
1601.8	21.7951
1602.06	25.7477
1602.32	19.8002
1602.58	24.7433
1602.84	26.7149
1603.1	26.7062
1603.36	20.7633
1603.62	21.7463
1603.88	17.7863
1604.14	19.7604
1604.4	22.7244
1604.66	22.7231
1604.92	24.6997
1605.17	23.7095
1605.43	24.6972
1605.69	22.7189
1605.95	24.6971
1606.21	21.7315
1606.47	23.7112
1606.73	21.7344
1606.99	24.7033
1607.25	19.7693
1607.51	24.6309
1607.77	20.7184
1608.03	18.8872
1608.29	18.0539
1608.55	24.6746
1608.81	25.4405
1609.07	22.0017
1609.32	22.8002
1609.58	21.8669
1609.84	24.3917
1610.1	25.4113
1610.36	22.759
1610.62	23.4044
1610.88	25.1729
1611.14	20.9868
1611.4	20.8827
1611.66	25.0117
1611.92	22.2891
1612.18	22.4713
1612.44	22.6781
1612.69	22.0809
1612.95	22.42
1613.21	21.7023
1613.47	23.6287
1613.73	24.0425
1613.99	20.1216
1614.25	22.1949
1614.51	22.4412
1614.77	23.9926
1615.03	24.3304
1615.29	20.6689
1615.54	21.3434
1615.8	22.6011
1616.06	19.1287
1616.32	20.6363
1616.58	22.3165
1616.84	22.7945
1617.1	22.8676
1617.36	20.8191
1617.62	21.5751
1617.88	20.2528
1618.13	22.2051
1618.39	23.0333
1618.65	21.2672
1618.91	23.0802
1619.17	23.8212
1619.43	25.9449
1619.69	24.1128
1619.95	24.9773
1620.2	23.028
1620.46	23.0012
1620.72	23.1982
1620.98	23.4559
1621.24	22.2611
1621.5	22.4672
1621.76	23.7869
1622.02	24.1764
1622.27	21.8871
1622.53	21.3096
1622.79	23.019
1623.05	21.9507
1623.31	21.4833
1623.57	21.1487
1623.83	22.1398
1624.09	22.8058
1624.34	23.2694
1624.6	22.3442
1624.86	21.3857
1625.12	22.2983
1625.38	22.9792
1625.64	22.2237
1625.9	21.4889
1626.15	21.421
1626.41	19.762
1626.67	21.5739
1626.93	22.5121
1627.19	20.5233
1627.45	22.1206
1627.7	22.5403
1627.96	22.4313
1628.22	21.6172
1628.48	22.043
1628.74	21.9073
1629	21.1216
1629.26	22.0807
1629.51	22.5704
1629.77	21.4207
1630.03	20.3166
1630.29	20.1797
1630.55	21.9381
1630.81	23.5828
1631.06	23.7945
1631.32	24.1101
1631.53	22.5962
1631.79	22.598
1632.05	24.5713
1632.31	23.5884
1632.57	20.6293
1632.84	22.6048
1633.1	20.6417
1633.36	24.5769
1633.62	20.6217
1633.88	22.5887
1634.14	21.6048
1634.4	21.6066
1634.66	17.6636
1634.93	23.5767
1635.19	25.5463
1635.45	22.5869
1635.71	21.5986
1635.97	23.5665
1636.23	26.5189
1636.49	22.5732
1636.75	22.569
1637.02	21.5796
1637.28	22.5597
1637.54	25.5085
1637.8	20.5816
1638.06	21.5641
1638.32	22.5453
1638.58	22.5416
1638.84	21.5542
1639.1	24.506
1639.37	22.5359
1639.63	22.5342
1639.89	24.5013
1640.15	23.5151
1640.41	23.5128
1640.67	21.5434
1640.93	22.5304
1641.19	25.4858
1641.46	20.5618
1641.72	21.5436
1641.98	25.4781
1642.24	21.537
1642.5	19.5656
1642.76	20.5477
1643.02	22.5141
1643.28	19.5589
1643.54	22.5099
1643.8	22.5079
1644.06	26.4414
1644.33	20.5326
1644.59	21.512
1644.85	25.4431
1645.11	18.5544
1645.37	26.4251
1645.63	22.4911
1645.89	22.4913
1646.15	22.4901
1646.41	20.5185
1646.67	22.4824
1646.93	24.4463
1647.19	23.4596
1647.46	23.4558
1647.72	21.4848
1647.98	23.4483
1648.24	22.463
1648.5	19.512
1648.76	22.4646
1649.02	20.4997
1649.28	23.461
1649.54	19.5258
1649.8	19.5223
1650.06	20.5031
1650.32	28.376
1650.58	25.4289
1650.85	23.4637
1651.11	21.4963
1651.37	22.484
1651.63	24.4561
1651.89	21.4996
1652.15	22.4837
1652.41	20.5114
1652.67	20.5107
1652.93	20.5073
1653.19	25.4299
1653.45	24.4419
1653.71	22.47
1653.97	17.5431
1654.23	25.4264
1654.49	19.5138
1654.75	20.4986
1655.01	23.4552
1655.27	21.4852
1655.53	21.4879
1655.8	19.5199
1656.06	20.5117
1656.32	20.5149
1656.57	20.5165
1656.84	21.5039
1657.1	26.439
1657.36	23.4756
1657.62	24.4592
1657.88	22.4813
1658.14	21.4915
1658.4	23.4621
1658.66	20.4982
1658.92	22.467
1659.18	22.4624
1659.44	21.4715
1659.7	23.4392
1659.96	18.5045
1660.22	23.428
1660.48	18.4992
1660.74	23.4298
1661	23.4319
1661.26	24.4208
1661.52	23.4372
1661.78	19.4936
1662.04	22.4541
1662.3	19.4936
1662.56	22.4332
1662.82	22.4724
1663.08	20.5155
1663.34	25.4451
1663.6	24.4526
1663.86	17.5291
1664.12	24.3952
1664.38	21.4576
1664.64	22.4484
1664.9	22.4489
1665.16	24.4339
1665.42	20.4849
1665.68	24.4103
1665.94	18.4705
1666.2	25.4346
1666.46	20.4941
1666.72	23.4569
1666.98	23.4238
1667.24	21.3839
1667.5	23.4172
1667.76	24.3978
1668.02	23.4056
1668.28	20.4417
1668.54	25.3697
1668.8	23.3957
1669.06	20.4433
1669.32	19.4653
1669.58	22.429
1669.84	21.4402
1670.1	25.3907
1670.36	23.4113
1670.62	20.4468
1670.88	23.4201
1671.14	24.4147
1671.4	24.4108
1671.66	23.4192
1671.92	21.44
1672.18	20.4511
1672.44	21.4398
1672.69	22.4275
1672.95	22.4259
1673.21	21.4358
1673.47	23.412
1673.73	23.4115
1673.99	21.4343
1674.25	23.4125
1674.51	22.4252
1674.77	24.4045
1675.03	21.4386
1675.29	20.4516
1675.55	23.4217
1675.81	27.3807
1676.07	21.4419
1676.33	19.4608
1676.59	21.4393
1676.85	24.408
1677.11	22.4277
1677.37	22.4259
1677.63	23.4129
1677.89	19.451
1678.14	20.4364
1678.4	24.3881
1678.66	19.4363
1678.92	23.3869
1679.18	21.4049
1679.44	21.4009
1679.7	20.4091
1679.96	24.3594
1680.22	21.3905
1680.48	22.3757
1680.74	21.3838
1681	23.3564
1681.26	17.425
1681.52	20.3865
1681.78	19.3968
1682.03	20.383
1682.29	22.3573
1682.55	21.3681
1682.81	21.367
1683.07	18.401
1683.33	20.3747
1683.59	22.3487
1683.85	24.323
1684.11	19.3816
1684.37	25.3056
1684.63	25.3004
1684.89	19.3715
1685.14	22.3316
1685.4	22.3294
1685.66	23.3149
1685.92	20.3509
1686.18	19.3621
1686.44	25.286
1686.7	20.3486
1686.96	22.3267
1687.22	20.3516
1687.48	22.3264
1687.73	22.3233
1687.99	23.307
1688.25	24.2905
1688.51	22.3118
1688.77	21.3205
1689.03	17.367
1689.29	23.2843
1689.55	19.3314
1689.81	23.2735
1690.06	22.2811
1690.32	23.2611
1690.58	22.2719
1690.84	21.2889
1691.1	21.2901
1691.36	19.317
1691.62	20.3032
1691.88	22.2775
1692.13	18.3301
1692.39	22.2765
1692.65	21.2869
1692.91	18.3221
1693.17	23.2501
1693.43	25.2162
1693.69	24.222
1693.95	22.2419
1694.2	23.2217
1694.46	23.2158
1694.72	22.2244
1694.98	23.2048
1695.24	20.2479
1695.5	19.2625
1695.76	22.2174
1696.01	23.2024
1696.27	21.2319
1696.53	19.2624
1696.79	20.2481
1697.05	21.2319
1697.31	24.1848
1697.57	23.1937
1697.82	21.2165
1698.08	22.1943
1698.34	21.2038
1698.6	24.1517
1698.86	20.2097
1699.12	22.1736
1699.38	20.2026
1699.63	27.0882
1699.89	19.2161
1700.15	23.1509
1700.41	23.1497
1700.67	19.2087
1700.92	18.2226
1701.18	19.204
1701.44	20.1852
1701.7	22.1492
1701.96	23.1276
1702.22	22.1384
1702.47	22.1331
1702.73	24.0931
1702.99	20.1565
1703.25	22.1192
1703.51	24.0823
1703.77	22.1142
1704.02	21.1281
1704.28	24.0726
1704.54	24.0733
1704.8	20.1443
1705.06	22.1087
1705.32	23.0888
1705.57	25.0511
1705.83	23.0844
1706.09	21.1178
1706.35	21.1131
1706.61	22.0894
1706.86	20.1189
1707.12	20.1126
1707.38	25.0137
1707.64	22.0631
1707.9	19.1129
1708.16	20.0862
1708.41	20.0786
1708.67	22.0311
1708.93	23.9812
1709.19	22.0134
1709.44	23.9653
1709.7	22.0023
1709.96	22.9783
1710.22	25.9132
1710.48	21.9963
1710.73	22.9745
1710.99	22.9748
1711.25	23.9558
1711.51	22.9772
1711.77	20.0394
1712.02	21.9983
1712.28	22.9767
1712.54	19.0551
1712.8	22.9649
1713.06	21.9756
1713.31	25.878
1713.57	22.9328
1713.83	21.9457
1714.09	23.8905
1714.34	23.8847
1714.6	22.9034
1714.86	23.8766
1715.12	19.9669
1715.38	22.8951
1715.63	19.9668
1715.89	21.9237
1716.15	23.8762
1716.41	23.8727
1716.66	21.9142
1716.92	23.8614
1717.18	21.9006
1717.44	19.9396
1717.69	18.9543
1717.95	18.9438
1718.21	19.909
1718.47	21.8488
1718.72	23.7882
1718.98	20.8603
1719.24	23.7772
1719.5	24.7489
1719.75	21.8262
1720.01	23.7706
1720.27	18.9025
1720.53	22.7965
1720.78	22.7928
1721.04	19.867
1721.3	22.7798
1721.56	18.8818
1721.81	20.8221
1722.07	23.7336
1722.33	22.754
1722.59	22.7468
1722.84	18.8526
1723.1	23.7045
1723.36	23.698
1723.62	19.8078
1723.87	23.6884
1724.13	22.7155
1724.39	20.7702
1724.64	20.7676
1724.9	23.6751
1725.16	19.7855
1725.42	20.7466
1725.67	20.738
1725.93	24.6065
1726.19	22.6607
1726.45	23.6256
1726.7	20.7184
1726.96	22.6535
1727.22	22.6487
1727.47	22.6393
1727.73	20.7002
1727.99	20.7035
1728.24	23.6068
1728.5	21.6643
1728.76	23.5912
1729.02	23.558
1729.27	20.6251
1729.53	21.5771
1729.79	22.5529
1730.05	22.5628
1730.3	18.705
1730.56	17.7268
1730.82	20.6167
1731.07	22.5439
1731.33	22.5671
1731.59	22.5671
1731.84	23.5325
1732.1	23.5304
1732.36	21.5948
1732.61	23.5238
1732.87	20.6212
1733.13	21.5827
1733.39	26.406
1733.64	21.5689
1733.9	21.559
1734.16	20.584
1734.41	21.5409
1734.67	26.3536
1734.93	22.4884
1735.18	21.5162
1735.44	21.508
1735.7	22.4636
1735.95	22.4575
1736.21	21.49
1736.47	24.3741
1736.72	18.5957
1736.98	25.3278
1737.24	19.55
1737.49	20.5077
1737.75	23.3892
1738.01	24.3465
1738.26	23.3792
1738.52	20.4887
1738.78	22.4054
1739.03	22.3993
1739.29	24.3141
1739.55	22.3847
1739.8	23.3352
1740.06	22.3637
1740.32	19.4751
1740.57	22.3431
1740.83	22.3348
1741.09	20.4112
1741.34	23.2797
1741.6	24.2311
1741.86	22.3093
1742.11	22.3041
1742.37	22.3003
1742.63	23.255
1742.88	21.337
1743.14	24.205
1743.4	19.4161
1743.65	21.3284
1743.91	22.2819
1744.16	21.3191
1744.42	23.2274
1744.68	23.2225
1744.93	24.1758
1745.19	24.1743
1745.45	22.2602
1745.7	25.1282
1745.96	20.3431
1746.22	19.3827
1746.47	23.2021
1746.73	22.2388
1746.98	21.2751
1747.24	21.2688
1747.5	26.9921
1747.75	24.1198
1748.01	21.2487
1748.27	20.2903
1748.52	26.0156
1748.78	20.2871
1749.03	25.0594
1749.29	23.1502
1749.55	22.1966
1749.8	22.1986
1750.06	23.1565
1750.32	20.2941
1750.57	22.2084
1750.83	24.1232
1751.08	20.3001
1751.34	21.2569
1751.6	20.2999
1751.85	25.0754
1752.11	23.1556
1752.36	20.2812
1752.62	25.0507
1752.88	21.2243
1753.13	21.2181
1753.39	24.0754
1753.64	25.0238
1753.9	21.2015
1754.15	24.0586
1754.41	24.0519
1754.67	24.0452
1754.92	21.1798
1755.18	24.0352
1755.43	23.0779
1755.69	19.2613
1755.95	20.2095
1756.2	22.1092
1756.46	19.245
1756.71	23.9995
1756.97	23.0385
1757.23	23.9813
1757.48	23.0217
1757.74	25.871
1757.99	23.0132
1758.25	23.9643
1758.5	23.0183
1758.76	20.1644
1759.02	23.018
1759.27	22.0653
1759.53	23.9672
1759.78	21.1121
1760.04	21.1102
1760.3	23.9618
1760.55	22.0554
1760.81	22.0519
1761.06	25.8529
1761.32	21.0918
1761.57	19.1843
1761.83	25.8348
1762.08	22.0276
1762.34	26.7773
1762.6	22.0221
1762.85	23.9257
1763.11	22.0252
1763.36	24.8767
1763.62	22.0218
1763.87	22.9718
1764.13	21.0702
1764.38	23.9239
1764.64	24.8785
1764.89	23.9347
1765.15	21.0817
1765.4	21.083
1765.66	22.9874
1765.92	19.1794
1766.17	22.9868
1766.43	22.0334
1766.68	25.8393
1766.94	17.2681
1767.19	22.025
1767.45	20.1194
1767.7	23.9235
1767.96	22.9671
1768.21	24.8653
1768.47	22.9581
1768.73	22.9547
1768.98	22.0003
1769.24	24.8426
1769.49	23.8772
1769.75	21.9638
1770	24.8035
1770.26	20.0549
1770.51	21.9577
1770.77	20.0615
1771.02	24.8108
1771.28	23.8609
1771.53	25.7666
1771.79	21.9713
1772.04	22.9235
1772.3	22.9233
1772.55	22.9256
1772.81	20.0749
1773.06	25.7852
1773.32	25.7868
1773.57	22.9333
1773.83	26.7414
1774.08	24.8387
1774.34	19.1274
1774.59	22.9351
1774.85	25.791
1775.1	25.7931
1775.36	22.9368
1775.61	23.8919
1775.87	24.8541
1776.12	21.9995
1776.38	23.9075
1776.63	22.9536
1776.89	23.9043
1777.14	21.9935
1777.4	23.8944
1777.65	24.8433
1777.91	22.9319
1778.16	20.0687
1778.42	22.9208
1778.67	24.8197
1778.93	21.9569
1779.18	22.9015
1779.44	23.8452
1779.69	24.7913
1779.95	22.8867
1780.2	21.9401
1780.46	22.8919
1780.71	20.9886
1780.97	23.8445
1781.22	22.8935
1781.47	26.7005
1781.73	23.8441
1781.98	21.9405
1782.24	22.8943
1782.49	22.8965
1782.75	23.8531
1783	22.9024
1783.26	20.0449
1783.51	23.8578
1783.77	22.9062
1784.02	21.0012
1784.28	24.8165
1784.53	23.8659
1784.79	23.8705
1785.04	21.9647
1785.29	20.0568
1785.55	27.6883
1785.8	21.961
1786.06	19.0954
1786.31	20.9996
1786.57	23.8602
1786.82	21.9528
1787.08	22.909
1787.33	19.095
1787.58	20.0534
1787.84	20.0594
1788.09	20.0699
1788.35	20.0812
1788.6	21.0492
1788.86	21.0566
1789.11	25.8459
1789.37	23.9352
1789.62	24.9007
1789.87	21.0725
1790.13	22.9906
1790.38	24.9091
1790.64	20.1177
1790.89	21.0751
1791.15	22.0313
1791.4	22.9834
1791.65	22.0101
1791.91	23.9223
1792.16	21.0455
1792.42	20.0867
1792.67	20.086
1792.93	22.0012
1793.18	20.0868
1793.43	20.087
1793.69	20.0861
1793.94	22.0009
1794.2	22.0024
1794.45	25.8347
1794.7	21.0417
1794.96	23.9113
1795.21	20.0832
1795.47	22.0154
1795.72	20.1061
1795.97	21.0697
1796.23	19.1515
1796.48	22.9944
1796.74	22.0369
1796.99	23.961
1797.25	21.082
1797.5	22.0455
1797.75	23.0087
1798.01	23.9716
1798.26	21.0887
1798.51	19.1662
1798.77	23.9737
1799.02	22.0493
1799.28	22.0466
1799.53	23.0042
1799.78	20.1154
1800.04	21.0711
1800.29	20.1049
1800.55	18.179
1800.8	20.0968
1801.05	23.9358
1801.31	21.0514
1801.56	23.9307
1801.81	19.1268
1802.07	22.9682
1802.32	18.1652
1802.58	22.0083
1802.83	22.0098
1803.08	20.09
1803.34	21.0537
1803.59	18.1725
1803.84	20.0974
1804.1	22.0212
1804.35	23.9444
1804.61	20.0985
1804.86	21.0629
1805.11	21.0653
1805.37	23.956
1805.62	20.1096
1805.87	23.0019
1806.13	20.1159
1806.38	20.118
1806.64	23.9738
1806.89	21.0847
1807.14	19.1576
1807.4	21.0843
1807.65	23.9745
1807.9	21.0817
1808.16	23.0081
1808.41	20.1156
1808.66	22.0423
1808.92	18.1859
1809.17	23.0049
1809.42	20.1124
1809.68	23.0037
1809.93	21.0751
1810.18	23.0027
1810.44	21.0738
1810.69	23.965
1810.94	22.9983
1811.2	23.9598
1811.45	20.1017
1811.7	22.9919
1811.96	23.9542
1812.21	21.0609
1812.46	16.2399
1812.72	21.0613
1812.97	21.0628
1813.22	21.065
1813.48	22.996
1813.73	22.9959
1813.98	23.9626
1814.24	23.0014
1814.49	21.0754
1814.74	20.1141
1815	20.1193
1815.25	23.0202
1815.5	21.0897
1815.76	23.0229
1816.01	21.0897
1816.26	21.0892
1816.52	17.2225
1816.77	19.1555
1817.02	21.0889
1817.27	21.0862
1817.53	23.9813
1817.78	20.1044
1818.03	22.9935
1818.29	22.0273
1818.54	19.1318
1818.79	23.0006
1819.05	19.1371
1819.3	23.0001
1819.55	20.101
1819.8	23.9682
1820.06	20.1028
1820.31	20.1032
1820.56	21.071
1820.82	22.0394
1821.07	21.0732
1821.32	19.1393
1821.58	23.0099
1821.83	23.9797
1822.08	19.1433
1822.33	22.0475
1822.59	23.0159
1822.84	16.2402
1823.09	22.0479
1823.34	22.0475
1823.6	22.0456
1823.85	21.0743
1824.1	23.0065
1824.36	21.0687
1824.61	23.9727
1824.86	20.1013
1825.11	22.0378
1825.37	23.975
1825.62	18.1661
1825.87	22.0396
1826.12	23.007
1826.38	19.1317
1826.63	19.1306
1826.88	23.0036
1827.14	16.2231
1827.39	21.0655
1827.64	23.0035
1827.89	20.0982
1828.15	22.0365
1828.4	22.0352
1828.65	20.0951
1828.9	22.998
1829.16	17.1814
1829.41	21.0525
1829.66	20.0817
1829.91	21.0479
1830.17	20.0768
1830.42	20.073
1830.67	22.9739
1830.92	23.9381
1831.18	22.0005
1831.43	20.065
1831.68	25.8765
1831.93	20.0675
1832.19	21.0372
1832.44	22.976
1832.69	22.9778
1832.94	24.9192
1833.2	20.075
1833.45	19.1047
1833.7	22.0115
1833.95	22.0121
1834.2	22.9811
1834.46	20.0727
1834.71	23.9431
1834.96	19.0853
1835.21	20.0426
1835.47	21.9676
1835.72	23.8947
1835.97	21.9522
1836.22	25.8195
1836.48	19.0427
1836.73	22.0313
1836.98	22.9979
1837.23	21.0264
1837.48	20.0458
1837.74	17.1249
1837.99	19.0484
1838.24	20.9612
1838.49	19.9807
1838.74	20.9428
1839	22.912
1839.25	20.0218
1839.5	19.0589
1839.75	21.9671
1840	20.0304
1840.26	19.0645
1840.51	21.9509
1840.76	20.9663
1841.01	21.9196
1841.27	18.0402
1841.52	21.8952
1841.77	20.9182
1842.02	24.77
1842.27	20.8991
1842.53	23.7848
1842.78	22.811
1843.03	22.8135
1843.28	21.8453
1843.53	19.917
1843.78	22.8091
1844.04	22.8076
1844.29	19.9101
1844.54	19.9085
1844.79	22.8035
1845.04	23.7671
1845.3	20.8682
1845.55	17.9738
1845.8	17.9725
1846.05	20.8733
1846.3	17.0194
1846.55	19.922
1846.81	20.901
1847.06	17.9901
1847.31	22.7855
1847.56	19.8568
1847.81	21.774
1848.07	20.8103
1848.32	21.7825
1848.57	20.8276
1848.82	22.7415
1849.07	19.8455
1849.32	17.919
1849.57	19.8393
1849.83	17.9073
1850.08	21.7485
1850.33	19.817
1850.58	20.7695
1850.83	18.8396
1851.09	21.7158
1851.34	21.7097
1851.59	24.5856
1851.84	19.7786
1852.09	19.7751
1852.34	21.6932
1852.59	19.771
1852.84	19.7696
1853.1	21.6885
1853.35	17.8455
1853.6	17.8429
1853.85	20.7196
1854.1	23.5936
1854.35	19.7471
1854.6	22.617
1854.86	18.7731
1855.11	23.5629
1855.36	20.6817
1855.61	19.7157
1855.86	19.7077
1856.11	21.6184
1856.36	22.5728
1856.61	22.5702
1856.87	18.7374
1857.12	19.6936
1857.37	19.6912
1857.62	21.6034
1857.87	21.5993
1858.12	20.6377
1858.37	21.5903
1858.63	22.5415
1858.88	20.6211
1859.13	22.5282
1859.38	19.6518
1859.63	19.6452
1859.88	23.4644
1860.13	20.5943
1860.38	16.7688
1860.63	20.5927
1860.89	21.5514
1861.14	20.5973
1861.39	21.5554
1861.64	18.6877
1861.89	22.5169
1862.14	18.6887
1862.39	20.6001
1862.64	19.6387
1862.9	19.633
1863.15	19.6268
1863.4	22.489
1863.65	20.5705
1863.9	22.476
1864.15	18.648
1864.4	15.777
1864.65	17.6831
1864.9	17.6784
1865.15	21.4925
1865.4	20.5309
1865.66	18.6146
1865.91	20.5148
1866.16	19.5518
1866.41	19.5421
1866.66	16.6738
1866.91	21.4272
1867.16	19.5127
1867.41	17.5999
1867.66	21.3968
1867.91	19.487
1868.16	22.3345
1868.41	19.4783
1868.67	20.4261
1868.92	17.573
1869.17	18.5232
1869.42	19.4722
1869.67	17.5684
1869.92	19.467
1870.17	20.4149
1870.42	21.3628
1870.67	20.4098
1870.92	22.3083
1871.17	19.4551
1871.42	19.4533
1871.67	16.5994
1871.92	16.596
1872.17	18.4917
1872.42	20.3879
1872.68	17.5348
1872.93	21.3287
1873.18	23.2218
1873.43	20.3691
1873.68	20.3666
1873.93	18.465
1874.18	21.3082
1874.43	18.4559
1874.68	19.3989
1874.93	20.3411
1875.18	15.5931
1875.43	20.3272
1875.68	19.3722
1875.93	23.1532
1876.18	18.4046
1876.43	16.5032
1876.68	21.2277
1876.93	22.167
1877.18	21.2164
1877.43	20.2589
1877.68	20.245
1877.93	23.0513
1878.18	20.2353
1878.44	21.256
1878.69	20.278
1878.93	21.2135
1879.19	18.371
1879.44	22.1751
1879.69	22.1839
1879.94	21.2285
1880.19	21.2205
1880.44	19.3243
1880.69	19.3215
1880.94	19.3244
1881.19	18.3717
1881.44	21.2094
1881.69	17.4138
1881.94	21.1869
1882.19	19.284
1882.44	18.3272
1882.69	18.3149
1882.94	19.2442
1883.19	20.1805
1883.44	21.1068
1883.69	23.1448
1883.94	20.2075
1884.19	23.9222
1884.44	20.1528
1884.69	19.2204
1884.94	20.1511
1885.19	16.3857
1885.44	18.2795
1885.69	20.1677
1885.94	18.2816
1886.19	18.2892
1886.44	19.2364
1886.69	21.1269
1886.94	17.3457
1887.19	22.0568
1887.44	21.1065
1887.69	20.1565
1887.94	20.15
1888.19	20.1432
1888.44	20.136
1888.69	20.1264
1888.94	18.2336
1889.19	20.1099
1889.44	24.8097
1889.69	19.1558
1889.94	19.1536
1890.19	18.2099
1890.44	20.0929
1890.69	21.0376
1890.94	20.0993
1891.19	19.1573
1891.43	16.3295
1891.68	19.1518
1891.94	19.1499
1892.18	20.0889
1892.43	17.2613
1892.68	21.9673
1892.93	23.8456
1893.18	21.0152
1893.43	18.1832
1893.68	21.9332
1893.93	21.9208
1894.18	20.9768
1894.43	18.1587
1894.68	21.9092
1894.93	20.9642
1895.18	18.1427
1895.43	19.0812
1895.68	17.2021
1895.93	20.0214
1896.18	20.9621
1896.43	20.0235
1896.68	20.9653
1896.93	20.968
1897.18	21.9106
1897.42	20.9715
1897.68	21.9127
1897.92	18.1495
1898.17	23.792
1898.42	20.9672
1898.67	20.0227
1898.92	20.958
1899.17	20.0116
1899.42	19.065
1899.67	20.9392
1899.92	20.9355
1900.17	22.8103
1900.42	18.109
1900.67	20.9249
1900.92	20.9241
1901.16	22.8037
1901.41	20.9268
1901.66	22.8095
1901.91	19.0524
1902.16	20.9353
1902.41	19.058
1902.66	23.764
1902.91	20.9408
1903.16	20.9375
1903.41	18.1123
1903.66	20.9298
1903.91	19.9862
1904.16	18.1028
1904.41	20.9211
1904.65	19.9788
1904.9	20.9168
1905.15	20.9141
1905.4	21.8519
1905.65	19.0299
1905.9	21.8473
1906.15	19.9601
1906.4	19.0122
1906.65	23.7046
1906.9	21.8218
1907.14	22.7572
1907.39	19.937
1907.64	22.7528
1907.89	21.8136
1908.14	22.7543
1908.39	19.939
1908.64	18.9997
1908.89	18.0598
1909.14	21.8189
1909.39	22.7607
1909.63	18.0639
1909.88	19.0074
1910.13	19.0117
1910.38	22.78
1910.63	21.8455
1910.88	21.8509
1911.13	20.9128
1911.38	21.8565
1911.62	23.7412
1911.87	17.1468
1912.12	19.9711
1912.37	20.9102
1912.62	19.9654
1912.87	20.9053
1913.12	21.8456
1913.37	19.9605
1913.61	17.1341
1913.86	22.7875
1914.11	25.6197
1914.36	19.0282
1914.61	19.0312
1914.86	22.806
1915.11	21.8663
1915.36	19.9824
1915.6	19.0402
1915.85	18.0963
1916.1	20.9252
1916.35	21.8655
1916.6	19.0324
1916.85	21.8582
1917.1	20.9089
1917.34	24.6757
1917.59	20.8991
1917.84	20.8954
1918.09	19.9499
1918.34	19.949
1918.59	21.8361
1918.83	19.9534
1919.08	19.9574
1919.33	23.7367
1919.58	21.8551
1919.83	19.9742
1920.08	20.9247
1920.33	20.9273
1920.57	19.9819
1920.82	23.7573
1921.07	20.9228
1921.32	20.9269
1921.57	19.9856
1921.81	19.9873
1922.06	19.9887
1922.31	19.9891
1922.56	19.0419
1922.81	19.0389
1923.06	21.8711
1923.31	18.0847
1923.55	20.9174
1923.8	20.9143
1924.05	20.9108
1924.3	18.0712
1924.55	19.9561
1924.79	19.9522
1925.04	19.9499
1925.29	21.8388
1925.54	23.7301
1925.79	20.8984
1926.04	16.1765
1926.28	22.7993
1926.53	20.912
1926.78	18.0779
1927.03	18.0823
1927.28	21.8714
1927.52	20.9265
1927.77	22.822
1928.02	21.8764
1928.27	19.9831
1928.52	19.0365
1928.76	23.7734
1929.01	23.7752
1929.26	17.1433
1929.51	21.8837
1929.76	20.9392
1930	20.9444
1930.25	21.897
1930.5	19.0557
1930.75	19.059
1931	18.1134
1931.24	19.0628
1931.49	20.0114
1931.74	20.0083
1931.99	19.0549
1932.24	21.8983
1932.48	19.9956
1932.73	19.0424
1932.98	19.0379
1933.23	17.1382
1933.47	21.8773
1933.72	17.134
1933.97	20.9333
1934.22	20.9423
1934.46	19.0548
1934.71	16.218
1934.96	20.9892
1935.21	17.1941
1935.46	18.1565
1935.7	25.7919
1935.95	18.169
1936.2	21.0147
1936.45	21.011
1936.69	20.0552
1936.94	21.9569
1937.19	21.9508
1937.44	19.0865
1937.68	25.7469
1937.93	20.0274
1938.18	20.0222
1938.43	19.0648
1938.68	17.1598
1938.92	20.0206
1939.17	19.0694
1939.42	22.8802
1939.67	21.9302
1939.91	21.9316
1940.16	18.1228
1940.41	21.9334
1940.66	16.2191
1940.9	20.9881
1941.15	18.1391
1941.4	18.1448
1941.64	18.1433
1941.89	19.0936
1942.14	20.9929
1942.39	20.0252
1942.63	20.0312
1942.88	21.9601
1943.13	19.0994
1943.38	19.0987
1943.62	22.9073
1943.87	20.0331
1944.12	20.9783
1944.37	21.9448
1944.61	21.9482
1944.86	19.0872
1945.11	21.0002
1945.35	21.0041
1945.6	19.097
1945.85	20.0561
1946.1	19.1033
1946.34	21.9738
1946.59	21.0195
1946.84	21.9769
1947.09	21.9768
1947.33	20.062
1947.58	19.1024
1947.83	20.0552
1948.07	19.097
1948.32	19.0954
1948.57	20.0499
1948.82	22.9153
1949.06	23.8712
1949.31	20.0486
1949.56	22.9211
1949.8	21.9678
1950.05	21.9721
1950.3	21.0193
1950.54	21.9846
1950.79	19.1191
1951.04	20.0831
1951.29	19.1309
1951.53	18.1783
1951.78	21.0629
1952.03	20.1081
1952.27	17.2304
1952.52	19.1521
1952.77	18.1934
1953.01	18.1913
1953.26	22.0355
1953.51	22.0398
1953.76	19.1504
1954	19.1415
1954.25	20.0869
1954.49	17.1967
1954.74	17.1858
1954.99	21.0087
1955.24	19.0881
1955.48	23.8757
1955.73	20.0449
1955.98	21.0074
1956.22	16.2215
1956.47	21.0291
1956.72	20.0741
1956.96	17.1993
1957.21	21.0417
1957.46	22.0058
1957.7	22.9697
1957.95	22.012
1958.2	19.1309
1958.44	19.1314
1958.69	20.0925
1958.94	22.9758
1959.18	19.1279
1959.43	19.1226
1959.68	17.1975
1959.92	18.1561
1960.17	19.1125
1960.42	18.1473
1960.66	24.8657
1960.91	19.0986
1961.16	21.0135
1961.4	17.1687
1961.65	21.9631
1961.9	22.919
1962.14	19.0796
1962.39	17.1598
1962.63	23.8775
1962.88	21.9575
1963.13	23.8767
1963.37	20.9966
1963.62	19.076
1963.87	20.9952
1964.11	20.9948
1964.36	20.0359
1964.61	20.0367
1964.85	17.1541
1965.1	17.1512
1965.35	21.9512
1965.59	20.0285
1965.84	18.1071
1966.08	19.0678
1966.33	21.9516
1966.58	18.1124
1966.82	23.8808
1967.07	21.961
1967.32	20.04
1967.56	21.9603
1967.81	20.9978
1968.05	20.9983
1968.3	20.9977
1968.55	22.9199
1968.79	23.8794
1969.04	20.0306
1969.29	20.9866
1969.53	18.0971
1969.78	22.8926
1970.02	22.8836
1970.27	20.956
1970.52	20.95
1970.76	18.0664
1971.01	25.738
1971.25	19.9761
1971.5	23.8094
1971.75	21.8872
1971.99	20.9249
1972.24	20.925
1972.48	21.8849
1972.73	21.8846
1972.98	19.0049
1973.22	20.9202
1973.47	23.7925
1973.71	21.8678
1973.96	21.8622
1974.21	24.7335
1974.45	22.8128
1974.7	21.852
1974.94	23.7676
1975.19	21.85
1975.44	21.8504
1975.68	19.9344
1975.93	20.895
1976.17	21.8554
1976.42	21.8563
1976.66	22.8155
1976.91	23.7742
1977.16	20.8951
1977.4	21.8522
1977.65	20.8901
1977.89	21.8452
1978.14	22.7992
1978.39	24.7114
1978.63	24.7065
1978.88	23.7437
1979.12	24.6992
1979.37	20.8638
1979.61	21.8215
1979.86	25.6543
1980.1	26.6124
1980.35	22.7771
1980.6	24.6904
1980.84	24.6844
1981.09	22.7623
1981.33	22.7588
1981.58	24.6699
1981.82	23.7078
1982.07	23.7047
1982.31	19.8713
1982.56	28.4886
1982.81	24.6522
1983.05	25.6039
1983.3	23.6818
1983.54	21.7594
1983.79	20.7962
1984.03	22.7059
1984.28	21.7462
1984.52	27.4813
1984.77	20.7824
1985.02	24.6042
1985.26	21.7301
1985.51	21.7227
1985.75	25.5415
1986	24.5844
1986.24	23.6287
1986.49	23.6306
1986.73	23.6332
1986.98	22.6776
1987.22	18.8505
1987.47	23.6318
1987.71	20.7579
1987.96	24.5734
1988.21	24.5635
1988.45	22.6422
1988.7	22.6304
1988.94	25.4585
1989.19	24.5266
1989.43	25.4501
1989.68	23.5627
1989.92	25.3233
1990.17	25.387
1990.41	26.2783
1990.66	25.4532
1990.9	27.1944
1991.15	25.4194
1991.39	24.7937
1991.64	25.9481
1991.88	23.2736
1992.13	23.1927
1992.37	26.193
1992.62	24.3176
1992.86	24.45
1993.11	23.8192
1993.35	25.3705
1993.6	25.9314
1993.84	25.3209
1994.09	26.4431
1994.33	21.4866
1994.58	27.163
1994.82	27.4497
1995.07	23.1938
1995.31	28.5154
1995.56	25.635
1995.8	25.3007
1996.05	24.5611
1996.29	22.6211
1996.54	28.6566
1996.78	26.614
1997.03	25.6983
1997.27	24.8048
1997.52	27.7776
1997.76	24.5322
1998.01	25.5139
1998.25	26.3339
1998.5	26.2583
1998.74	26.9035
1998.99	26.9559
1999.23	25.7734
1999.48	26.0047
1999.72	29.0827
1999.97	26.0089
2000.21	26.2187
2000.46	26.3269
2000.7	26.661
2000.95	26.3031
2001.19	24.8574
2001.43	24.9564
2001.68	26.995
2001.92	28.1368
2002.17	27.3962
2002.41	28.261
2002.66	28.0483
2002.9	26.742
2003.15	25.5306
2003.39	26.9685
2003.64	27.5381
2003.88	26.6099
2004.13	28.9071
2004.37	26.5757
2004.61	25.1895
2004.86	26.185
2005.1	25.1918
2005.35	27.3637
2005.59	27.8695
2005.84	26.1827
2006.08	25.4505
2006.33	27.3334
2006.57	27.3235
2006.81	27.3409
2007.06	27.4545
2007.3	27.0385
2007.55	26.2488
2007.79	26.2305
2008.04	25.1473
2008.28	27.9341
2008.53	28.1803
2008.77	26.7838
2009.01	27.1474
2009.26	26.8082
2009.5	29.5474
2009.75	27.6608
2009.99	26.6849
2010.24	25.3172
2010.48	30.1224
2010.73	27.4993
2010.97	24.5273
2011.21	21.8229
2011.46	28.5968
2011.7	31.128
2011.95	29.263
2012.19	24.8977
2012.43	29.5083
2012.68	26.6806
2012.92	24.795
2013.17	24.7895
2013.42	26.6626
2013.67	27.5896
2013.91	29.4618
2014.16	31.3305
2014.41	26.6188
2014.66	24.7265
2014.9	29.4075
2015.15	24.711
2015.4	30.3426
2015.64	25.6531
2015.89	27.5345
2016.14	23.7817
2016.39	27.5339
2016.63	27.5403
2016.88	27.5599
2017.13	28.5033
2017.37	24.7417
2017.62	28.4963
2017.87	25.6709
2018.11	26.6018
2018.36	25.6524
2018.61	26.5799
2018.86	27.5079
2019.1	24.6843
2019.35	28.4236
2019.6	26.5389
2019.84	24.6597
2020.09	21.8457
2020.34	26.5267
2020.58	25.5891
2020.83	25.5874
2021.08	28.3955
2021.33	24.6503
2021.57	26.5246
2021.82	20.9043
2022.07	21.8395
2022.31	26.5197
2022.56	22.7699
2022.81	22.7652
2023.05	23.6952
2023.3	26.4954
2023.55	26.4893
2023.8	22.7418
2024.04	23.6715
2024.29	25.5358
2024.54	23.661
2024.78	24.5873
2025.03	22.7103
2025.27	23.6362
2025.52	20.8279
2025.77	25.4874
2026.02	22.6813
2026.26	21.7404
2026.51	23.6074
2026.76	21.7494
2027	19.8951
2027.25	27.3846
2027.5	25.5369
2027.74	22.7427
2027.99	26.4816
2028.23	25.5296
2028.48	24.5718
2028.73	20.7793
2028.98	21.767
2029.22	21.8447
2029.47	25.5439
2029.72	27.4399
2029.96	26.4573
2030.21	23.6269
2030.45	23.6
2030.7	23.5983
2030.95	23.5788
2031.19	20.7973
2031.44	23.6085
2031.69	24.5375
2031.93	22.6711
2032.18	23.6044
2032.43	22.6773
2032.67	24.5515
2032.92	22.6919
2033.17	22.6988
2033.41	24.5732
2033.66	22.7082
2033.91	23.6494
2034.15	23.6522
2034.4	20.8355
2034.64	18.019
2034.89	24.5324
2035.14	21.727
2035.38	25.4687
2035.63	22.6761
2035.87	22.6882
2036.12	23.6388
2036.37	20.8443
2036.61	23.6488
2036.86	23.6362
2037.11	21.7668
2037.35	24.5766
2037.6	20.8357
2037.84	23.6392
2038.09	22.7016
2038.34	19.8939
2038.58	20.8253
2038.83	26.4288
2039.08	25.4898
2039.32	20.8142
2039.57	20.8101
2039.81	20.8062
2040.06	22.6685
2040.31	22.6617
2040.55	20.7888
2040.8	23.5818
2041.04	22.643
2041.29	23.5704
2041.54	26.3629
2041.78	22.6312
2042.03	20.765
2042.27	25.4221
2042.52	22.6227
2042.77	23.5493
2043.01	21.6836
2043.26	22.6147
2043.5	19.8209
2043.75	22.6218
2044	21.6978
2044.24	21.7062
2044.49	21.709
2044.73	21.7074
2044.98	19.8365
2045.23	18.8949
2045.47	23.5352
2045.72	23.5631
2045.96	21.704
2046.21	22.6681
2046.45	22.704
2046.7	21.7495
2046.95	18.9262
2047.19	20.7788
2047.44	24.5129
2047.68	22.639
2047.93	20.7559
2048.17	19.8189
2048.42	21.6837
2048.67	18.8875
2048.91	23.5499
2049.16	18.8896
2049.4	20.7593
2049.65	20.7632
2049.89	20.7686
2050.14	19.842
2050.39	18.9131
2050.63	18.9178
2050.88	23.5913
2051.12	21.7235
2051.37	20.7875
2051.61	21.7169
2051.86	20.7764
2052.11	21.7095
2052.35	21.7095
2052.6	21.7123
2052.84	20.7788
2053.09	19.8467
2053.33	20.7836
2053.58	22.656
2053.82	19.8574
2054.07	21.7363
2054.31	19.8693
2054.56	24.5486
2054.8	21.7426
2055.05	18.9353
2055.3	21.74
2055.54	22.6734
2055.79	21.7325
2056.03	21.7296
2056.28	21.7281
2056.52	18.921
2056.77	21.7228
2057.01	22.6557
2057.26	19.851
2057.5	22.6557
2057.75	20.7873
2058	16.1146
2058.24	20.792
2058.49	19.8594
2058.73	19.8638
2058.98	20.8035
2059.22	21.7432
2059.47	20.81
2059.71	18.0025
2059.96	20.8115
2060.2	18.9391
2060.45	21.7446
2060.69	17.9971
2060.94	23.6098
2061.18	18.9323
2061.43	18.9345
2061.67	19.8722
2061.92	20.8088
2062.16	21.7451
2062.41	17.0638
2062.65	22.6829
2062.9	18.9388
2063.14	19.8776
2063.39	20.8175
2063.63	20.8205
2063.88	18.0115
2064.12	22.699
2064.37	21.7632
2064.61	20.8271
2064.86	22.704
2065.1	19.894
2065.35	19.8981
2065.59	19.9036
2065.84	19.9085
2066.08	18.9742
2066.33	19.9163
2066.57	21.7965
2066.82	18.9799
2067.06	18.9814
2067.31	18.0438
2067.55	20.8629
2067.8	21.8047
2068.04	19.9285
2068.29	18.0512
2068.53	19.9324
2068.78	20.8731
2069.02	18.0555
2069.27	17.1151
2069.51	18.0522
2069.76	20.8658
2070	21.7957
2070.25	22.7307
2070.49	19.9147
2070.73	20.862
2070.98	21.8121
2071.22	19.0009
2071.47	21.8208
2071.71	17.1126
2071.96	19.9554
2072.2	19.9629
2072.45	19.0193
2072.69	19.0175
2072.94	19.9581
2073.18	19.0144
2073.43	16.1893
2073.67	19.9539
2073.92	18.0712
2074.16	19.9545
2074.4	18.0719
2074.65	19.9569
2074.89	19.9602
2075.14	19.9649
2075.38	19.0288
2075.63	20.9225
2075.87	20.9329
2076.12	21.8837
2076.36	21.8873
2076.6	17.1673
2076.85	19.9998
2077.09	19.9972
2077.34	17.1614
2077.58	18.1006
2077.83	21.8644
2078.07	21.8615
2078.31	19.9774
2078.56	19.0378
2078.8	20.9259
2079.05	18.0968
2079.29	21.8734
2079.54	19.9904
2079.78	18.1105
2080.03	17.1691
2080.27	20.9503
2080.51	20.0083
2080.76	20.9554
2081	19.0653
2081.25	18.118
2081.49	17.1714
2081.74	22.8394
2081.98	18.1146
2082.22	19.0582
2082.47	18.1144
2082.71	19.0602
2082.96	18.1158
2083.2	20.9507
2083.45	20.9499
2083.69	19.0587
2083.93	18.1125
2084.18	19.057
2084.42	17.1669
2084.67	19.0562
2084.91	20.001
2085.15	19.0561
2085.4	19.0558
2085.64	19.0553
2085.89	18.1099
2086.13	20.0008
2086.37	20.0055
2086.62	19.0656
2086.86	15.286
2087.11	20.0169
2087.35	20.0189
2087.59	19.0754
2087.84	17.1841
2088.08	18.1301
2088.32	21.9155
2088.57	15.2907
2088.81	17.1838
2089.06	19.0773
2089.3	15.2914
2089.54	20.9737
2089.79	15.2953
2090.03	19.0874
2090.28	21.9305
2090.52	18.142
2090.76	20.9849
2091.01	16.249
2091.25	18.1455
2091.5	19.0947
2091.74	18.1484
2091.98	19.1006
2092.23	18.1573
2092.47	19.1112
2092.72	24.8106
2092.96	17.2243
2093.2	19.1275
2093.45	21.9812
2093.69	17.236
2093.93	19.1402
2094.18	19.1437
2094.42	20.0975
2094.66	20.0982
2094.91	19.1469
2095.15	20.0963
2095.39	20.0944
2095.64	20.0906
2095.88	19.1362
2096.13	16.2825
2096.37	20.0805
2096.61	21.0285
2096.86	17.2274
2097.1	20.0761
2097.34	21.0227
2097.59	18.1693
2097.83	17.2158
2098.07	17.2139
2098.32	20.0605
2098.56	19.1098
2098.8	23.8522
2099.05	17.2079
2099.29	20.0543
2099.53	22.8998
2099.78	19.1023
2100.02	17.2035
2100.27	20.0502
2100.51	20.0504
2100.75	18.1528
2101	21.0017
2101.24	21.0063
2101.48	15.3121
2101.73	15.3135
2101.97	20.0631
2102.21	18.163
2102.45	18.162
2102.7	19.1115
2102.94	17.2104
2103.18	18.1568
2103.43	21.0009
2103.67	15.3023
2103.92	19.0985
2104.16	21.9446
2104.4	21.9446
2104.64	19.098
2104.89	20.0499
2105.13	19.1027
2105.37	17.2054
2105.62	20.0577
2105.86	17.2112
2106.1	17.2139
2106.35	19.1163
2106.59	21.0188
2106.83	19.1182
2107.08	20.0692
2107.32	19.1198
2107.56	18.1692
2107.8	21.9695
2108.05	22.9154
2108.29	20.0583
2108.53	17.2024
2108.78	18.1471
2109.02	18.1429
2109.26	18.1409
2109.51	19.0907
2109.75	18.1453
2109.99	20.0484
2110.23	20.0481
2110.48	20.9977
2110.72	20.9972
2110.96	20.9967
2111.21	20.9962
2111.45	19.0956
2111.69	17.194
2111.93	17.1912
2112.18	19.0884
2112.42	19.0868
2112.66	21.9351
2112.91	16.2384
2113.15	20.0389
2113.39	22.8906
2113.63	18.1448
2113.88	19.0984
2114.12	18.1492
2114.36	19.0981
2114.61	20.0463
2114.85	20.0455
2115.09	16.2443
2115.33	20.0459
2115.58	16.2429
2115.82	17.1913
2116.06	15.2891
2116.31	16.2375
2116.55	16.2338
2116.79	18.1298
2117.03	17.178
2117.28	18.1262
2117.52	18.125
2117.76	20.9742
2118	19.0725
2118.25	17.1703
2118.49	19.0655
2118.73	20.009
2118.97	18.1053
2119.22	18.1008
2119.46	16.2
2119.7	17.1442
2119.94	17.1403
2120.19	17.1367
2120.43	20.9241
2120.67	18.0799
2120.91	18.08
2121.16	22.821
2121.4	18.0836
2121.64	19.0352
2121.88	19.0393
2122.13	18.0945
2122.37	18.0977
2122.61	18.1005
2122.85	19.0518
2123.1	18.1047
2123.34	19.0555
2123.58	17.1579
2123.82	20.0063
2124.07	16.207
2124.31	19.0523
2124.55	19.9977
2124.79	13.3505
2125.03	20.9323
2125.28	19.026
2125.52	19.0172
2125.76	18.0631
2126	19.0041
2126.25	18.9981
2126.49	16.1536
2126.73	18.9883
2126.97	20.8759
2127.21	17.0878
2127.46	18.0294
2127.7	20.8639
2127.94	14.244
2128.18	21.806
2128.43	18.9673
2128.67	18.9656
2128.91	18.0199
2129.15	18.0195
2129.39	21.7993
2129.64	20.8519
2129.88	20.85
2130.12	19.9036
2130.36	19.9021
2130.6	19.9004
2130.85	18.9536
2131.09	17.0617
2131.33	18.0038
2131.57	18.0007
2131.81	17.9974
2132.06	19.883
2132.3	13.2714
2132.54	17.9897
2132.78	16.098
2133.02	20.8131
2133.27	17.9798
2133.51	18.9226
2133.75	17.9793
2133.99	20.8105
2134.23	18.9229
2134.48	19.867
2134.72	19.8671
2134.96	19.8661
2135.2	18.9213
2135.44	17.9766
2135.68	17.9752
2135.93	17.0294
2136.17	18.9128
2136.41	16.0773
2136.65	18.9005
2136.89	19.84
2137.14	18.8976
2137.38	18.8979
2137.62	21.7262
2137.86	18.8993
2138.1	20.7891
2138.34	18.9009
2138.59	18.8951
2138.83	17.0056
2139.07	19.8364
2139.31	17.013
2139.55	18.903
2139.79	16.0648
2140.03	18.8857
2140.28	18.8819
2140.52	16.9943
2140.76	19.8178
2141	19.8152
2141.24	15.1039
2141.49	17.9275
2141.73	16.0437
2141.97	18.8648
2142.21	18.8602
2142.45	17.9167
2142.69	16.0336
2142.93	18.8607
2143.18	17.9215
2143.42	17.9354
2143.66	18.87
2143.9	18.8229
2144.14	19.762
2144.38	19.7651
2144.62	18.8313
2144.87	16.0157
2145.11	19.7811
2145.35	18.8292
2145.59	17.8901
2145.83	18.8307
2146.07	15.0682
2146.31	17.8869
2146.55	16.9449
2146.8	19.763
2147.04	18.821
2147.28	16.939
2147.52	16.9361
2147.76	19.7521
2148	15.9914
2148.24	18.8073
2148.48	18.8047
2148.73	15.9846
2148.97	15.982
2149.21	20.6735
2149.45	16.9141
2149.69	18.7865
2149.93	15.026
2150.17	15.96
2150.42	17.8304
2150.66	17.8263
2150.9	22.5105
2151.14	16.8859
2151.38	17.8241
2151.62	19.7016
2151.86	21.5784
2152.1	17.8302
2152.34	16.893
2152.58	19.7088
2152.83	20.6433
2153.07	16.8891
2153.31	15.948
2153.55	20.6317
2153.79	18.7549
2154.03	19.6899
2154.27	19.6862
2154.51	19.6809
2154.75	14.0547
2154.99	20.6011
2155.24	19.6567
2155.48	14.971
2155.72	19.6408
2155.96	15.8956
2156.2	18.6946
2156.44	14.019
2156.68	15.8855
2156.92	18.6868
2157.16	15.8834
2157.4	18.6854
2157.64	20.5547
2157.89	19.6227
2158.13	17.7567
2158.37	15.8897
2158.61	15.8898
2158.85	18.6934
2159.09	18.6921
2159.33	17.7554
2159.57	18.6871
2159.81	21.4866
2160.05	17.7453
2160.29	20.5422
2160.53	18.6692
2160.77	18.6646
2161.01	15.8607
2161.25	18.658
2161.5	19.5896
2161.74	20.5203
2161.98	14.9202
2162.22	20.5167
2162.46	15.8515
2162.7	20.5157
2162.94	15.8503
2163.18	20.5126
2163.42	17.7113
2163.66	17.7088
2163.9	19.5716
2164.14	17.7041
2164.38	18.6338
2164.62	15.8331
2164.86	20.4877
2165.11	20.4839
2165.35	17.689
2165.59	18.6221
2165.83	16.7582
2166.07	19.5535
2166.31	17.6895
2166.55	19.5504
2166.79	18.6162
2167.03	19.5445
2167.27	18.6087
2167.51	18.6055
2167.75	17.6698
2167.99	20.4562
2168.23	17.6551
2168.47	16.717
2168.71	18.5733
2168.95	18.5723
2169.19	17.6432
2169.43	16.7152
2169.67	18.5781
2169.91	19.5131
2170.15	18.5886
2170.39	18.5953
2170.63	17.6677
2170.87	16.7374
2171.11	17.667
2171.35	17.6631
2171.59	19.5229
2171.83	17.6535
2172.07	17.6408
2172.31	20.4226
2172.56	15.7712
2172.79	18.5557
2173.04	17.6236
2173.28	18.5517
2173.51	16.6928
2173.76	17.6211
2174	17.6219
2174.24	20.4114
2174.48	17.6247
2174.72	15.7662
2174.96	15.7659
2175.2	16.6947
2175.44	16.6939
2175.68	20.4097
2175.92	18.5493
2176.16	17.619
2176.4	15.7592
2176.64	17.6156
2176.88	19.4703
2177.12	13.8951
2177.36	18.5392
2177.6	16.6813
2177.84	18.5391
2178.08	18.5382
2178.32	17.6094
2178.55	15.7494
2178.8	18.5307
2179.03	18.5265
2179.28	19.454
2179.52	17.5974
2179.75	18.5257
2180	17.5968
2180.23	16.6678
2180.47	19.4527
2180.71	17.5947
2180.95	18.5215
2181.19	16.6631
2181.43	20.3755
2181.67	18.5172
2181.91	17.5863
2182.15	18.5119
2182.39	17.5824
2182.63	17.5797
2182.87	17.5775
2183.11	18.5031
2183.35	18.4991
2183.59	15.7124
2183.83	18.4886
2184.07	19.4111
2184.31	16.6274
2184.55	17.5511
2184.79	17.5498
2185.03	18.4765
2185.27	15.6977
2185.51	18.4787
2185.75	20.3332
2185.99	19.4083
2186.23	17.5568
2186.47	16.6322
2186.7	17.5621
2186.95	15.7111
2187.18	19.4273
2187.42	18.5042
2187.66	16.6519
2187.9	18.5125
2188.14	17.5842
2188.38	15.7245
2188.62	17.5784
2188.86	17.5746
2189.1	18.4985
2189.34	18.4936
2189.58	15.705
2189.82	17.5542
2190.06	19.4032
2190.3	18.4732
2190.54	20.3259
2190.78	17.5448
2191.01	19.4
2191.25	19.4011
2191.49	16.6192
2191.73	17.5468
2191.97	16.6205
2192.21	17.5489
2192.45	15.695
2192.69	21.2611
2192.93	20.3349
2193.17	20.3378
2193.41	20.3409
2193.65	13.8468
2193.89	18.4911
2194.13	17.5697
2194.36	19.4361
2194.6	15.7238
2194.84	18.5151
2195.08	17.584
2195.32	20.3701
2195.56	19.4381
2195.8	19.4346
2196.04	18.5009
2196.28	18.4953
2196.52	19.4169
2196.76	18.4821
2197	20.333
2197.23	16.6175
2197.47	19.3972
2197.71	19.3939
2197.95	17.5385
2198.19	15.6834
2198.43	17.5399
2198.67	17.5436
2198.91	19.4037
2199.15	18.4806
2199.38	16.629
2199.62	16.6333
2199.86	17.5676
2200.1	18.5025
2200.34	24.0914
2200.58	19.4508
2200.82	16.6662
2201.06	17.6039
2201.3	18.5403
2201.54	16.6805
2201.77	17.6047
2202.01	16.6559
2202.25	16.6205
2202.49	19.3784
2202.73	18.4623
2202.97	16.6345
2203.21	15.7167
2203.45	19.4317
2203.68	21.2868
2203.92	20.3742
2204.16	18.5715
2204.4	17.616
2204.64	21.3438
2204.88	21.3469
2205.12	18.5362
2205.36	16.6572
2205.59	18.5044
2205.83	20.3534
2206.07	20.3499
2206.31	17.5607
2206.55	19.4241
2206.79	17.5643
2207.03	14.7685
2207.26	17.558
2207.5	18.49
2207.74	15.7029
2207.98	20.3567
2208.22	16.6389
2208.46	17.5726
2208.7	20.3682
2208.93	20.3714
2209.17	19.4427
2209.41	20.3755
2209.65	17.5824
2209.89	17.5821
2210.13	21.3063
2210.36	20.3753
2210.6	16.6516
2210.84	18.5167
2211.08	16.6557
2211.32	19.4536
2211.56	18.5241
2211.8	18.5267
2212.03	18.5303
2212.27	19.4664
2212.51	19.4689
2212.75	18.537
2212.99	17.6025
2213.23	16.6676
2213.46	17.5982
2213.7	17.595
2213.94	15.7268
2214.18	16.6596
2214.42	16.6624
2214.66	17.6017
2214.89	14.808
2215.13	18.5428
2215.37	20.411
2215.61	20.4119
2215.85	18.5451
2216.08	20.4125
2216.32	17.6112
2216.56	16.6768
2216.8	16.6759
2217.04	16.6747
2217.28	17.6072
2217.51	15.7395
2217.75	16.6733
2217.99	19.4746
2218.23	13.8721
2218.47	17.6061
2218.7	18.5401
2218.94	18.5415
2219.18	20.4115
2219.42	20.4147
2219.66	17.6152
2219.9	19.4855
2220.13	17.6184
2220.37	18.5543
2220.61	20.4227
2220.85	16.6831
2221.09	17.6166
2221.32	17.6143
2221.56	17.6098
2221.8	16.6707
2222.04	15.7328
2222.27	17.5966
2222.51	17.5939
2222.75	23.1938
2222.99	14.7932
2223.23	17.5959
2223.46	19.4657
2223.7	16.6666
2223.94	18.5385
2224.18	16.6744
2224.42	16.6791
2224.65	14.8132
2224.89	20.4283
2225.13	17.6258
2225.37	18.5648
2225.6	19.5049
2225.84	18.5738
2226.08	15.7681
2226.32	15.7709
2226.56	18.5845
2226.79	17.6499
2227.03	16.716
2227.27	19.531
2227.51	17.6585
2227.74	17.6602
2227.98	17.661
2228.22	17.6601
2228.46	16.7206
2228.69	19.5319
2228.93	17.655
2229.17	16.7161
2229.41	18.5897
2229.64	19.5267
2229.88	14.8413
2230.12	16.7205
2230.36	17.6622
2230.6	20.4799
2230.83	16.7294
2231.07	18.6097
2231.31	15.7965
2231.55	17.678
2231.78	16.7425
2232.02	18.6243
2232.26	17.6879
2232.5	17.6909
2232.73	19.5742
2232.97	21.458
2233.21	18.6401
2233.45	17.7024
2233.68	20.5277
2233.92	16.767
2234.16	18.6513
2234.39	19.5942
2234.63	16.769
2234.87	19.5908
2235.11	16.7648
2235.34	16.7614
2235.58	18.6362
2235.82	17.6907
2236.06	16.7503
2236.29	21.4526
2236.53	15.8106
2236.77	20.5137
2237	16.7518
2237.24	16.7523
2237.48	18.6375
2237.72	14.8767
2237.95	17.7062
2238.19	16.7713
2238.43	16.7772
2238.67	19.6088
2238.9	17.7281
2239.14	17.733
2239.38	20.5691
2239.61	14.9094
2239.85	17.7378
2240.09	18.6782
2240.33	15.8437
2240.56	21.496
2240.8	16.7798
2241.04	19.6157
2241.27	19.6226
2241.51	19.6235
2241.75	17.7372
2241.99	15.8509
2242.22	20.57
2242.46	18.6838
2242.7	13.9658
2242.93	20.5754
2243.17	19.6314
2243.41	16.7981
2243.64	16.7954
2243.88	16.7925
2244.12	18.6782
2244.36	16.7899
2244.59	15.8463
2244.83	18.6799
2245.07	17.7407
2245.3	15.8584
2245.54	16.8086
2245.78	19.6475
2246.01	14.9243
2246.25	19.6547
2246.49	19.6582
2246.72	18.7152
2246.96	17.7707
2247.2	16.8268
2247.43	14.9362
2247.67	17.7766
2247.91	18.7234
2248.14	17.7763
2248.38	17.775
2248.62	18.7198
2248.85	18.7182
2249.09	16.8243
2249.33	15.8767
2249.56	20.6065
2249.8	20.6097
2250.04	16.8259
2250.27	18.7182
2250.51	17.7691
2250.75	18.7115
2250.98	20.5992
2251.22	17.7566
2251.46	17.7529
2251.69	15.8591
2251.93	19.6394
2252.17	19.6398
2252.4	16.8048
2252.64	17.7527
2252.88	15.864
2253.11	14.9223
2253.35	18.7169
2253.59	16.8293
2253.82	18.7287
2254.06	17.7851
2254.3	13.9966
2254.53	17.7909
2254.77	16.8448
2255.01	14.0001
2255.24	17.7907
2255.48	17.7911
2255.72	21.5835
2255.95	18.7393
2256.19	18.7397
2256.42	18.7425
2256.66	18.7456
2256.9	19.6972
2257.13	20.6489
2257.37	17.8046
2257.61	17.8071
2257.84	18.7589
2258.08	16.8614
2258.32	16.862
2258.55	15.9126
2258.79	15.9132
2259.02	18.7638
2259.26	16.8661
2259.5	17.8183
2259.73	19.7201
2259.97	15.9201
2260.2	17.8223
2260.44	18.7743
2260.68	17.8251
2260.91	20.6786
2261.15	16.8778
2261.39	16.8828
2261.62	19.7401
2261.86	15.9348
2262.1	16.8869
2262.33	18.7911
2262.57	18.7923
2262.8	19.7463
2263.04	14.9899
2263.28	16.8973
2263.51	16.9013
2263.75	18.8117
2263.98	17.8647
2264.22	16.9178
2264.46	18.8316
2264.69	18.8377
2264.93	19.7973
2265.16	17.8921
2265.4	18.8504
2265.64	16.9429
2265.87	16.9431
2266.11	18.8539
2266.34	17.8968
2266.58	16.9375
2266.81	16.9331
2267.05	19.7921
2267.29	16.9244
2267.52	17.8754
2267.76	18.8264
2267.99	18.823
2268.23	18.8184
2268.47	15.9542
2268.7	17.8598
2268.94	18.8135
2269.17	18.8157
2269.41	15.0038
2269.65	15.0073
2269.88	18.8288
2270.12	18.834
2270.35	17.885
2270.59	16.9349
2270.82	17.8933
2271.06	19.8065
2271.3	17.8986
2271.53	20.7696
2271.77	15.9908
2272	15.9927
2272.24	17.9083
2272.47	16.9531
2272.71	16.9531
2272.95	15.9967
2273.18	18.8675
2273.42	19.8251
2273.65	16.955
2273.89	16.9555
2274.12	15.042
2274.36	15.0423
2274.6	18.8711
2274.83	17.9145
2275.07	16.9578
2275.3	18.8733
2275.54	15.0444
2275.77	18.8747
2276.01	21.746
2276.24	18.8761
2276.48	18.8802
2276.72	18.8845
2276.95	19.8465
2277.18	15.0577
2277.42	15.0607
2277.66	21.7784
2277.89	18.908
2278.13	16.9954
2278.36	17.9624
2278.6	17.9647
2278.83	17.9657
2279.07	15.0841
2279.3	17.9644
2279.54	17.9628
2279.78	16.999
2280.01	18.9105
2280.24	16.9856
2280.48	20.8176
2280.72	17.9352
2280.95	15.0548
2281.19	19.8458
2281.42	17.9262
2281.66	16.965
2281.89	18.8798
2282.13	17.9229
2282.36	16.0066
2282.6	19.8435
2282.83	15.0522
2283.07	16.9737
2283.3	17.9366
2283.54	16.9816
2283.77	14.1076
2284.01	16.9954
2284.24	19.885
2284.48	16.0483
2284.71	18.9372
2284.95	18.939
2285.19	16.0569
2285.42	16.0601
2285.65	17.9856
2285.89	17.0233
2286.12	16.0571
2286.36	17.9742
2286.59	18.935
2286.83	17.0123
2287.06	18.9388
2287.3	17.0222
2287.54	17.9913
2287.77	17.0306
2288	17.9952
2288.24	18.9631
2288.47	17.0346
2288.71	17.0316
2288.94	22.8072
2289.18	19.9139
2289.41	19.9075
2289.65	19.8996
2289.88	22.7782
2290.12	18.9222
2290.35	16.0348
2290.59	16.9941
2290.82	17.9551
2291.06	16.9937
2291.29	16.9957
2291.53	20.8469
2291.76	19.8914
2292	21.8202
2292.23	18.9361
2292.47	17.0136
2292.7	18.9422
2292.94	18.9463
2293.17	25.6935
2293.41	15.099
2293.64	17.9918
2293.88	17.9934
2294.11	20.8856
2294.34	18.9561
2294.58	17.026
2294.81	17.9865
2295.05	17.0193
2295.28	17.9797
2295.52	17.0137
2295.75	17.0109
2295.99	16.0452
2296.22	19.8938
2296.46	16.0387
2296.69	19.8802
2296.93	17.9545
2297.16	16.0313
2297.39	16.9954
2297.63	19.8856
2297.86	15.0762
2298.1	17.006
2298.33	17.0114
2298.57	17.0147
2298.8	18.9441
2299.04	19.9113
2299.27	18.9519
2299.51	16.0625
2299.74	15.1004
2299.97	14.1368
2300.21	17.9947
2300.44	17.0297
2300.68	17.9935
2300.91	17.9952
2301.15	17.9979
2301.38	16.0697
2301.61	18.9666
2301.85	20.898
2302.08	17.037
2302.32	19.9318
2302.55	15.1037
2302.79	17.9976
2303.02	17.0324
2303.25	19.927
2303.49	17.9953
2303.72	15.0994
2303.96	18.9596
2304.19	17.0307
2304.43	18.9639
2304.66	20.8976
2304.89	18.0026
2305.13	18.0048
2305.36	17.0418
2305.6	14.145
2305.83	18.9761
2306.07	16.0785
2306.3	18.9793
2306.53	17.0482
2306.77	17.0485
2307	18.9816
2307.24	18.9809
2307.47	16.0803
2307.7	17.0448
2307.94	17.0422
2308.17	18.0068
2308.41	16.0723
2308.64	16.0705
2308.87	18.9684
2309.11	18.0027
2309.34	19.9377
2309.58	18.0077
2309.81	18.0118
2310.04	18.9841
2310.28	18.9878
2310.51	18.0218
2310.75	17.0545
2310.98	18.9884
2311.21	16.0841
2311.45	18.014
2311.68	17.0368
2311.92	17.9912
2312.15	15.0878
2312.38	18.9448
2312.62	19.9067
2312.85	17.0078
2313.08	18.9349
2313.32	17.0044
2313.55	17.006
2313.79	18.9413
2314.02	19.914
2314.25	17.0215
2314.49	16.0599
2314.72	17.0309
2314.95	18.0039
2315.19	15.1077
2315.42	19.9472
2315.66	19.9414
2315.89	16.0681
2316.12	15.0977
2316.36	19.9258
2316.59	17.9824
2316.82	19.9083
2317.06	16.0427
2317.29	17.0075
2317.52	18.9392
2317.76	17.0085
2317.99	19.9104
2318.23	17.9813
2318.46	17.9748
2318.69	18.937
2318.93	20.8651
2319.16	20.8614
2319.39	16.9965
2319.63	18.9237
2319.86	18.9212
2320.09	16.0246
2320.33	21.8138
2320.56	18.9191
2320.79	20.8485
2321.03	24.7103
2321.26	18.9224
2321.5	22.7866
2321.73	22.7905
2321.96	19.8977
2322.2	22.8012
2322.43	23.7743
2322.66	24.7468
2322.9	21.8487
2323.13	22.8139
2323.36	23.7813
2323.6	25.7164
2323.83	25.7175
2324.06	30.5537
2324.3	26.6863
2324.53	27.6517
2324.76	28.6169
2325	33.4429
2325.23	33.4321
2325.46	33.4197
2325.7	43.0697
2325.93	41.1296
2326.16	50.7755
2326.4	55.5909
2326.63	76.8096
2326.86	91.2651
2327.09	144.3
2327.33	205.991
2327.56	277.296
2327.79	310.033
2328.03	250.219
2328.26	175.014
2328.49	126.831
2328.73	87.3133
2328.96	59.3625
2329.19	48.7496
2329.43	40.0681
2329.66	32.3508
2329.89	32.3474
2330.13	23.6773
2330.36	30.4229
2330.59	21.7515
2330.82	22.7124
2331.06	24.6359
2331.29	21.7456
2331.52	20.7836
2331.76	19.823
2331.99	17.8991
2332.22	21.7575
2332.46	15.9708
2332.69	16.9303
2332.92	19.8165
2333.16	15.9617
2333.39	21.7358
2333.62	17.8819
2333.85	15.9544
2334.09	18.8398
2334.32	15.9497
2334.55	17.8709
2334.79	20.7516
2335.02	19.7862
2335.25	18.822
2335.48	18.8209
2335.72	19.7809
2335.95	21.7046
2336.18	16.897
2336.41	19.7811
2336.65	20.7402
2336.88	20.7384
2337.11	18.814
2337.34	14.9669
2337.58	17.85
2337.81	17.8488
2338.04	16.8855
2338.28	16.8838
2338.51	17.8438
2338.74	16.8813
2338.97	15.9192
2339.21	15.9193
2339.44	20.7253
2339.67	18.8023
2339.91	18.8013
2340.14	17.8382
2340.37	13.0305
2340.6	15.9103
2340.84	16.8678
2341.07	15.9031
2341.3	18.7787
2341.53	19.7321
2341.77	14.9265
2342	16.8402
2342.23	16.8366
2342.46	16.8333
2342.7	17.789
2342.93	17.7866
2343.16	15.8678
2343.39	19.7014
2343.63	15.8667
2343.86	17.7826
2344.09	19.6985
2344.32	20.6569
2344.56	18.7406
2344.79	18.7408
2345.02	19.6985
2345.25	17.7796
2345.49	18.7357
2345.72	18.7322
2345.95	19.6849
2346.18	16.807
2346.41	16.8034
2346.65	15.844
2346.88	18.7155
2347.11	15.8414
2347.34	16.797
2347.58	14.8804
2347.81	19.6666
2348.04	17.7518
2348.27	16.7949
2348.5	15.8389
2348.74	19.6705
2348.97	19.6699
2349.2	17.7524
2349.43	16.7915
2349.67	18.6979
2349.9	18.6894
2350.13	21.548
2350.36	16.7567
2350.59	17.6988
2350.83	19.5825
2351.06	18.5886
2351.29	17.6647
2351.52	16.7688
2351.75	15.8284
2351.99	16.7508
2352.22	16.7315
2352.45	17.687
2352.68	15.7796
2352.91	18.6314
2353.15	16.7076
2353.38	16.6953
2353.61	17.6518
2353.84	18.6024
2354.07	16.6935
2354.31	17.6457
2354.54	19.5494
2354.77	18.6012
2355	15.7465
2355.23	16.6984
2355.47	15.744
2355.7	18.6003
2355.93	20.5034
2356.16	15.7378
2356.39	20.4965
2356.63	14.777
2356.86	18.5759
2357.09	16.6658
2357.32	19.5151
2357.55	17.6095
2357.79	20.4584
2358.02	19.5042
2358.25	17.6
2358.48	20.4489
2358.71	17.5958
2358.94	14.7412
2359.18	16.6392
2359.41	16.6376
2359.64	19.4859
2359.87	15.6838
2360.1	17.5799
2360.33	16.6262
2360.57	16.6218
2360.8	14.7195
2361.03	14.7156
2361.26	17.5573
2361.49	17.5525
2361.72	15.6514
2361.96	15.647
2362.19	15.6424
2362.42	16.5848
2362.65	16.5799
2362.88	19.4163
2363.11	18.4652
2363.34	14.6753
2363.58	17.5116
2363.81	16.5628
2364.04	17.5066
2364.27	15.612
2364.5	16.5551
2364.73	17.4979
2364.97	16.5492
