#Acq. time (s)=	30
#Accumulations=	2
#Range (cm-¹)=	1200...2365
#Windows=	3
#Auto scanning=	Off
#Autofocus=	Off
#Macrospot=	Off
#AutoExposure=	Off
#Spike filter=	Multiple accum.
#Delay time (s)=	2
#Binning=	1
#Readout mode=	Signal
#DeNoise=	Off
#ICS correction=	On
#Dark correction=	Off
#Inst. Process=	Off
#Detector Gain=	Best Dynamic
#Detector ADC=	50 kHz HS
#Detector temperature (°C)=	-60.09
#Instrument=	LabRAM HR Evol
#Detector=	SIN-EM FIVIS
#Objective=	x100_VIS_LWD
#Grating=	1800 (450-850nm)
#ND Filter=	100%
#Laser=	532nm_Edge
#Hole=	49.98
#Temperature=	0
#Range=	Visible
#StageXY=	75x50mm Scan+
#StageZ=	Z motor
#X (µm)=	0
#Y (µm)=	0
#Z (µm)=	33.2
#Full time(mm:ss)=	3:22
#Project=	21_11_22
#Sample=	BU19w
#Site=	
#Title=	BU19w-D-FFore2-FI12-V_1800 (450-850nm)_532nm_Edge_100%_x100_VIS_LWD_H50um_30sX2
#Remark=	
#Date=	22.11.2021 14:29
#Acquired=	22.11.2021 14:29:18
1202.84	23.0832
1203.12	23.072
1203.4	20.9158
1203.67	24.1223
1203.95	21.9677
1204.23	19.8165
1204.51	21.9528
1204.78	21.9475
1205.06	23.014
1205.34	26.2202
1205.62	23.0029
1205.9	19.7876
1206.17	27.2679
1206.45	26.1947
1206.73	21.9168
1207.01	25.1222
1207.29	21.9109
1207.56	26.1762
1207.84	22.9615
1208.12	24.0215
1208.39	21.8782
1208.67	21.8713
1208.95	23.9959
1209.23	22.9205
1209.51	20.7822
1209.78	25.0382
1210.06	21.8352
1210.34	18.6356
1210.62	27.1515
1210.89	26.0813
1211.17	22.8878
1211.45	23.9533
1211.72	20.7597
1212	25.0182
1212.28	26.0819
1212.56	20.7578
1212.84	23.95
1213.11	23.9442
1213.39	24.9999
1213.67	24.989
1213.94	24.9787
1214.22	22.8456
1214.5	26.0262
1214.78	22.8322
1215.05	21.7651
1215.33	23.8833
1215.61	24.9392
1215.89	24.936
1216.16	27.0566
1216.44	23.8709
1216.72	23.8684
1216.99	23.8635
1217.27	21.7411
1217.55	28.1054
1217.83	23.8614
1218.1	21.7384
1218.38	25.9756
1218.66	29.1517
1218.93	28.0839
1219.21	21.7165
1219.49	23.8246
1219.77	23.8128
1220.04	25.917
1220.32	25.9053
1220.6	28.0079
1220.88	26.9417
1221.15	26.9318
1221.43	26.9248
1221.71	25.8639
1221.98	29.0267
1222.26	30.0811
1222.54	26.9168
1222.81	32.1992
1223.09	26.9234
1223.37	30.0904
1223.64	25.8648
1223.92	25.8604
1224.2	31.1331
1224.48	26.8988
1224.75	31.0907
1225.03	31.0701
1225.31	28.9467
1225.58	29.9725
1225.86	35.2035
1226.14	34.1466
1226.41	34.2191
1226.69	30.074
1226.97	35.3302
1227.24	31.0812
1227.52	31.0676
1227.8	27.9106
1228.07	31.0577
1228.35	33.0954
1228.63	37.3012
1228.9	35.1991
1229.18	34.1475
1229.46	32.0417
1229.73	37.2941
1230.01	36.2417
1230.29	36.2378
1230.56	33.0851
1230.84	27.8342
1231.12	36.2413
1231.39	39.3967
1231.67	38.3513
1231.95	33.1031
1232.22	39.4124
1232.5	37.3133
1232.78	32.0614
1233.05	33.1158
1233.33	34.1672
1233.61	35.2144
1233.88	32.0555
1234.16	27.8454
1234.43	29.9372
1234.71	27.8261
1234.99	34.1151
1235.26	29.9051
1235.54	33.0413
1235.82	29.8851
1236.09	29.8797
1236.37	26.7302
1236.65	28.8239
1236.92	30.9182
1237.2	29.8689
1237.47	27.7722
1237.75	28.821
1238.03	30.9189
1238.3	27.7754
1238.58	26.7253
1238.85	24.6242
1239.13	29.8606
1239.41	27.7646
1239.68	27.7666
1239.96	31.9621
1240.24	30.9189
1240.51	28.8223
1240.79	26.7255
1241.06	25.6789
1241.34	26.7274
1241.62	27.7738
1241.89	28.8195
1242.17	27.7658
1242.45	26.7109
1242.72	27.7496
1243	22.5049
1243.27	24.5947
1243.55	25.6395
1243.83	21.4522
1244.1	24.5922
1244.38	21.4503
1244.65	28.7757
1244.93	26.6802
1245.2	27.7175
1245.48	29.8026
1245.76	24.5716
1246.03	26.6644
1246.31	27.7124
1246.59	26.6652
1246.86	25.6181
1247.14	23.5265
1247.41	31.8881
1247.69	27.698
1247.96	23.5108
1248.24	31.866
1248.51	31.8603
1248.79	26.6317
1249.07	23.4935
1249.34	25.5776
1249.62	27.6609
1249.89	24.5236
1250.17	26.6061
1250.45	24.5161
1250.72	22.4288
1251	26.6065
1251.27	25.5675
1251.55	26.617
1251.82	24.5314
1252.1	25.5758
1252.38	26.6218
1252.65	23.4892
1252.93	25.5765
1253.2	25.5774
1253.48	24.5348
1253.75	24.5385
1254.03	22.4508
1254.3	26.628
1254.58	25.5797
1254.86	24.5331
1255.13	31.8405
1255.41	28.7055
1255.68	27.6589
1255.96	22.4329
1256.23	27.6502
1256.51	28.6975
1256.78	25.568
1257.06	29.7591
1257.33	28.7069
1257.61	32.8764
1257.88	28.6899
1258.16	33.8989
1258.44	31.8069
1258.71	30.7644
1258.99	29.7465
1259.26	30.8281
1259.54	24.5834
1259.81	28.7195
1260.09	30.7719
1260.36	34.919
1260.64	35.998
1260.91	30.8036
1261.19	35.0115
1261.46	31.9001
1261.74	36.0602
1262.01	42.3207
1262.29	46.5006
1262.56	51.724
1262.84	51.7131
1263.11	53.8019
1263.39	54.8502
1263.66	56.9472
1263.94	48.5956
1264.21	43.3791
1264.49	46.5279
1264.76	36.0806
1265.04	35.0458
1265.31	35.0607
1265.59	31.9328
1265.86	30.8918
1266.14	30.8969
1266.41	28.8054
1266.69	29.8524
1266.96	31.9411
1267.24	36.1206
1267.51	27.7364
1267.79	34.0103
1268.06	31.9109
1268.34	28.7689
1268.61	26.6727
1268.89	32.9522
1269.16	30.866
1269.44	30.8746
1269.71	27.744
1269.99	31.9421
1270.26	27.759
1270.54	29.8626
1270.81	33.0157
1271.09	29.8784
1271.36	28.8348
1271.64	29.8855
1271.91	29.8846
1272.18	33.0312
1272.46	25.6913
1272.74	28.8429
1273.01	30.9466
1273.28	30.9538
1273.56	33.0593
1273.83	30.9656
1274.11	34.1205
1274.38	34.1285
1274.66	27.8328
1274.93	35.196
1275.21	26.794
1275.48	28.9015
1275.76	31.0132
1276.03	34.1737
1276.3	35.2322
1276.58	32.0746
1276.85	33.1241
1277.13	33.1198
1277.4	34.1697
1277.68	32.0689
1277.95	34.1749
1278.23	34.1831
1278.5	34.1944
1278.77	35.2527
1279.05	35.2514
1279.32	41.5703
1279.6	38.418
1279.87	41.5707
1280.15	46.8149
1280.42	48.874
1280.69	60.4112
1280.97	65.6676
1281.24	78.2886
1281.52	94.2789
1281.79	123.799
1282.07	161.743
1282.34	224.86
1282.61	263.729
1282.89	372.164
1283.16	451.231
1283.44	535.501
1283.71	508.008
1283.99	438.513
1284.26	302.677
1284.53	191.051
1284.81	131.025
1285.08	95.2282
1285.36	68.9177
1285.63	60.5006
1285.9	52.0847
1286.18	43.6714
1286.45	41.5737
1286.73	39.4753
1287	39.4834
1287.28	35.2772
1287.55	37.385
1287.82	36.3274
1288.1	33.1654
1288.37	30.0052
1288.64	31.0581
1288.92	27.8976
1289.19	28.9506
1289.47	32.1122
1289.74	28.9516
1290.01	25.7895
1290.29	32.1094
1290.56	26.8512
1290.84	27.9164
1291.11	28.9825
1291.38	26.8786
1291.66	26.8783
1291.93	31.0949
1292.21	31.0988
1292.48	27.9463
1292.75	29.0168
1293.03	30.0931
1293.3	29.0507
1293.57	23.7696
1293.85	27.9984
1294.12	29.0529
1294.4	29.048
1294.67	29.0422
1294.94	25.8668
1295.22	23.7481
1295.49	26.9177
1295.76	24.8047
1296.04	23.7448
1296.31	27.9645
1296.58	27.9601
1296.86	27.9592
1297.13	20.5736
1297.4	27.9669
1297.68	26.912
1297.95	27.9669
1298.22	24.7983
1298.5	19.5201
1298.77	24.8032
1299.04	25.8633
1299.32	24.8095
1299.59	27.9794
1299.87	25.8665
1300.14	25.865
1300.41	23.7501
1300.69	26.9139
1300.96	29.0244
1301.23	25.857
1301.51	22.6894
1301.78	21.6332
1302.05	22.6867
1302.33	23.7385
1302.6	25.8441
1302.87	23.728
1303.15	25.832
1303.42	22.6626
1303.69	23.715
1303.97	24.7692
1304.24	24.7715
1304.51	22.6629
1304.79	21.6079
1305.06	26.8811
1305.33	24.7734
1305.6	24.7717
1305.88	25.8274
1306.15	23.7217
1306.42	24.7801
1306.7	24.7838
1306.97	25.8419
1307.24	25.8414
1307.52	22.6738
1307.79	25.8395
1308.06	25.8406
1308.34	21.6205
1308.61	25.8432
1308.88	24.7895
1309.15	24.7938
1309.43	25.8535
1309.7	24.7996
1309.97	23.7433
1310.25	24.7951
1310.52	21.6268
1310.79	27.9588
1311.06	22.679
1311.34	23.7343
1311.61	20.5688
1311.88	27.9605
1312.16	25.8524
1312.43	24.7995
1312.7	24.8028
1312.98	22.6936
1313.25	22.6932
1313.52	22.6917
1313.79	20.5785
1314.07	21.634
1314.34	26.9142
1314.61	25.8615
1314.89	22.6952
1315.16	26.9223
1315.43	23.7542
1315.7	22.6984
1315.98	20.5856
1316.25	23.7544
1316.52	21.6407
1316.79	22.6962
1317.07	25.8669
1317.34	19.5287
1317.61	26.9226
1317.88	23.7502
1318.16	23.7452
1318.43	26.9059
1318.7	25.8418
1318.97	23.7268
1319.25	23.7198
1319.52	20.5522
1319.79	22.6587
1320.06	22.6556
1320.34	22.6503
1320.61	24.7619
1320.88	22.6542
1321.16	24.7637
1321.43	23.7083
1321.7	24.7634
1321.97	23.7078
1322.25	25.8192
1322.52	22.6504
1322.79	22.6405
1323.06	25.788
1323.33	22.611
1323.61	21.5519
1323.88	24.7054
1324.15	22.6076
1324.42	24.7295
1324.7	25.7916
1324.97	19.478
1325.24	18.4312
1325.51	23.7115
1325.79	22.6644
1326.06	19.5024
1326.33	23.7188
1326.6	22.6668
1326.87	24.7759
1327.15	25.829
1327.42	22.6614
1327.69	21.6027
1327.96	23.7066
1328.23	27.9159
1328.51	24.7445
1328.78	21.5739
1329.05	23.6719
1329.32	23.6654
1329.6	24.7105
1329.87	24.7022
1330.14	23.6418
1330.41	25.7365
1330.68	25.7286
1330.96	22.5695
1331.23	21.5129
1331.5	22.5573
1331.77	22.5518
1332.04	20.4479
1332.32	24.6412
1332.59	22.5383
1332.86	24.6322
1333.13	21.4818
1333.4	22.5272
1333.67	25.6695
1333.95	24.6181
1334.22	23.5675
1334.49	21.4692
1334.76	20.4189
1335.03	20.4143
1335.3	19.3617
1335.58	25.6432
1335.85	25.6391
1336.12	24.5889
1336.39	21.4468
1336.66	23.5416
1336.94	21.4486
1337.21	21.4492
1337.48	25.6388
1337.75	25.6398
1338.02	24.5921
1338.29	27.7327
1338.57	22.4951
1338.84	23.5397
1339.11	24.583
1339.38	26.6712
1339.65	23.5251
1339.93	24.565
1340.2	24.5612
1340.47	22.4675
1340.74	25.6042
1341.01	22.4664
1341.28	22.4667
1341.55	19.3292
1341.82	22.465
1342.1	24.5527
1342.37	23.5019
1342.64	23.4948
1342.91	17.2198
1343.18	22.4365
1343.45	22.4258
1343.73	23.4617
1344	23.4547
1344.27	24.4904
1344.54	20.3128
1344.81	24.4788
1345.08	21.3485
1345.35	23.4311
1345.63	21.3449
1345.9	24.4679
1346.17	22.3797
1346.44	26.5419
1346.71	26.537
1346.98	26.5322
1347.25	22.3632
1347.52	20.2774
1347.8	23.3945
1348.07	22.3482
1348.34	23.3846
1348.61	25.4586
1348.88	26.4961
1349.15	26.4954
1349.42	24.4183
1349.69	24.4232
1349.96	21.3094
1350.24	24.4337
1350.51	20.2875
1350.78	25.5222
1351.05	25.5007
1351.32	23.3817
1351.59	23.355
1351.86	23.3575
1352.13	23.3604
1352.41	25.4303
1352.68	25.4241
1352.95	21.2762
1353.22	24.3968
1353.49	26.4686
1353.76	23.3499
1354.03	27.5023
1354.3	24.3841
1354.57	23.3426
1354.84	25.4155
1355.11	24.3731
1355.39	23.3309
1355.66	27.4776
1355.93	24.3598
1356.2	25.3922
1356.47	26.4256
1356.74	25.3852
1357.01	23.3057
1357.28	24.3351
1357.55	24.3283
1357.82	25.3594
1358.09	25.3572
1358.36	25.3566
1358.63	25.3558
1358.9	29.4973
1359.18	25.3516
1359.45	24.3132
1359.72	21.2045
1359.99	25.3451
1360.26	26.3819
1360.53	28.4573
1360.8	23.2825
1361.07	26.3929
1361.34	28.4648
1361.61	26.3913
1361.88	26.3886
1362.15	24.3131
1362.42	30.5196
1362.69	25.3371
1362.97	25.3313
1363.24	31.5333
1363.51	28.4228
1363.78	23.2444
1364.05	28.4052
1364.32	28.4001
1364.59	28.3973
1364.86	27.3667
1365.13	27.3691
1365.4	30.4719
1365.67	31.5075
1365.94	21.1711
1366.21	25.3084
1366.48	31.5142
1366.75	25.3077
1367.02	31.5073
1367.29	29.4364
1367.56	28.3959
1367.83	28.3918
1368.1	29.4198
1368.37	36.6415
1368.64	45.9217
1368.91	55.1924
1369.18	46.9182
1369.45	35.5573
1369.72	31.4235
1369.99	30.387
1370.26	31.4136
1370.54	29.3485
1370.81	29.3454
1371.08	29.3429
1371.34	27.2801
1371.62	27.2783
1371.89	28.3065
1372.16	30.3629
1372.43	29.3336
1372.7	32.428
1372.97	34.4876
1373.24	34.4902
1373.51	28.3017
1373.78	30.3545
1374.05	33.4331
1374.32	33.4176
1374.59	33.4214
1374.86	34.4589
1375.13	40.6505
1375.4	35.5189
1375.67	35.5398
1375.94	37.6085
1376.21	33.4835
1376.48	38.6335
1376.75	38.6282
1377.02	40.6818
1377.29	35.5157
1377.56	41.6614
1377.83	45.7579
1378.09	43.6809
1378.36	40.6043
1378.64	42.6514
1378.91	45.7154
1379.18	42.6105
1379.44	48.7539
1379.71	49.7631
1379.98	46.665
1380.25	51.7816
1380.52	49.7147
1380.79	53.8076
1381.06	54.8241
1381.33	49.6997
1381.6	56.8807
1381.87	58.9419
1382.14	50.7507
1382.41	55.9023
1382.68	56.9434
1382.95	66.1973
1383.22	60.0442
1383.49	64.1654
1383.76	64.1719
1384.03	71.362
1384.3	77.4763
1384.57	90.6452
1384.84	90.4891
1385.11	113.924
1385.38	146.786
1385.65	189.032
1385.92	276.47
1386.19	439.92
1386.45	657.612
1386.72	1036.65
1386.99	1236.53
1387.26	1021.22
1387.53	599.296
1387.8	337.851
1388.07	210.605
1388.34	128.595
1388.61	89.6435
1388.88	78.3536
1389.15	70.1389
1389.42	61.9305
1389.69	47.5854
1389.96	51.6739
1390.23	42.4551
1390.49	49.6157
1390.76	41.4236
1391.03	41.4202
1391.3	35.2776
1391.57	36.2986
1391.84	41.4131
1392.11	36.3004
1392.38	30.1658
1392.65	32.2167
1392.92	33.2422
1393.19	33.2414
1393.46	29.1446
1393.73	29.1413
1393.99	32.2075
1394.26	33.2248
1394.53	34.2416
1394.8	30.1468
1395.07	29.1235
1395.34	30.1482
1395.61	33.2206
1395.88	30.1539
1396.15	24.0168
1396.42	28.1138
1396.68	31.1873
1396.95	27.0963
1397.22	29.1433
1397.49	25.0525
1397.76	29.1542
1398.03	30.182
1398.3	30.1813
1398.57	25.0639
1398.84	25.0641
1399.11	27.1207
1399.38	26.1105
1399.64	30.2289
1399.91	25.1122
1400.18	30.2528
1400.45	27.178
1400.72	23.0721
1400.99	27.1739
1401.26	32.2878
1401.53	26.1359
1401.79	29.2117
1402.06	24.0793
1402.33	26.1265
1402.6	27.1471
1402.87	26.1171
1403.14	30.2134
1403.41	27.1352
1403.68	32.2574
1403.94	29.184
1404.21	29.1861
1404.48	29.1887
1404.75	33.2913
1405.02	31.2428
1405.29	31.2447
1405.56	32.2719
1405.82	36.3763
1406.09	31.2518
1406.36	36.3828
1406.63	41.5145
1406.9	45.6203
1407.17	43.5697
1407.44	53.8179
1407.7	60.9814
1407.97	64.0375
1408.24	68.1218
1408.51	75.2828
1408.78	74.2482
1409.05	60.9267
1409.31	53.7628
1409.58	42.5037
1409.85	41.5023
1410.12	36.419
1410.39	32.3356
1410.66	31.2876
1410.92	26.1158
1411.19	32.2733
1411.46	28.1901
1411.73	27.1784
1412	25.1231
1412.27	26.1509
1412.53	24.0977
1412.8	27.1785
1413.07	25.1272
1413.34	28.2102
1413.61	27.1861
1413.88	24.1077
1414.14	25.1378
1414.41	24.1136
1414.68	27.1987
1414.95	26.1729
1415.22	28.2287
1415.48	24.1194
1415.75	22.0655
1416.02	25.1487
1416.29	23.0942
1416.56	24.1196
1416.82	24.1153
1417.09	24.1105
1417.36	24.1062
1417.63	25.1283
1417.9	21.0164
1418.17	21.0125
1418.43	24.0895
1418.7	25.1172
1418.97	21.0167
1419.24	23.0782
1419.5	16.9214
1419.77	25.1537
1420.04	23.1167
1420.31	25.1974
1420.58	20.0111
1420.84	26.1097
1421.11	19.9681
1421.38	21.9983
1421.65	21.9953
1421.92	24.0535
1422.18	22.0158
1422.45	23.0493
1422.72	23.0425
1422.99	24.078
1423.26	24.0763
1423.52	20.9955
1423.79	25.0918
1424.06	24.06
1424.33	25.078
1424.59	19.946
1424.86	24.0356
1425.13	24.0317
1425.4	21.9823
1425.66	21.9826
1425.93	20.96
1426.2	16.8656
1426.47	23.0125
1426.73	20.9675
1427	25.0701
1427.27	26.1016
1427.54	24.0574
1427.81	25.0897
1428.07	20.9974
1428.34	24.0835
1428.61	18.9562
1428.88	21.0094
1429.14	27.1632
1429.41	21.0011
1429.68	23.0494
1429.94	23.043
1430.21	24.0597
1430.48	23.025
1430.75	16.8699
1431.02	18.9138
1431.28	24.0317
1431.55	20.9684
1431.82	17.8998
1432.08	24.049
1432.35	21.9998
1432.62	18.9253
1432.89	18.9245
1433.15	17.8988
1433.42	21.9959
1433.69	21.994
1433.96	21.992
1434.22	27.1116
1434.49	24.0381
1434.76	21.9874
1435.02	23.0103
1435.29	19.9389
1435.56	19.9419
1435.83	18.9195
1436.09	23.0181
1436.36	20.9703
1436.63	17.8995
1436.89	24.053
1437.16	20.9841
1437.43	20.9871
1437.7	22.0139
1437.96	20.989
1438.23	20.9902
1438.5	22.0144
1438.77	24.0615
1439.03	19.9585
1439.3	28.1656
1439.57	20.9885
1439.83	22.0185
1440.1	17.914
1440.37	19.9617
1440.63	20.9841
1440.9	22.0072
1441.17	22.0063
1441.43	19.9571
1441.7	18.9375
1441.97	17.9163
1442.24	19.9747
1442.5	17.9212
1442.77	22.0231
1443.03	20.9956
1443.3	19.9681
1443.57	17.9154
1443.84	22.0164
1444.1	17.9128
1444.37	19.9619
1444.64	20.9847
1444.9	19.9574
1445.17	17.9068
1445.44	20.9858
1445.7	23.0421
1445.97	18.941
1446.24	22.0179
1446.5	16.8883
1446.77	23.039
1447.04	17.9088
1447.3	23.0315
1447.57	23.0296
1447.84	20.978
1448.1	22.0013
1448.37	24.0491
1448.64	18.9232
1448.9	20.9707
1449.17	19.9445
1449.44	16.8701
1449.7	20.9685
1449.97	21.9941
1450.24	20.9719
1450.5	18.9245
1450.77	20.9745
1451.04	15.8493
1451.3	20.9719
1451.57	19.9473
1451.83	21.9968
1452.1	18.9223
1452.37	19.9457
1452.63	18.9212
1452.9	18.9246
1453.17	17.9016
1453.43	19.9516
1453.7	17.9004
1453.97	21.9963
1454.23	20.9682
1454.5	18.9177
1454.77	20.9654
1455.03	18.9157
1455.3	16.8671
1455.56	16.8675
1455.83	18.9175
1456.1	23.0166
1456.36	17.8946
1456.63	20.9689
1456.9	20.9682
1457.16	17.8934
1457.43	18.9166
1457.69	17.8907
1457.96	18.9132
1458.23	25.0555
1458.49	17.8844
1458.76	20.9535
1459.02	21.9737
1459.29	18.8993
1459.56	20.9422
1459.82	24.0071
1460.09	19.9102
1460.36	16.8376
1460.62	18.8788
1460.89	18.8778
1461.15	21.9513
1461.42	18.8922
1461.69	16.852
1461.95	21.9794
1462.22	21.9669
1462.48	19.8825
1462.75	18.8452
1463.02	19.8627
1463.28	20.8899
1463.55	18.8473
1463.81	19.8594
1464.08	19.856
1464.35	17.8178
1464.61	17.8167
1464.88	18.8356
1465.14	19.8548
1465.41	19.8545
1465.67	20.8741
1465.94	17.813
1466.21	20.871
1466.47	19.8488
1466.74	20.8647
1467	22.8985
1467.27	19.8367
1467.54	20.853
1467.8	20.8506
1468.07	21.8678
1468.33	18.809
1468.6	21.8609
1468.86	21.8578
1469.13	19.8196
1469.39	16.7641
1469.66	20.8366
1469.93	19.8178
1470.19	16.762
1470.46	19.8136
1470.72	18.7928
1470.99	18.7905
1471.25	18.7891
1471.52	19.8067
1471.79	21.8438
1472.05	16.7563
1472.32	21.8457
1472.58	14.7205
1472.85	20.8256
1473.11	17.7701
1473.38	22.8557
1473.64	21.8364
1473.91	20.8158
1474.17	18.7782
1474.44	19.7936
1474.71	16.742
1474.97	17.7585
1475.24	21.8239
1475.5	15.7199
1475.77	19.7836
1476.03	17.748
1476.3	19.7774
1476.56	20.7897
1476.83	20.7853
1477.09	15.7031
1477.36	19.7585
1477.62	17.7229
1477.89	17.7194
1478.15	19.7469
1478.42	17.7147
1478.68	22.7888
1478.95	16.7041
1479.22	18.7369
1479.48	19.7558
1479.75	17.7285
1480.01	18.7438
1480.28	17.7306
1480.54	18.7473
1480.81	17.7319
1481.07	21.7932
1481.34	20.7698
1481.6	17.7151
1481.87	15.6697
1482.13	18.6848
1482.4	16.6525
1482.66	19.6703
1482.93	20.7289
1483.19	18.7084
1483.46	20.7445
1483.72	17.6832
1483.99	19.7188
1484.25	20.7357
1484.52	19.7164
1484.78	19.7118
1485.05	19.7091
1485.31	19.7059
1485.58	19.7017
1485.84	17.6726
1486.11	18.6812
1486.37	19.691
1486.64	16.6541
1486.9	21.7112
1487.17	22.7227
1487.43	14.6293
1487.7	18.6737
1487.96	15.636
1488.22	19.6774
1488.49	18.6645
1488.75	22.7076
1489.02	17.6525
1489.28	21.6975
1489.55	17.6527
1489.81	19.6737
1490.08	20.6839
1490.34	19.673
1490.61	20.6825
1490.87	22.7033
1491.14	20.6819
1491.4	18.6614
1491.67	20.685
1491.93	17.6515
1492.19	20.6812
1492.46	17.6437
1492.72	21.678
1492.99	20.6618
1493.25	18.6386
1493.52	16.6169
1493.78	19.6432
1494.05	17.6218
1494.31	20.6495
1494.58	15.603
1494.84	20.6481
1495.1	17.62
1495.37	22.6662
1495.63	14.5928
1495.9	16.6118
1496.16	18.6311
1496.43	21.6604
1496.69	19.6434
1496.96	19.6451
1497.22	20.6554
1497.48	18.6361
1497.75	20.6546
1498.01	16.6159
1498.28	18.6331
1498.54	17.6201
1498.81	17.619
1499.07	19.6367
1499.34	17.6178
1499.6	21.6523
1499.86	19.6301
1500.13	20.6347
1500.39	22.6494
1500.66	21.6369
1500.92	18.6117
1501.18	17.6052
1501.45	16.5975
1501.71	19.623
1501.98	17.6054
1502.24	18.6119
1502.5	17.6009
1502.77	16.5883
1503.03	16.5822
1503.3	17.5884
1503.56	21.6176
1503.83	21.6183
1504.09	18.5987
1504.35	19.6071
1504.62	17.5925
1504.88	18.6001
1505.15	19.6065
1505.41	17.5902
1505.67	17.5905
1505.94	16.5835
1506.2	21.622
1506.47	20.6141
1506.73	19.6063
1506.99	16.5851
1507.26	17.5943
1507.52	18.5985
1507.78	18.595
1508.05	18.5907
1508.31	16.5717
1508.58	20.5915
1508.84	18.5687
1509.1	17.5535
1509.37	19.5549
1509.63	18.542
1509.9	18.5371
1510.16	20.5411
1510.42	17.5254
1510.69	17.5238
1510.95	20.5396
1511.21	18.5389
1511.48	20.55
1511.74	18.5388
1512.01	17.5305
1512.27	20.5377
1512.53	19.5288
1512.8	22.5331
1513.06	19.5171
1513.32	18.51
1513.59	17.5054
1513.85	20.5121
1514.11	17.5028
1514.38	21.5127
1514.64	18.5052
1514.9	19.5091
1515.17	17.5068
1515.43	16.5049
1515.7	16.506
1515.96	19.5162
1516.22	21.5243
1516.49	18.5162
1516.75	19.5204
1517.01	17.5135
1517.28	18.5151
1517.54	20.52
1517.8	17.5116
1518.07	20.5231
1518.33	16.5115
1518.59	21.5291
1518.86	17.5148
1519.12	16.51
1519.38	20.5209
1519.65	17.5092
1519.91	18.5104
1520.17	17.5046
1520.44	16.4969
1520.7	21.5011
1520.96	22.4971
1521.23	18.4858
1521.49	21.487
1521.75	17.4783
1522.02	21.4858
1522.28	19.4839
1522.54	19.4846
1522.81	19.4873
1523.07	19.4909
1523.33	20.4982
1523.59	17.4955
1523.86	20.5041
1524.12	16.4942
1524.38	19.4986
1524.65	17.493
1524.91	21.4999
1525.17	19.4941
1525.44	21.4956
1525.7	20.4915
1525.96	18.4862
1526.23	18.4852
1526.49	17.4833
1526.75	20.4869
1527.02	20.4836
1527.28	18.4798
1527.54	20.4844
1527.8	15.4802
1528.07	19.4908
1528.33	19.4938
1528.59	20.4964
1528.86	17.489
1529.12	18.4916
1529.38	17.4871
1529.64	19.493
1529.91	18.4959
1530.17	16.4972
1530.43	19.5112
1530.69	18.5109
1530.96	17.5093
1531.22	19.5155
1531.48	20.5175
1531.75	19.5129
1532.01	19.5108
1532.27	19.5091
1532.53	17.5004
1532.8	18.4937
1533.06	18.4881
1533.32	18.484
1533.59	20.4803
1533.85	16.469
1534.11	17.4641
1534.37	20.4631
1534.64	19.458
1534.9	20.4586
1535.16	21.4546
1535.42	19.4483
1535.69	22.4452
1535.95	18.4447
1536.21	21.4488
1536.48	17.4595
1536.74	20.4755
1537	17.4811
1537.26	17.4883
1537.53	17.496
1537.79	19.5063
1538.05	21.5146
1538.31	18.4981
1538.58	21.5045
1538.84	20.4966
1539.1	14.4802
1539.36	21.488
1539.62	19.4799
1539.89	20.4765
1540.15	22.4738
1540.41	19.4663
1540.67	18.4597
1540.94	18.4532
1541.2	10.4533
1541.46	23.4557
1541.72	18.4587
1541.98	17.4637
1542.25	20.47
1542.51	21.4794
1542.77	17.4782
1543.03	24.4917
1543.3	20.4876
1543.56	19.4847
1543.82	20.4873
1544.08	19.4877
1544.35	17.4861
1544.61	17.4881
1544.87	23.4957
1545.13	17.4752
1545.39	20.4792
1545.66	16.4743
1545.92	19.485
1546.18	17.4657
1546.44	14.4481
1546.71	22.4406
1546.97	16.4525
1547.23	18.4713
1547.49	17.4968
1547.75	19.523
1548.02	17.5338
1548.28	20.5335
1548.54	14.511
1548.8	17.52
1549.06	20.5249
1549.33	21.5379
1549.59	18.5337
1549.85	21.5442
1550.11	18.5264
1550.37	20.5192
1550.64	21.519
1550.9	21.5173
1551.16	20.5102
1551.42	19.5017
1551.68	20.4976
1551.94	21.4921
1552.21	24.4947
1552.47	20.4861
1552.73	19.4842
1552.99	20.4872
1553.25	18.484
1553.52	20.4843
1553.78	23.4895
1554.04	20.4858
1554.3	21.4888
1554.56	21.4892
1554.82	18.4828
1555.09	23.4873
1555.35	15.4699
1555.61	23.4742
1555.87	20.4642
1556.13	20.4579
1556.39	21.4526
1556.65	22.4478
1556.92	22.4438
1557.18	20.4414
1557.44	21.4387
1557.7	20.4376
1557.96	20.4363
1558.22	19.4368
1558.49	20.4374
1558.75	14.4437
1559.01	18.4469
1559.27	23.4532
1559.53	19.4528
1559.79	17.4517
1560.05	21.4503
1560.32	21.4514
1560.58	16.4494
1560.84	21.4478
1561.1	21.4552
1561.36	20.4629
1561.62	16.4624
1561.88	19.4635
1562.15	21.4537
1562.41	18.421
1562.67	22.3607
1562.93	22.3297
1563.19	18.427
1563.45	20.45
1563.71	22.4388
1563.98	19.4268
1564.24	21.4416
1564.5	18.4595
1564.76	20.4561
1565.02	19.4418
1565.28	16.4449
1565.54	19.4468
1565.8	19.4482
1566.07	23.446
1566.33	21.4383
1566.59	18.4357
1566.85	20.4344
1567.11	22.4348
1567.37	21.4359
1567.63	23.435
1567.89	21.4357
1568.15	22.4341
1568.42	22.4321
1568.68	19.4312
1568.94	21.4256
1569.2	23.4227
1569.46	19.4247
1569.72	22.4166
1569.98	21.4149
1570.24	20.4135
1570.5	19.412
1570.77	18.4112
1571.03	24.3996
1571.29	25.4021
1571.55	19.4173
1571.81	21.4193
1572.07	22.4236
1572.33	19.4314
1572.59	20.4343
1572.85	17.4371
1573.11	23.4317
1573.37	21.4327
1573.64	22.4295
1573.9	23.4213
1574.16	16.4229
1574.42	24.4021
1574.68	20.4025
1574.94	21.3934
1575.2	22.3842
1575.46	20.386
1575.72	19.3878
1575.98	22.3784
1576.24	19.3874
1576.5	18.3906
1576.76	21.3825
1577.03	17.3971
1577.29	22.3843
1577.55	20.3903
1577.81	20.3894
1578.07	20.3871
1578.33	20.3838
1578.59	19.3844
1578.85	23.3667
1579.11	23.3617
1579.37	19.3747
1579.63	21.3658
1579.89	23.3564
1580.15	20.3667
1580.41	23.3543
1580.67	23.3537
1580.93	23.3513
1581.19	22.3552
1581.46	16.381
1581.72	20.3664
1581.98	24.3517
1582.24	19.3708
1582.5	23.3539
1582.76	18.3731
1583.02	21.3592
1583.28	23.3457
1583.54	21.3489
1583.8	22.3404
1584.06	22.3374
1584.32	19.3498
1584.58	21.338
1584.84	22.3318
1585.1	19.3471
1585.36	26.3137
1585.62	23.3312
1585.88	22.3393
1586.14	23.3374
1586.4	23.3403
1586.66	18.3645
1586.92	18.3651
1587.18	23.3431
1587.44	21.3535
1587.7	20.3601
1587.96	19.3661
1588.22	23.349
1588.48	19.3653
1588.74	19.364
1589	21.3534
1589.26	23.3396
1589.52	19.3515
1589.78	22.3318
1590.04	21.3336
1590.3	23.3147
1590.56	22.3114
1590.82	23.2957
1591.08	21.3029
1591.34	23.2865
1591.6	28.2526
1591.86	22.2957
1592.12	25.2808
1592.38	24.2904
1592.64	26.278
1592.9	22.2929
1593.16	24.2789
1593.42	19.3127
1593.68	19.3128
1593.94	23.2865
1594.2	20.3081
1594.46	23.29
1594.72	18.3245
1594.98	20.311
1595.24	23.2892
1595.5	21.2986
1595.76	22.2857
1596.02	20.2949
1596.28	24.2611
1596.54	23.2646
1596.8	20.2841
1597.06	21.2726
1597.32	23.2528
1597.58	25.2316
1597.84	25.2254
1598.1	25.2176
1598.36	21.2461
1598.62	22.2297
1598.88	22.2236
1599.14	22.219
1599.4	18.2554
1599.66	21.2202
1599.92	28.1405
1600.18	24.1777
1600.44	22.1953
1600.7	23.1813
1600.96	23.1793
1601.22	23.1787
1601.48	22.1903
1601.73	24.1684
1601.99	25.1574
1602.25	23.1803
1602.51	23.1811
1602.77	28.1274
1603.03	23.1855
1603.29	20.221
1603.55	26.1593
1603.81	22.2044
1604.07	19.2379
1604.33	23.1963
1604.59	28.1434
1604.85	22.2056
1605.11	23.1947
1605.37	24.1837
1605.63	21.215
1605.89	21.2133
1606.14	25.1642
1606.4	24.1677
1606.66	25.1501
1606.92	25.1429
1607.18	24.1344
1607.44	23.146
1607.7	18.3566
1607.96	25.0668
1608.22	20.3918
1608.48	24.9811
1608.74	25.7424
1609	21.1302
1609.26	25.5396
1609.51	20.3956
1609.77	23.6927
1610.03	25.5303
1610.29	24.1363
1610.55	24.6002
1610.81	22.4211
1611.07	22.3138
1611.33	24.6888
1611.59	22.1151
1611.85	22.6468
1612.11	25.1107
1612.36	23.1775
1612.62	26.3713
1612.88	21.9326
1613.14	21.931
1613.4	20.3725
1613.66	24.5359
1613.92	25.1185
1614.18	24.228
1614.44	24.7754
1614.7	21.909
1614.95	22.2062
1615.21	22.0677
1615.47	24.0313
1615.73	23.7224
1615.99	22.0144
1616.25	21.4593
1616.51	23.3118
1616.77	24.7778
1617.03	27.6477
1617.28	26.2268
1617.54	25.1588
1617.8	23.9132
1618.06	22.494
1618.32	24.1616
1618.58	23.905
1618.84	23.3936
1619.1	24.1968
1619.35	24.1807
1619.61	25.0286
1619.87	24.6842
1620.13	23.0502
1620.39	22.9206
1620.65	25.4972
1620.91	24.0979
1621.17	25.6366
1621.42	23.6443
1621.68	24.2814
1621.94	22.9758
1622.2	25.4491
1622.46	22.4375
1622.72	25.5503
1622.98	23.3555
1623.23	22.3033
1623.49	24.1302
1623.75	25.0576
1624.01	26.4763
1624.27	21.7397
1624.53	23.6863
1624.79	24.2686
1625.04	26.9976
1625.3	25.672
1625.56	22.792
1625.82	23.0147
1626.08	23.4659
1626.34	28.9072
1626.59	24.74
1626.85	24.1505
1627.11	23.7429
1627.37	23.6253
1627.63	25.7745
1627.89	26.3947
1628.14	27.2476
1628.4	21.5715
1628.66	22.9757
1628.92	24.6022
1629.18	24.3423
1629.44	23.0299
1629.69	25.3677
1629.95	24.0344
1630.21	25.3592
1630.47	25.5109
1630.73	24.8305
1630.99	24.6639
1631.24	23.8041
1631.29	23.675
1631.55	23.6756
1631.81	20.7186
1632.07	25.6462
1632.33	23.6734
1632.59	27.6138
1632.86	25.6401
1633.12	24.6516
1633.38	23.663
1633.64	26.615
1633.9	24.6409
1634.16	22.6667
1634.42	27.5862
1634.68	21.6761
1634.95	23.6438
1635.21	25.6102
1635.47	21.6697
1635.73	21.6683
1635.99	24.6212
1636.25	23.6364
1636.51	22.6515
1636.77	25.604
1637.03	24.6187
1637.3	23.6333
1637.56	22.6505
1637.82	26.5925
1638.08	23.6411
1638.34	27.5798
1638.6	23.6386
1638.86	21.6669
1639.12	26.5874
1639.39	28.5546
1639.65	26.5842
1639.91	25.5984
1640.17	25.5971
1640.43	24.6121
1640.69	23.6265
1640.95	23.624
1641.21	24.605
1641.47	26.5681
1641.73	23.6139
1641.99	23.6128
1642.25	26.5673
1642.52	24.6015
1642.78	24.6033
1643.04	26.5704
1643.3	24.5991
1643.56	28.5313
1643.82	22.6255
1644.08	27.5425
1644.34	25.5714
1644.6	21.6348
1644.86	25.5659
1645.12	22.6156
1645.38	20.6492
1645.65	24.5878
1645.91	24.5923
1646.17	23.6228
1646.43	26.5754
1646.69	20.6665
1646.95	23.6162
1647.21	22.6327
1647.47	23.6256
1647.73	23.6292
1647.99	22.6486
1648.25	24.623
1648.51	25.6107
1648.77	26.5968
1649.03	23.64
1649.29	23.6398
1649.55	25.6117
1649.82	24.622
1650.08	27.5748
1650.34	32.4996
1650.6	25.603
1650.86	25.6041
1651.12	25.6067
1651.38	23.6366
1651.64	25.6083
1651.9	19.6963
1652.16	25.6133
1652.42	23.6466
1652.68	22.6673
1652.94	26.6216
1653.2	25.6399
1653.46	24.6561
1653.72	24.6576
1653.98	20.7095
1654.24	25.6437
1654.5	28.6019
1654.76	25.6379
1655.02	22.6753
1655.28	25.6334
1655.54	25.6301
1655.81	25.626
1656.07	20.6901
1656.33	21.6729
1656.58	23.6415
1656.84	25.609
1657.11	21.6619
1657.37	23.6353
1657.63	19.6941
1657.89	25.6139
1658.15	24.6318
1658.41	24.6363
1658.67	22.6666
1658.93	23.6558
1659.19	22.662
1659.45	23.6459
1659.71	22.6976
1659.97	22.7101
1660.23	23.6881
1660.49	26.6523
1660.75	22.6759
1661.01	22.6519
1661.27	23.6571
1661.53	24.6479
1661.79	23.6654
1662.05	22.6887
1662.31	23.674
1662.57	24.6249
1662.83	22.6627
1663.09	21.7153
1663.35	26.6591
1663.61	23.6957
1663.87	21.6498
1664.13	19.6698
1664.39	21.6787
1664.65	21.6736
1664.91	24.631
1665.17	24.6271
1665.43	22.6502
1665.69	21.6657
1665.95	24.6399
1666.21	21.6865
1666.47	21.6876
1666.72	21.6878
1666.99	18.7249
1667.25	24.6467
1667.51	21.6872
1667.76	22.688
1668.02	22.6907
1668.28	21.6995
1668.54	23.6746
1668.8	19.7198
1669.06	20.7096
1669.32	22.6875
1669.58	23.6763
1669.84	20.71
1670.1	24.6638
1670.36	21.6986
1670.62	23.6764
1670.88	19.7231
1671.14	20.7138
1671.4	21.7053
1671.66	22.6965
1671.92	22.6992
1672.18	20.7247
1672.44	20.727
1672.7	21.7178
1672.96	21.7172
1673.22	24.6854
1673.48	21.7173
1673.74	22.7077
1674	22.7078
1674.25	21.7171
1674.51	21.7153
1674.77	21.7127
1675.03	18.7407
1675.29	21.7041
1675.55	19.721
1675.81	20.7062
1676.07	20.7031
1676.33	22.6775
1676.59	22.6753
1676.85	18.7189
1677.11	23.6582
1677.37	18.7149
1677.63	20.6887
1677.89	24.6385
1678.15	21.6722
1678.4	19.6951
1678.66	20.6824
1678.92	18.706
1679.18	23.6452
1679.44	22.6572
1679.7	21.669
1679.96	24.6314
1680.22	22.6547
1680.48	20.6783
1680.74	18.7021
1681	22.6523
1681.25	20.6744
1681.51	20.6712
1681.77	20.6693
1682.03	19.6804
1682.29	20.6669
1682.55	22.6411
1682.81	21.6532
1683.07	23.628
1683.33	17.7034
1683.59	20.6679
1683.84	16.7199
1684.1	21.6604
1684.36	20.672
1684.62	22.6454
1684.88	20.667
1685.14	16.714
1685.4	20.6619
1685.66	23.6213
1685.92	22.6297
1686.18	22.6248
1686.43	20.6469
1686.69	16.6961
1686.95	20.6381
1687.21	21.6196
1687.47	20.6344
1687.73	18.6648
1687.99	22.6131
1688.25	26.5613
1688.51	20.6415
1688.76	18.6701
1689.02	18.6708
1689.28	20.644
1689.54	18.6684
1689.8	19.6514
1690.06	16.6877
1690.32	18.6559
1690.58	18.6503
1690.84	16.6729
1691.09	20.612
1691.35	19.6219
1691.61	18.6323
1691.87	19.6146
1692.13	17.6446
1692.39	21.5858
1692.64	22.5717
1692.9	20.6022
1693.16	19.618
1693.42	19.6206
1693.68	19.6216
1693.94	18.635
1694.2	21.5886
1694.46	21.5836
1694.71	17.6378
1694.97	21.5715
1695.23	21.5669
1695.49	18.61
1695.75	17.6225
1696.01	20.572
1696.26	19.5864
1696.52	19.5859
1696.78	20.5706
1697.04	19.5862
1697.3	19.5855
1697.56	19.5816
1697.81	20.5644
1698.07	18.5955
1698.33	18.5939
1698.59	20.5587
1698.85	19.5713
1699.11	20.5503
1699.37	15.6309
1699.62	16.6103
1699.88	16.6074
1700.14	18.5715
1700.4	19.553
1700.66	17.5861
1700.91	16.6017
1701.17	20.5307
1701.43	23.48
1701.69	18.5688
1701.95	17.5859
1702.21	17.5846
1702.46	17.5833
1702.72	17.583
1702.98	17.5818
1703.24	17.5784
1703.5	17.5742
1703.75	17.5696
1704.01	17.5647
1704.27	17.5602
1704.53	19.5182
1704.79	18.5314
1705.04	19.5058
1705.3	20.4796
1705.56	16.5525
1705.82	21.4443
1706.08	19.4789
1706.33	16.5371
1706.59	17.5136
1706.85	16.5333
1707.11	16.5328
1707.37	19.4696
1707.62	18.4909
1707.88	18.4925
1708.14	17.5152
1708.4	19.4751
1708.66	17.5175
1708.91	18.4977
1709.17	17.5175
1709.43	20.4525
1709.69	21.4243
1709.95	19.4579
1710.2	22.3835
1710.46	16.5083
1710.72	17.4785
1710.98	20.4041
1711.23	16.4926
1711.49	16.4902
1711.75	19.4188
1712.01	18.4406
1712.27	18.4402
1712.52	16.4907
1712.78	16.4924
1713.04	19.4226
1713.3	18.4433
1713.55	17.4631
1713.81	19.4118
1714.07	15.5005
1714.33	15.4944
1714.58	16.4627
1714.84	16.4539
1715.1	16.4471
1715.36	16.4402
1715.61	17.409
1715.87	19.3526
1716.13	18.3766
1716.39	17.4027
1716.64	19.3491
1716.9	17.4002
1717.16	20.3232
1717.42	16.4278
1717.68	17.3989
1717.93	20.3151
1718.19	15.4433
1718.45	18.359
1718.71	18.3546
1718.96	16.405
1719.22	15.4282
1719.48	17.3678
1719.74	17.363
1719.99	17.3586
1720.25	19.2972
1720.51	17.3515
1720.76	17.3493
1721.02	16.3781
1721.28	17.3468
1721.54	17.3456
1721.79	15.4003
1722.05	19.2771
1722.31	17.3287
1722.56	13.4437
1722.82	18.2849
1723.08	19.2499
1723.34	17.3099
1723.59	17.3109
1723.85	16.3395
1724.11	18.2737
1724.37	18.2674
1724.62	17.2995
1724.88	17.3026
1725.14	17.3002
1725.39	17.296
1725.65	17.2852
1725.91	16.293
1726.17	17.2365
1726.42	18.1967
1726.68	19.1726
1726.94	18.2154
1727.19	15.3191
1727.45	16.2761
1727.71	14.3413
1727.96	17.2412
1728.22	16.2886
1728.48	17.2555
1728.74	18.2217
1728.99	17.2542
1729.25	17.2526
1729.51	17.2505
1729.76	15.3157
1730.02	18.2107
1730.28	16.2745
1730.53	18.1996
1730.79	15.2965
1731.05	17.2198
1731.3	17.2141
1731.56	19.1364
1731.82	17.2024
1732.08	18.1599
1732.33	18.1537
1732.59	19.1116
1732.85	15.2566
1733.1	16.2168
1733.36	15.2525
1733.62	17.175
1733.87	17.1724
1734.13	17.1696
1734.39	17.1666
1734.64	18.1259
1734.9	16.1996
1735.16	17.1576
1735.41	18.1149
1735.67	17.1496
1735.93	15.2237
1736.18	18.1015
1736.44	18.0956
1736.7	18.0879
1736.95	16.1602
1737.21	18.0715
1737.47	14.2293
1737.72	17.1004
1737.98	18.0543
1738.24	17.0917
1738.49	19.0034
1738.75	18.0415
1739.01	16.1234
1739.26	16.1215
1739.52	18.0352
1739.78	17.0756
1740.03	16.1163
1740.29	18.9867
1740.54	20.9001
1740.8	16.1117
1741.06	18.9781
1741.31	18.0183
1741.57	13.2324
1741.83	18.0141
1742.08	15.1442
1742.34	15.1441
1742.6	17.0566
1742.85	15.1421
1743.11	16.0958
1743.36	18.9601
1743.62	16.087
1743.88	17.9927
1744.13	13.212
1744.39	17.0275
1744.65	16.0691
1744.9	19.883
1745.16	15.1087
1745.42	14.1536
1745.67	16.0626
1745.93	17.0176
1746.18	17.0184
1746.44	17.975
1746.7	21.7977
1746.95	17.0258
1747.21	16.0739
1747.46	14.1659
1747.72	17.9916
1747.98	17.0363
1748.23	15.1259
1748.49	17.0373
1748.74	17.9898
1749	15.1172
1749.26	17.9781
1749.51	16.0638
1749.77	15.1051
1750.02	16.0559
1750.28	12.2343
1750.54	14.1402
1750.79	16.0456
1751.05	16.9964
1751.31	16.0384
1751.56	15.0812
1751.82	17.9387
1752.07	17.9359
1752.33	15.074
1752.59	15.0715
1752.84	16.0213
1753.1	18.8752
1753.35	15.0605
1753.61	14.1037
1753.86	18.8578
1754.12	16.9485
1754.38	16.944
1754.63	16.9416
1754.89	15.9889
1755.14	15.0393
1755.4	15.0425
1755.66	16.9462
1755.91	16.9461
1756.17	15.0428
1756.42	18.8492
1756.68	14.0912
1756.93	16.9451
1757.19	18.8465
1757.44	15.9901
1757.7	14.0854
1757.96	15.9856
1758.21	19.7867
1758.47	16.9298
1758.72	15.9759
1758.98	15.9738
1759.23	18.8238
1759.49	17.8735
1759.75	14.0729
1760	18.8278
1760.26	14.0732
1760.51	15.9741
1760.77	15.0236
1761.02	16.9262
1761.28	16.9278
1761.53	16.9323
1761.79	15.0337
1762.05	16.9391
1762.3	15.0369
1762.56	15.0378
1762.81	16.9424
1763.07	15.0383
1763.32	15.9899
1763.58	15.9887
1763.83	15.9869
1764.09	16.9378
1764.34	15.033
1764.6	14.0794
1764.85	15.0284
1765.11	17.8807
1765.37	17.8778
1765.62	15.023
1765.88	15.9712
1766.13	18.8149
1766.39	18.8049
1766.64	16.8949
1766.9	17.841
1767.15	14.9928
1767.41	14.9974
1767.66	15.9489
1767.92	14.9989
1768.17	15.9501
1768.43	15.9554
1768.68	17.8617
1768.94	15.9603
1769.19	16.9123
1769.45	15.0128
1769.7	15.9669
1769.96	14.0657
1770.21	14.0669
1770.47	17.875
1770.72	16.9246
1770.98	15.9738
1771.23	16.9266
1771.49	16.9271
1771.74	13.1193
1772	14.0731
1772.26	15.9785
1772.51	13.1242
1772.76	15.9889
1773.02	15.9917
1773.27	14.0863
1773.53	15.9927
1773.78	17.8978
1774.04	15.0354
1774.29	15.9856
1774.55	15.9833
1774.8	18.8381
1775.06	17.8818
1775.31	17.8781
1775.57	14.0656
1775.82	16.918
1776.08	17.8647
1776.33	15.0055
1776.59	16.906
1776.84	13.101
1777.1	14.0554
1777.35	16.9111
1777.61	15.9602
1777.86	15.0094
1778.12	15.0102
1778.37	15.0102
1778.63	16.9148
1778.88	15.964
1779.13	17.8705
1779.39	16.921
1779.65	14.066
1779.9	15.0204
1780.15	15.9747
1780.41	17.8824
1780.66	15.9779
1780.92	15.0263
1781.17	16.9352
1781.43	15.031
1781.68	16.9418
1781.94	15.0356
1782.19	17.8984
1782.45	16.9437
1782.7	17.8962
1782.95	17.8938
1783.21	14.0767
1783.46	15.0307
1783.72	14.078
1783.97	16.9427
1784.23	16.9462
1784.48	17.9056
1784.74	16.9581
1784.99	16.0124
1785.24	16.0224
1785.5	17.9453
1785.75	16.0363
1786.01	14.1238
1786.26	17.0009
1786.52	11.2577
1786.77	17.0095
1787.03	15.0944
1787.28	12.2204
1787.54	14.1385
1787.79	15.0966
1788.04	14.137
1788.3	17.0047
1788.55	16.0399
1788.81	16.9955
1789.06	16.0365
1789.31	16.9943
1789.57	16.0366
1789.82	15.08
1790.08	14.1233
1790.33	16.9982
1790.59	16.9974
1790.84	16.0405
1791.09	16.0414
1791.35	17.0002
1791.6	12.2073
1791.86	16.9958
1792.11	15.0878
1792.36	14.1387
1792.62	17.0235
1792.87	17.9866
1793.13	15.109
1793.38	14.1511
1793.64	16.0744
1793.89	17.9985
1794.14	14.1584
1794.4	18.0047
1794.65	12.2399
1794.9	16.0863
1795.16	17.0491
1795.41	17.0502
1795.67	13.2044
1795.92	15.127
1796.17	15.1255
1796.43	15.1232
1796.68	14.159
1796.94	16.0778
1797.19	14.153
1797.44	11.2685
1797.7	17.9913
1797.95	14.1472
1798.21	16.0671
1798.46	14.1453
1798.71	15.1056
1798.97	18.9482
1799.22	17.9886
1799.47	15.1079
1799.73	16.0706
1799.98	15.112
1800.24	14.1535
1800.49	18.0021
1800.74	17.0429
1801	18.0053
1801.25	16.0823
1801.5	17.0466
1801.76	18.0116
1802.01	16.0899
1802.27	12.2432
1802.52	18.0227
1802.77	16.1006
1803.03	18.03
1803.28	14.179
1803.53	15.1444
1803.79	13.2185
1804.04	15.1466
1804.29	15.1465
1804.55	14.1824
1804.8	16.1097
1805.05	16.1095
1805.31	15.1456
1805.56	18.0373
1805.81	13.2179
1806.07	19.0017
1806.32	15.1461
1806.58	15.1462
1806.83	16.1106
1807.08	17.075
1807.34	17.0752
1807.59	16.1106
1807.84	13.2169
1808.1	16.1081
1808.35	14.1794
1808.6	16.1068
1808.86	16.1063
1809.11	18.0344
1809.36	13.2146
1809.62	12.2515
1809.87	16.1106
1810.12	17.0777
1810.38	13.2203
1810.63	15.1506
1810.88	15.1527
1811.14	16.1212
1811.39	19.0214
1811.64	15.1641
1811.9	12.2697
1812.15	17.1028
1812.4	15.1719
1812.65	16.139
1812.91	15.1729
1813.16	16.1399
1813.41	17.1068
1813.67	15.1748
1813.92	15.1744
1814.17	15.1736
1814.43	17.1017
1814.68	16.127
1814.93	15.158
1815.19	18.0566
1815.44	16.1279
1815.69	15.1659
1815.95	16.1322
1816.2	18.0646
1816.45	15.1664
1816.7	17.1012
1816.96	16.1358
1817.21	14.2034
1817.46	16.1387
1817.72	16.1405
1817.97	13.2401
1818.22	16.1429
1818.47	15.1775
1818.73	16.1471
1818.98	15.1812
1819.23	19.0538
1819.49	16.1513
1819.74	18.0879
1819.99	15.1844
1820.24	16.1527
1820.5	13.2473
1820.75	16.1496
1821	15.1796
1821.26	16.1475
1821.51	17.1166
1821.76	16.1496
1822.01	14.2143
1822.27	16.152
1822.52	16.1533
1822.77	15.1853
1823.03	19.0588
1823.28	13.2477
1823.53	16.1532
1823.78	17.1216
1824.04	16.1532
1824.29	18.0913
1824.54	17.124
1824.79	14.2191
1825.05	15.1889
1825.3	15.1879
1825.55	14.2181
1825.8	15.1846
1826.06	12.2762
1826.31	17.1177
1826.56	14.2113
1826.81	19.0526
1827.07	16.1458
1827.32	12.2699
1827.57	17.1093
1827.82	14.2027
1828.08	14.2032
1828.33	15.173
1828.58	14.2062
1828.83	15.1763
1829.09	16.1464
1829.34	15.1794
1829.59	15.1811
1829.84	12.2766
1830.1	15.1854
1830.35	16.154
1830.6	19.0622
1830.85	14.2168
1831.11	17.1251
1831.36	16.1563
1831.61	16.1496
1831.86	15.1714
1832.12	16.132
1832.37	15.1568
1832.62	12.2503
1832.87	16.1156
1833.13	16.1158
1833.38	16.1178
1833.63	16.1934
1833.88	17.1366
1834.13	13.2396
1834.39	18.0797
1834.64	16.1285
1834.89	15.1502
1835.14	16.1007
1835.39	14.161
1835.65	16.0969
1835.9	15.1575
1836.15	17.1009
1836.4	14.1992
1836.65	16.1384
1836.91	17.1098
1837.16	16.1406
1837.41	16.1237
1837.66	14.178
1837.92	14.1695
1838.17	13.1957
1838.42	13.1891
1838.67	16.0801
1838.92	18.0041
1839.18	18.9623
1839.43	15.0969
1839.68	17.0224
1839.93	17.989
1840.18	14.1292
1840.43	16.0594
1840.69	15.0941
1840.94	16.0578
1841.19	16.0561
1841.44	17.0208
1841.7	15.0928
1841.95	14.1272
1842.2	15.0897
1842.45	18.9481
1842.7	16.0561
1842.95	16.0626
1843.2	14.1379
1843.46	18.9745
1843.71	15.1146
1843.96	16.0671
1844.21	14.1141
1844.46	14.0962
1844.72	15.0553
1844.97	17.9459
1845.22	15.0648
1845.47	16.0298
1845.72	16.9854
1845.97	15.0566
1846.23	17.9439
1846.48	15.0517
1846.73	13.1223
1846.98	15.0419
1847.23	16.9597
1847.48	15.9922
1847.74	15.9872
1847.99	14.0613
1848.24	15.0185
1848.49	12.1341
1848.74	13.0924
1848.99	15.9717
1849.25	16.931
1849.5	14.0498
1849.75	15.0097
1850	15.0092
1850.25	15.9683
1850.5	12.1263
1850.75	17.8842
1851.01	15.0004
1851.26	14.036
1851.51	15.9492
1851.76	15.945
1852.01	14.9838
1852.26	16.8978
1852.51	12.1
1852.76	14.9702
1853.02	16.8837
1853.27	16.8818
1853.52	17.8387
1853.77	16.8806
1854.02	15.922
1854.27	17.8363
1854.52	13.0457
1854.78	15.9164
1855.03	13.9991
1855.28	16.868
1855.53	12.0788
1855.78	14.946
1856.03	13.0289
1856.28	15.8943
1856.53	16.846
1856.79	15.8875
1857.04	12.0633
1857.29	13.9747
1857.54	14.932
1857.79	16.8476
1858.04	13.9801
1858.29	17.8084
1858.54	13.9843
1858.79	13.0287
1859.04	15.8995
1859.3	13.027
1859.55	15.8944
1859.8	15.8904
1860.05	14.9299
1860.3	20.6623
1860.55	13.9663
1860.8	13.0073
1861.05	16.8263
1861.3	14.9123
1861.56	14.9093
1861.81	16.8161
1862.06	16.812
1862.31	13.9435
1862.56	15.8471
1862.81	15.8412
1863.06	13.9274
1863.31	15.8273
1863.56	14.8674
1863.81	16.7654
1864.06	15.806
1864.32	14.8478
1864.57	14.8419
1864.82	12.9358
1865.07	15.786
1865.32	13.8826
1865.57	14.8321
1865.82	13.8818
1866.07	14.8328
1866.32	15.7825
1866.57	14.8305
1866.82	13.8786
1867.07	13.8774
1867.32	13.8763
1867.57	15.7761
1867.83	14.8247
1868.08	16.7248
1868.33	14.8233
1868.58	16.722
1868.83	15.7693
1869.08	16.7161
1869.33	15.7641
1869.58	17.6616
1869.83	14.8086
1870.08	16.7042
1870.33	16.702
1870.58	12.9038
1870.83	13.8513
1871.08	14.7977
1871.33	13.8455
1871.58	14.7905
1871.84	18.5799
1872.08	13.8339
1872.33	15.7254
1872.59	17.6155
1872.84	16.6607
1873.09	16.6511
1873.34	14.7526
1873.59	15.694
1873.84	13.7984
1874.09	14.7409
1874.34	16.6223
1874.59	14.7208
1874.84	16.5964
1875.09	14.7336
1875.34	15.7223
1875.59	15.6934
1875.84	17.5827
1876.09	11.907
1876.34	13.8121
1876.59	15.7094
1876.84	17.5972
1877.09	16.6459
1877.34	15.6981
1877.59	15.6978
1877.84	15.6994
1878.09	14.7489
1878.34	15.6931
1878.59	16.6316
1878.84	14.7315
1879.09	15.6687
1879.34	18.4937
1879.59	16.5937
1879.84	14.6965
1880.1	16.5765
1880.34	12.8222
1880.59	16.6586
1880.84	15.6452
1881.1	13.7333
1881.34	15.6224
1881.59	16.5687
1881.84	15.6212
1882.1	14.6846
1882.34	15.6335
1882.59	12.8045
1882.85	14.6949
1883.1	14.7004
1883.34	16.5918
1883.59	13.7593
1883.85	13.7559
1884.09	14.6946
1884.34	13.7471
1884.59	14.6869
1884.84	16.5693
1885.09	16.5645
1885.34	10.9026
1885.59	14.6674
1885.84	14.662
1886.09	11.8317
1886.34	16.5354
1886.59	15.5919
1886.84	15.5906
1887.09	17.4728
1887.34	14.6506
1887.59	18.4207
1887.84	12.7722
1888.09	13.7142
1888.34	15.5963
1888.59	13.7116
1888.84	14.6524
1889.09	16.5343
1889.34	17.4751
1889.59	15.5901
1889.84	16.5286
1890.09	14.6418
1890.34	16.5163
1890.59	16.5067
1890.84	18.379
1891.09	13.6812
1891.34	16.4987
1891.59	15.5539
1891.84	14.6117
1892.09	13.6714
1892.34	13.6716
1892.59	15.5515
1892.83	11.7941
1893.08	17.4339
1893.33	16.496
1893.58	15.5585
1893.83	15.561
1894.08	14.6226
1894.33	16.5051
1894.58	17.4466
1894.83	12.7434
1895.08	15.5646
1895.33	15.563
1895.58	17.4413
1895.83	15.557
1896.08	13.6727
1896.33	16.4883
1896.58	13.6665
1896.83	11.7855
1897.08	13.6621
1897.32	14.5999
1897.57	17.4173
1897.82	15.5391
1898.07	15.5406
1898.32	15.5433
1898.57	16.4858
1898.82	11.7883
1899.07	16.4916
1899.32	13.6742
1899.57	14.6164
1899.82	17.4372
1900.07	17.4354
1900.31	17.4329
1900.57	17.4305
1900.81	18.3691
1901.06	14.6066
1901.31	14.6057
1901.56	14.6048
1901.81	15.5439
1902.06	14.6025
1902.31	13.6617
1902.56	15.5412
1902.81	15.5395
1903.06	14.5929
1903.31	15.5286
1903.55	17.4047
1903.8	15.524
1904.05	14.5831
1904.3	14.5818
1904.55	16.4604
1904.8	15.5215
1905.05	14.5851
1905.3	15.5262
1905.55	12.7082
1905.79	15.5274
1906.04	14.5893
1906.29	15.5312
1906.54	15.5343
1906.79	17.4188
1907.04	13.6613
1907.29	14.6065
1907.54	15.5526
1907.79	14.615
1908.04	14.6176
1908.28	14.6191
1908.53	16.5039
1908.78	14.6198
1909.03	17.4451
1909.28	12.7335
1909.53	14.6163
1909.78	13.6738
1910.03	15.5571
1910.27	14.6149
1910.52	16.4992
1910.77	14.618
1911.02	14.6224
1911.27	16.5119
1911.52	14.6289
1911.77	17.4611
1912.02	15.5778
1912.26	15.5804
1912.51	15.5818
1912.76	15.5819
1913.01	13.6935
1913.26	18.4093
1913.51	13.691
1913.76	17.4608
1914	15.5706
1914.25	15.5677
1914.5	12.7367
1914.75	13.6779
1915	17.4477
1915.25	13.6774
1915.49	15.5653
1915.74	14.6256
1915.99	15.5728
1916.24	15.5772
1916.49	15.582
1916.74	14.6444
1916.99	14.6482
1917.23	13.7049
1917.48	15.5943
1917.73	13.7017
1917.98	16.5389
1918.23	14.6528
1918.48	14.6561
1918.72	15.6028
1918.97	13.7134
1919.22	15.6053
1919.47	17.496
1919.72	13.7111
1919.97	13.7083
1920.21	14.6515
1920.46	12.7593
1920.71	19.3745
1920.96	14.6464
1921.21	16.5336
1921.46	13.6957
1921.7	12.7493
1921.95	16.5277
1922.2	13.6941
1922.45	15.5859
1922.7	12.7536
1922.94	15.5939
1923.19	15.5976
1923.44	19.3854
1923.69	13.7129
1923.94	14.6632
1924.19	18.4524
1924.43	12.7733
1924.68	15.6157
1924.93	15.6173
1925.18	15.6186
1925.43	13.7251
1925.67	16.5681
1925.92	15.6225
1926.17	17.5196
1926.42	16.5745
1926.66	14.682
1926.91	14.6863
1927.16	15.6383
1927.41	17.5405
1927.66	15.646
1927.91	13.7504
1928.15	15.6494
1928.4	19.4468
1928.65	20.3937
1928.9	15.6444
1929.15	15.6419
1929.39	16.5883
1929.64	13.739
1929.89	16.5829
1930.14	16.5817
1930.38	15.631
1930.63	13.7355
1930.88	15.6383
1931.13	16.5962
1931.37	14.7073
1931.62	15.6714
1931.87	16.6359
1932.12	15.6945
1932.37	13.7968
1932.61	14.7561
1932.86	18.5713
1933.11	17.6061
1933.36	14.7463
1933.61	13.7916
1933.85	14.742
1934.1	14.7382
1934.35	14.7343
1934.6	14.7309
1934.84	14.7275
1935.09	14.7244
1935.34	17.5768
1935.59	14.7229
1935.83	15.6793
1936.08	14.7283
1936.33	15.6827
1936.58	17.5899
1936.82	14.7339
1937.07	13.7827
1937.32	14.7364
1937.57	18.5524
1937.81	14.7449
1938.06	13.7995
1938.31	17.6198
1938.56	15.7098
1938.8	17.6143
1939.05	16.6525
1939.3	16.6465
1939.55	12.8409
1939.79	15.7154
1940.04	16.6717
1940.29	16.6697
1940.54	16.6618
1940.78	17.6083
1941.03	12.8376
1941.28	15.708
1941.52	14.7559
1941.77	16.6684
1942.02	16.672
1942.27	16.6758
1942.51	12.8573
1942.76	16.6831
1943.01	15.7302
1943.26	15.7326
1943.5	14.7781
1943.75	19.5611
1944	13.8228
1944.24	15.7345
1944.49	13.82
1944.74	15.731
1944.99	12.8617
1945.23	18.5985
1945.48	12.8604
1945.73	13.8156
1945.97	15.7291
1946.22	15.7317
1946.47	14.778
1946.71	14.7809
1946.96	15.7415
1947.21	18.6184
1947.46	15.7527
1947.7	16.7173
1947.95	16.723
1948.2	15.7703
1948.44	14.8169
1948.69	14.8218
1948.94	15.7854
1949.19	13.8675
1949.43	18.671
1949.68	13.8702
1949.93	13.8703
1950.17	16.7549
1950.42	17.7164
1950.67	18.6707
1950.91	17.7015
1951.16	12.8931
1951.41	14.8033
1951.65	14.7955
1951.9	17.6641
1952.15	16.704
1952.39	11.914
1952.64	16.7065
1952.89	16.7116
1953.14	12.8842
1953.38	16.7292
1953.63	15.7739
1953.88	16.7379
1954.12	14.8203
1954.37	15.7838
1954.62	14.8259
1954.86	14.8281
1955.11	14.8297
1955.36	16.7528
1955.6	17.7147
1955.85	13.8697
1956.1	14.8286
1956.34	17.7086
1956.59	15.7852
1956.84	16.7443
1957.08	13.8594
1957.33	17.6987
1957.58	15.7749
1957.82	13.8514
1958.07	14.8084
1958.31	16.7251
1958.56	14.803
1958.81	14.8019
1959.05	17.6812
1959.3	15.7622
1959.55	17.6821
1959.79	12.8833
1960.04	17.6829
1960.29	13.8434
1960.53	17.6834
1960.78	16.7237
1961.03	18.6449
1961.27	10.9651
1961.52	14.8064
1961.77	15.7656
1962.01	15.7646
1962.26	14.804
1962.5	14.8034
1962.75	16.7242
1963	16.7261
1963.24	14.808
1963.49	16.7326
1963.74	16.7356
1963.98	16.7377
1964.23	18.6608
1964.48	13.8541
1964.72	14.8156
1964.97	18.6616
1965.21	12.8936
1965.46	17.7008
1965.71	17.6994
1965.95	15.7744
1966.2	16.7318
1966.44	14.8053
1966.69	13.8395
1966.94	16.7153
1967.18	14.7911
1967.43	15.7476
1967.68	17.6645
1967.92	18.6202
1968.17	17.658
1968.41	15.7373
1968.66	18.6129
1968.91	16.6933
1969.15	14.7765
1969.4	15.7366
1969.64	12.8587
1969.89	17.6544
1970.14	15.7335
1970.38	15.73
1970.63	14.7673
1970.87	17.6405
1971.12	17.638
1971.37	15.7194
1971.61	17.6357
1971.86	15.7186
1972.1	16.6775
1972.35	18.5962
1972.6	15.7221
1972.84	17.642
1973.09	14.7666
1973.33	17.6451
1973.58	14.7679
1973.82	14.7679
1974.07	14.7674
1974.32	17.644
1974.56	17.6421
1974.81	18.5984
1975.05	12.8418
1975.3	20.509
1975.55	15.7131
1975.79	15.7112
1976.04	16.6686
1976.28	13.793
1976.53	16.6687
1976.77	17.6268
1977.02	17.6273
1977.26	14.751
1977.51	15.707
1977.76	15.7035
1978	14.7427
1978.25	14.7412
1978.49	14.7384
1978.74	14.7367
1978.98	16.651
1979.23	15.6924
1979.48	14.7333
1979.72	15.6876
1979.97	15.6845
1980.21	17.5941
1980.46	16.6317
1980.7	15.6717
1980.95	15.6702
1981.19	14.7121
1981.44	17.5794
1981.69	16.6209
1981.93	16.6189
1982.18	16.615
1982.42	17.5661
1982.67	17.5647
1982.91	16.6092
1983.16	16.6102
1983.4	15.6564
1983.65	16.6147
1983.89	17.5712
1984.14	16.6138
1984.38	16.6147
1984.63	14.6976
1984.88	15.6484
1985.12	13.7317
1985.37	14.6808
1985.61	17.5366
1985.86	13.7072
1986.1	17.5107
1986.35	16.5476
1986.59	15.5864
1986.84	16.5336
1987.08	15.5787
1987.33	15.5785
1987.57	18.4363
1987.82	16.54
1988.06	17.496
1988.31	16.5476
1988.55	17.5062
1988.8	17.5023
1989.04	16.5507
1989.29	16.5329
1989.53	18.3828
1989.78	17.5119
1990.02	15.735
1990.27	15.6895
1990.52	16.5049
1990.76	14.8413
1991.01	16.6233
1991.25	18.1702
1991.49	17.2851
1991.74	18.9367
1991.99	14.0791
1992.23	14.1246
1992.47	15.3655
1992.72	17.2161
1992.97	15.0448
1993.21	16.3109
1993.45	14.0513
1993.7	17.2476
1993.95	15.8467
1994.19	18.9941
1994.43	18.0124
1994.68	15.5224
1994.93	15.8302
1995.17	16.9579
1995.41	15.9928
1995.66	15.3793
1995.9	15.9723
1996.15	13.9727
1996.39	16.98
1996.64	14.8185
1996.88	15.432
1997.13	15.311
1997.37	15.7589
1997.62	16.9031
1997.86	16.5116
1998.11	14.2169
1998.35	17.9661
1998.6	17.6556
1998.84	15.8741
1999.09	16.3119
1999.33	18.8531
1999.57	14.5527
1999.82	17.0677
2000.06	15.8111
2000.31	15.6731
2000.55	15.2004
2000.8	16.1574
2001.04	13.8416
2001.29	16.0891
2001.53	18.0171
2001.78	16.2918
2002.02	15.3358
2002.27	16.603
2002.51	15.2702
2002.75	15.6473
2003	16.5869
2003.24	14.8065
2003.49	15.3606
2003.73	15.3198
2003.98	14.9715
2004.22	14.4061
2004.47	15.7992
2004.71	15.6527
2004.95	15.3184
2005.2	15.5266
2005.44	16.3852
2005.69	16.5102
2005.93	16.9419
2006.18	15.6962
2006.42	13.3207
2006.66	15.8076
2006.91	15.247
2007.15	16.4241
2007.4	16.1791
2007.64	15.8344
2007.89	16.2312
2008.13	16.3865
2008.38	16.5548
2008.62	17.9756
2008.86	17.4104
2009.11	18.5376
2009.35	16.8719
2009.6	15.1056
2009.84	15.5301
2010.08	15.4466
2010.33	16.2854
2010.57	15.8193
2010.82	16.7607
2011.06	17.3877
2011.3	16.2798
2011.55	17.132
2011.79	17.2955
2012.04	17.4614
2012.18	18.5954
2012.43	15.7818
2012.68	16.7232
2012.93	15.7862
2013.17	16.7243
2013.42	17.6638
2013.67	15.7992
2013.91	14.8621
2014.16	16.741
2014.41	14.859
2014.66	15.795
2014.9	16.7294
2015.15	16.7231
2015.4	17.6544
2015.64	15.7714
2015.89	12.9522
2016.14	15.7592
2016.38	16.6902
2016.63	17.6231
2016.88	15.7472
2017.13	16.6821
2017.37	15.745
2017.62	16.6808
2017.87	17.6164
2018.11	16.6803
2018.36	14.8081
2018.61	18.5547
2018.86	16.6806
2019.1	18.5521
2019.35	14.8037
2019.6	14.8009
2019.84	14.7972
2020.09	14.7929
2020.34	15.725
2020.58	16.6568
2020.83	16.653
2021.08	15.7142
2021.32	15.711
2021.57	14.7716
2021.82	14.7663
2022.06	16.6288
2022.31	16.6234
2022.56	17.5515
2022.8	16.6136
2023.05	16.6078
2023.3	13.81
2023.54	14.7476
2023.79	13.8226
2024.04	15.7013
2024.28	15.7144
2024.53	17.5946
2024.78	16.6581
2025.02	15.7134
2025.27	16.6336
2025.52	16.5922
2025.76	16.6237
2026.01	15.7472
2026.26	19.4674
2026.5	15.736
2026.75	15.7116
2027	15.6937
2027.24	16.607
2027.49	17.5394
2027.74	18.4543
2027.98	16.6017
2028.23	16.6132
2028.48	15.6771
2028.72	14.7441
2028.97	14.7438
2029.22	13.8145
2029.46	17.5533
2029.71	22.2295
2029.96	18.4997
2030.2	17.57
2030.45	13.8343
2030.69	16.643
2030.94	18.5178
2031.19	16.6383
2031.43	15.6943
2031.68	16.61
2031.93	16.6033
2032.17	19.4104
2032.42	15.6822
2032.66	17.5584
2032.91	13.8324
2033.16	16.6456
2033.4	15.7116
2033.65	14.7675
2033.9	18.5056
2034.14	17.5759
2034.39	16.6406
2034.63	16.6397
2034.88	13.8332
2035.13	16.6358
2035.37	14.764
2035.62	16.6306
2035.87	17.5622
2036.11	14.7565
2036.36	19.4242
2036.6	16.6189
2036.85	15.6816
2037.1	17.5439
2037.34	16.6057
2037.59	15.6682
2037.83	18.4625
2038.08	15.6608
2038.33	15.6578
2038.57	14.7239
2038.82	16.5873
2039.06	17.5172
2039.31	17.5148
2039.56	17.5113
2039.8	16.5774
2040.05	16.5773
2040.3	18.4418
2040.54	17.5141
2040.79	19.3856
2041.03	17.5279
2041.28	16.5983
2041.52	14.7318
2041.77	11.9303
2042.02	17.5191
2042.26	13.7783
2042.51	16.5871
2042.75	17.5289
2043	16.6157
2043.25	16.6429
2043.49	17.57
2043.74	16.6176
2043.98	17.5383
2044.23	16.6036
2044.47	17.5327
2044.72	16.5872
2044.97	16.582
2045.21	15.6499
2045.46	14.7183
2045.7	14.7191
2045.95	16.5852
2046.19	14.7239
2046.44	15.6596
2046.69	19.3964
2046.93	16.6027
2047.18	17.5411
2047.42	16.6118
2047.67	15.6804
2047.91	15.6813
2048.16	13.8119
2048.41	17.5454
2048.65	14.7389
2048.9	16.6055
2049.14	16.6057
2049.39	15.6739
2049.63	15.6747
2049.88	15.6763
2050.12	14.7444
2050.37	14.7471
2050.62	14.7505
2050.86	16.6274
2051.11	17.5661
2051.35	17.5685
2051.6	16.6336
2051.84	18.5041
2052.09	13.826
2052.33	16.6312
2052.58	17.562
2052.82	17.5597
2053.07	14.7539
2053.31	14.7524
2053.56	14.7506
2053.8	19.4229
2054.05	15.6837
2054.3	17.5538
2054.54	13.8156
2054.79	18.4918
2055.03	16.6244
2055.28	17.5617
2055.52	17.566
2055.77	18.5056
2056.01	18.5094
2056.26	15.7043
2056.5	16.6413
2056.75	15.7058
2056.99	15.7064
2057.24	15.7043
2057.48	19.4458
2057.73	13.8278
2057.97	18.509
2058.22	16.6394
2058.46	11.9601
2058.71	17.578
2058.95	13.8332
2059.2	18.515
2059.45	15.707
2059.69	17.5814
2059.94	18.5203
2060.18	14.7763
2060.43	14.7788
2060.67	17.5919
2060.92	16.6566
2061.16	15.7206
2061.4	16.6591
2061.65	15.7233
2061.9	16.6631
2062.14	19.48
2062.39	14.7953
2062.63	15.7377
2062.88	16.6801
2063.12	17.6222
2063.37	16.6857
2063.61	18.5646
2063.86	14.8095
2064.1	15.7505
2064.34	14.8124
2064.59	15.7536
2064.83	15.756
2065.08	15.7582
2065.32	15.7597
2065.57	18.5805
2065.81	17.6427
2066.06	19.5236
2066.3	18.5809
2066.55	17.6361
2066.79	17.6285
2067.04	17.6245
2067.28	17.6256
2067.53	16.6926
2067.77	18.581
2068.02	15.7688
2068.26	15.769
2068.51	18.5851
2068.75	17.6611
2069	17.6712
2069.24	15.7869
2069.48	17.6687
2069.73	13.9015
2069.97	15.7834
2070.22	16.7245
2070.46	15.7821
2070.71	16.724
2070.95	19.5491
2071.2	18.6085
2071.44	21.4354
2071.69	13.9041
2071.93	15.7918
2072.18	14.8545
2072.42	16.7466
2072.66	15.8118
2072.91	15.8177
2073.15	17.7087
2073.4	18.6533
2073.64	17.7099
2073.89	16.7642
2074.13	13.9295
2074.38	17.7006
2074.62	17.6924
2074.87	17.6896
2075.11	17.6912
2075.35	15.8083
2075.6	16.7531
2075.84	14.8674
2076.09	16.7565
2076.33	14.8722
2076.58	18.6568
2076.82	16.7714
2077.06	17.7189
2077.31	16.7768
2077.55	19.6141
2077.8	15.8345
2078.04	18.6674
2078.29	16.7762
2078.53	19.6099
2078.77	16.7753
2079.02	17.719
2079.26	17.7202
2079.51	17.7215
2079.75	17.7225
2080	17.7228
2080.24	17.7224
2080.48	15.8316
2080.73	14.8858
2080.97	17.7204
2081.22	17.7206
2081.46	16.7753
2081.7	16.7754
2081.95	12.9958
2082.19	16.7759
2082.44	18.6656
2082.68	15.8306
2082.93	16.7762
2083.17	15.8349
2083.41	16.7854
2083.66	17.7355
2083.9	17.7372
2084.14	15.8469
2084.39	16.7956
2084.63	15.8511
2084.88	16.7974
2085.12	12.0656
2085.36	17.7442
2085.61	17.7449
2085.85	13.9596
2086.1	15.8533
2086.34	18.6955
2086.58	19.6455
2086.83	14.9147
2087.07	16.8109
2087.32	15.8643
2087.56	17.76
2087.8	17.7615
2088.05	15.8682
2088.29	17.7651
2088.54	16.8191
2088.78	17.7711
2089.02	15.8795
2089.27	16.833
2089.51	17.7872
2089.75	15.8947
2090	14
2090.24	18.7523
2090.48	15.9069
2090.73	15.9107
2090.97	14.9634
2091.22	15.9167
2091.46	17.8193
2091.7	16.8685
2091.95	16.8676
2092.19	16.8663
2092.43	16.8635
2092.68	17.8106
2092.92	14.9573
2093.17	17.8056
2093.41	15.904
2093.65	15.9032
2093.9	17.8024
2094.14	14.9505
2094.38	17.7964
2094.63	14.9442
2094.87	19.6895
2095.11	17.7897
2095.36	15.8903
2095.6	16.8367
2095.84	16.8366
2096.09	18.7344
2096.33	13.9878
2096.57	16.834
2096.82	17.7825
2097.06	18.7315
2097.3	14.9358
2097.55	17.7837
2097.79	18.7342
2098.03	19.6882
2098.28	16.8432
2098.52	14.9458
2098.76	14.9467
2099.01	15.8964
2099.25	15.8958
2099.5	17.7955
2099.74	16.8447
2099.98	19.6908
2100.22	14.9394
2100.47	19.6839
2100.71	14.9369
2100.95	16.8342
2101.2	15.8851
2101.44	19.6834
2101.68	13.9895
2101.93	18.7395
2102.17	16.8425
2102.41	16.8452
2102.66	17.799
2102.9	16.8522
2103.14	17.8043
2103.39	18.7566
2103.63	16.8563
2103.87	14.0049
2104.12	14.9567
2104.36	16.8589
2104.6	16.8571
2104.85	14.9527
2105.09	18.75
2105.33	15.8945
2105.57	16.8399
2105.82	19.6846
2106.06	17.7837
2106.3	20.6326
2106.55	15.8885
2106.79	16.8422
2107.03	13.9923
2107.27	18.7421
2107.52	19.6919
2107.76	14.9418
2108	14.9417
2108.25	16.8414
2108.49	16.8402
2108.73	15.8881
2108.98	15.8861
2109.22	14.9354
2109.46	14.935
2109.7	14.9362
2109.95	17.7871
2110.19	16.8391
2110.43	14.9425
2110.68	15.896
2110.92	16.848
2111.16	19.6985
2111.4	16.8455
2111.65	16.8448
2111.89	19.6965
2112.13	14.9449
2112.38	18.7455
2112.62	20.6444
2112.86	13.0408
2113.1	16.8402
2113.35	17.7868
2113.59	16.8334
2113.83	20.6302
2114.07	17.7801
2114.32	18.7287
2114.56	16.8299
2114.8	17.778
2115.04	18.7244
2115.29	18.7212
2115.53	16.8183
2115.77	18.7106
2116.01	18.7061
2116.26	13.0121
2116.5	19.646
2116.74	13.9543
2116.99	17.7425
2117.23	17.7397
2117.47	16.7909
2117.71	16.7911
2117.96	19.6366
2118.2	13.9517
2118.44	14.9024
2118.68	17.7507
2118.92	18.703
2119.17	15.8607
2119.41	16.8124
2119.65	18.7129
2119.9	14.9188
2120.14	16.8189
2120.38	14.9215
2120.62	14.9221
2120.86	17.7688
2121.11	14.9191
2121.35	17.7638
2121.59	18.708
2121.83	14.9068
2122.08	16.7955
2122.32	21.5256
2122.56	18.6762
2122.8	16.7764
2123.04	14.878
2123.29	15.8203
2123.53	15.8168
2123.77	14.8672
2124.01	15.8097
2124.26	15.8061
2124.5	16.75
2124.74	14.858
2124.98	17.6933
2125.22	15.8006
2125.47	15.7993
2125.71	16.7444
2125.95	17.6896
2126.19	16.7436
2126.44	18.6325
2126.68	15.7957
2126.92	19.575
2127.16	19.574
2127.4	16.7378
2127.65	15.7915
2127.89	16.7346
2128.13	14.843
2128.37	18.6189
2128.61	14.8382
2128.86	16.7244
2129.1	15.7784
2129.34	16.7206
2129.58	15.7734
2129.82	18.6013
2130.06	18.5992
2130.31	17.6551
2130.55	18.5993
2130.79	15.7688
2131.03	15.7689
2131.27	16.713
2131.52	17.6573
2131.76	18.6005
2132	18.5998
2132.24	17.6554
2132.48	16.7107
2132.73	13.8783
2132.97	16.7061
2133.21	17.6442
2133.45	17.6385
2133.69	17.6355
2133.94	13.8649
2134.18	15.751
2134.42	15.7511
2134.66	15.7525
2134.9	16.6987
2135.14	16.698
2135.39	18.5787
2135.63	15.7467
2135.87	15.7486
2136.11	12.9246
2136.35	16.7006
2136.59	16.6936
2136.84	16.6861
2137.08	16.683
2137.32	16.6803
2137.56	19.5041
2137.8	17.6179
2138.04	17.6163
2138.28	17.6148
2138.53	16.6729
2138.77	17.6114
2139.01	18.5486
2139.25	17.6052
2139.49	15.7224
2139.74	19.4909
2139.98	17.6107
2140.22	13.8543
2140.46	16.677
2140.7	17.5779
2140.94	18.5122
2141.18	15.6967
2141.43	15.7017
2141.67	19.4689
2141.91	15.7102
2142.15	16.6423
2142.39	19.463
2142.63	14.7626
2142.87	15.702
2143.12	16.6407
2143.36	13.8188
2143.6	17.5775
2143.84	17.576
2144.08	16.6342
2144.32	16.6318
2144.56	16.6293
2144.8	16.6271
2145.05	13.8071
2145.29	16.6231
2145.53	18.4993
2145.77	13.8016
2146.01	17.5548
2146.25	17.5511
2146.49	17.5469
2146.73	16.6014
2146.98	16.5973
2147.22	14.7173
2147.46	14.7141
2147.7	17.5242
2147.94	17.5235
2148.18	15.65
2148.42	14.715
2148.66	16.5915
2148.9	16.5941
2149.15	17.5327
2149.39	18.4735
2149.63	14.7192
2149.87	17.5301
2150.11	19.4018
2150.35	14.7113
2150.59	17.5218
2150.83	15.6457
2151.07	16.58
2151.31	17.5128
2151.56	14.6972
2151.8	15.6268
2152.04	15.6206
2152.28	14.6778
2152.52	14.6729
2152.76	18.4073
2153	14.6643
2153.24	17.4642
2153.48	16.5279
2153.72	15.5928
2153.97	16.5263
2154.21	16.5261
2154.45	15.5929
2154.69	16.5292
2154.93	16.532
2155.17	16.5347
2155.41	17.47
2155.65	15.6004
2155.89	16.5342
2156.13	17.4673
2156.37	14.6615
2156.61	15.5933
2156.86	18.3925
2157.1	16.52
2157.34	19.3167
2157.58	10.9109
2157.82	15.575
2158.06	15.573
2158.3	15.572
2158.54	16.5034
2158.78	16.5016
2159.02	16.5008
2159.26	15.5676
2159.5	18.3663
2159.74	17.4329
2159.98	16.4985
2160.22	14.6307
2160.47	16.4941
2160.71	12.7622
2160.95	15.5579
2161.19	14.6236
2161.43	19.281
2161.67	16.4801
2161.91	18.3405
2162.15	21.1358
2162.39	17.4107
2162.63	15.5471
2162.87	15.5471
2163.11	16.479
2163.35	15.5453
2163.59	18.3384
2163.83	13.6779
2164.07	15.5378
2164.31	16.4664
2164.55	14.6005
2164.79	13.6653
2165.03	16.4496
2165.27	18.3017
2165.51	16.4388
2165.76	15.5085
2166	17.3685
2166.24	16.4408
2166.48	14.5838
2166.72	17.3785
2166.96	14.5925
2167.2	15.5289
2167.44	13.6701
2167.68	14.6025
2167.92	14.6015
2168.16	17.3918
2168.4	16.4589
2168.64	15.5219
2168.88	16.4411
2169.12	14.5752
2169.36	15.5015
2169.6	18.2864
2169.84	16.4254
2170.08	15.4956
2170.32	17.3533
2170.56	17.3529
2170.8	15.4956
2171.04	15.4974
2171.28	13.64
2171.52	16.4287
2171.76	14.57
2172	14.5697
2172.24	13.6399
2172.48	17.3562
2172.72	14.5671
2172.96	16.4249
2173.2	14.5655
2173.44	17.3516
2173.68	16.4196
2173.92	15.4894
2174.16	15.4892
2174.4	14.5605
2174.64	16.4186
2174.88	13.6312
2175.12	18.2766
2175.36	15.4882
2175.6	15.4838
2175.84	16.4088
2176.08	12.6943
2176.32	17.3371
2176.56	17.3373
2176.8	14.5518
2177.04	14.5516
2177.28	14.5513
2177.52	15.4792
2177.76	13.6212
2178	16.4052
2178.24	14.548
2178.48	16.4035
2178.72	13.6169
2178.96	16.3993
2179.2	18.2544
2179.44	14.5402
2179.68	15.4664
2179.92	13.6095
2180.16	16.3893
2180.4	16.3856
2180.64	15.4535
2180.88	15.4499
2181.12	15.4473
2181.35	16.3714
2181.59	16.3704
2181.83	17.2972
2182.07	17.2988
2182.31	13.593
2182.55	15.4475
2182.79	13.5953
2183.03	13.5974
2183.27	17.3088
2183.51	13.6019
2183.75	17.3163
2183.99	17.3214
2184.23	16.3981
2184.47	16.4027
2184.71	18.2638
2184.95	14.5497
2185.19	14.548
2185.43	14.5454
2185.67	20.1127
2185.91	12.6828
2186.15	17.3194
2186.38	16.3868
2186.62	15.4539
2186.86	16.3764
2187.1	15.447
2187.34	18.227
2187.58	15.4463
2187.82	15.4473
2188.06	13.5943
2188.3	16.3756
2188.54	15.4491
2188.78	14.523
2189.02	14.5241
2189.26	18.2351
2189.5	15.4538
2189.74	13.5998
2189.97	14.5296
2190.21	17.316
2190.45	17.3186
2190.69	17.3223
2190.93	16.4005
2191.17	14.5501
2191.41	14.5549
2191.65	15.4871
2191.89	15.4864
2192.13	15.4843
2192.37	14.5532
2192.61	16.4094
2192.85	14.5476
2193.08	15.4722
2193.32	14.5382
2193.56	16.3897
2193.8	16.3855
2194.04	15.4543
2194.28	19.1622
2194.52	15.4491
2194.76	15.4488
2195	14.5216
2195.24	15.4506
2195.47	18.2376
2195.71	15.4578
2195.95	13.6055
2196.19	13.61
2196.43	15.4719
2196.67	16.406
2196.91	14.5521
2197.15	14.5588
2197.39	14.5665
2197.63	16.4353
2197.86	14.5791
2198.1	15.5151
2198.34	16.4507
2198.58	16.4446
2198.82	18.2894
2199.06	14.5367
2199.3	15.4421
2199.54	14.522
2199.78	14.5471
2200.01	18.2806
2200.25	18.2751
2200.49	15.4818
2200.73	17.3516
2200.97	15.5461
2201.21	14.5932
2201.45	14.5914
2201.69	15.5271
2201.92	16.4487
2202.16	17.3649
2202.4	14.5596
2202.64	14.551
2202.88	16.4079
2203.12	14.5485
2203.36	15.4816
2203.59	15.4826
2203.83	15.4763
2204.07	16.4067
2204.31	15.4791
2204.55	15.4818
2204.79	16.4151
2205.03	13.6273
2205.27	15.4913
2205.5	15.4943
2205.74	15.4971
2205.98	17.3615
2206.22	14.5695
2206.46	16.4329
2206.7	16.4329
2206.93	15.501
2207.17	11.776
2207.41	14.5717
2207.65	13.6421
2207.89	16.4394
2208.13	15.51
2208.37	14.5802
2208.6	16.4469
2208.84	14.5855
2209.08	14.5886
2209.32	14.5906
2209.56	15.5246
2209.8	14.5907
2210.03	15.5218
2210.27	18.318
2210.51	16.4502
2210.75	13.65
2210.99	14.5829
2211.23	13.653
2211.47	15.5241
2211.7	18.3303
2211.94	15.532
2212.18	12.7327
2212.42	14.6005
2212.66	16.4683
2212.89	16.4687
2213.13	9.93296
2213.37	15.5346
2213.61	15.5341
2213.85	15.5333
2214.09	17.3997
2214.32	15.5323
2214.56	17.4
2214.8	15.5334
2215.04	15.5333
2215.28	15.5329
2215.51	14.5997
2215.75	16.4686
2215.99	17.4047
2216.23	13.6713
2216.47	15.5423
2216.71	16.4784
2216.94	15.5457
2217.18	15.5473
2217.42	11.8084
2217.66	18.3497
2217.9	13.6763
2218.13	15.5437
2218.37	15.54
2218.61	17.4037
2218.85	14.5983
2219.08	13.6618
2219.32	16.4603
2219.56	14.5928
2219.8	15.5271
2220.04	15.5292
2220.27	16.4652
2220.51	13.666
2220.75	13.669
2220.99	16.4763
2221.23	17.4161
2221.46	17.421
2221.7	14.6194
2221.94	15.5581
2222.18	16.497
2222.42	17.4369
2222.65	14.6331
2222.89	15.5728
2223.13	16.5126
2223.37	16.516
2223.6	17.4556
2223.84	15.5847
2224.08	14.6502
2224.32	16.5277
2224.55	14.6542
2224.79	13.7173
2225.03	13.7169
2225.27	13.7158
2225.5	16.5275
2225.74	15.5887
2225.98	12.7752
2226.22	15.5868
2226.46	13.7117
2226.69	15.589
2226.93	15.5929
2227.17	14.6585
2227.41	15.5994
2227.64	16.5407
2227.88	15.6053
2228.12	15.6086
2228.36	15.6121
2228.59	13.7371
2228.83	14.6792
2229.07	14.682
2229.31	16.5646
2229.54	17.5079
2229.78	15.6305
2230.02	16.5738
2230.26	13.7547
2230.49	19.4022
2230.73	15.6417
2230.97	15.6438
2231.21	13.7629
2231.44	20.3509
2231.68	14.7021
2231.92	10.936
2232.16	15.6385
2232.39	16.5735
2232.63	17.5094
2232.87	16.5691
2233.11	14.6889
2233.34	14.6896
2233.58	15.6308
2233.82	14.6908
2234.05	15.6321
2234.29	13.7539
2234.53	18.462
2234.77	17.5275
2235	16.5928
2235.24	16.5991
2235.48	15.6612
2235.72	15.6653
2235.95	11.8979
2236.19	15.6755
2236.43	16.6201
2236.66	15.6753
2236.9	16.6163
2237.14	17.5548
2237.37	14.7219
2237.61	14.7201
2237.85	18.4978
2238.09	12.8448
2238.32	17.5629
2238.56	14.7333
2238.8	11.9034
2239.04	14.7352
2239.27	13.7925
2239.51	14.7379
2239.75	13.7955
2239.98	15.684
2240.22	14.7392
2240.46	12.8494
2240.69	14.7349
2240.93	13.7899
2241.17	11.9019
2241.4	15.6771
2241.64	14.7354
2241.88	16.6279
2242.11	16.6345
2242.35	14.7507
2242.59	13.8091
2242.83	15.7023
2243.06	18.5421
2243.3	14.7629
2243.54	14.7654
2243.77	12.8748
2244.01	13.8227
2244.25	14.771
2244.48	15.7189
2244.72	11.9337
2244.96	11.9334
2245.19	16.6648
2245.43	14.7709
2245.67	15.7162
2245.91	15.7152
2246.14	15.7142
2246.38	15.7135
2246.61	12.8769
2246.85	16.6644
2247.09	17.6106
2247.32	14.7693
2247.56	17.6049
2247.8	17.6012
2248.03	15.7054
2248.27	14.7567
2248.51	15.7
2248.74	13.8081
2248.98	12.863
2249.22	12.8643
2249.45	15.7033
2249.69	15.7064
2249.93	15.7112
2250.16	13.826
2250.4	14.7785
2250.64	16.6776
2250.87	13.8385
2251.11	16.6845
2251.35	14.7916
2251.58	12.8972
2251.82	13.8456
2252.06	15.7404
2252.29	12.8965
2252.53	14.7929
2252.77	13.8451
2253	19.5351
2253.24	12.8993
2253.48	12.9016
2253.71	15.7501
2253.95	16.7015
2254.18	15.7552
2254.42	15.7576
2254.66	15.76
2254.89	12.9131
2255.13	11.9641
2255.37	14.8135
2255.6	15.764
2255.84	15.7655
2256.08	16.7176
2256.31	14.8197
2256.55	15.7713
2256.78	14.8223
2257.02	17.6751
2257.26	16.7264
2257.49	13.8761
2257.73	16.7295
2257.96	15.781
2258.2	12.9324
2258.44	12.9351
2258.67	12.9356
2258.91	15.7908
2259.15	16.7437
2259.38	15.7933
2259.62	13.8918
2259.85	16.7507
2260.09	15.8021
2260.33	15.8062
2260.56	14.8581
2260.8	14.8632
2261.03	12.9619
2261.27	15.8285
2261.51	15.8339
2261.74	13.9294
2261.98	13.9327
2262.21	14.8905
2262.45	14.893
2262.69	13.9383
2262.92	13.9387
2263.16	16.8032
2263.39	13.9345
2263.63	14.8859
2263.87	15.8366
2264.1	16.7873
2264.34	10.1052
2264.57	15.8278
2264.81	14.8713
2265.05	14.8679
2265.28	14.8653
2265.52	15.8177
2265.75	12.9575
2265.99	16.7738
2266.22	13.9157
2266.46	20.5982
2266.7	12.9687
2266.93	12.9725
2267.17	12.9769
2267.4	16.8024
2267.64	13.9389
2267.87	16.8075
2268.11	17.767
2268.35	9.16553
2268.58	15.86
2268.82	14.9058
2269.05	15.8651
2269.29	16.8233
2269.53	14.9103
2269.76	15.8676
2270	17.7819
2270.23	14.9123
2270.47	17.7838
2270.7	15.8707
2270.94	14.9145
2271.18	17.7864
2271.41	13.9586
2271.65	15.8736
2271.88	13.0027
2272.12	16.8328
2272.35	14.9189
2272.59	14.9198
2272.82	13.0043
2273.06	16.8364
2273.3	12.0513
2273.53	15.8864
2273.77	15.8899
2274	15.893
2274.24	14.9378
2274.47	15.9016
2274.71	14.9481
2274.94	13.9941
2275.18	15.9205
2275.41	16.8832
2275.65	12.0822
2275.88	14.0032
2276.12	14.963
2276.36	14.9619
2276.59	18.8001
2276.83	15.9121
2277.06	14.9479
2277.3	15.9029
2277.53	17.8172
2277.77	15.8959
2278	14.9348
2278.24	14.9332
2278.47	14.9312
2278.71	13.9712
2278.94	14.9312
2279.18	14.9321
2279.41	16.8517
2279.65	16.8549
2279.89	13.9813
2280.12	14.9438
2280.36	15.9077
2280.59	13.0336
2280.83	17.8423
2281.06	16.8889
2281.3	13.0511
2281.53	16.9013
2281.77	14.0178
2282	14.0209
2282.24	14.9863
2282.47	15.9497
2282.71	17.875
2282.94	15.9467
2283.18	14.0168
2283.41	15.9398
2283.65	14.0171
2283.88	15.9434
2284.12	15.9508
2284.35	16.9199
2284.59	14.0333
2284.82	13.0715
2285.06	16.9288
2285.29	14.0374
2285.53	16.9249
2285.76	16.9222
2286	16.9191
2286.23	14.9886
2286.47	14.9828
2286.7	14.9776
2286.94	13.0481
2287.17	15.9304
2287.41	15.9286
2287.64	14.9672
2287.88	13.0447
2288.11	14.9695
2288.35	15.9352
2288.58	16.9025
2288.82	14.9817
2289.05	14.0217
2289.28	19.8001
2289.52	14.0266
2289.75	14.993
2289.99	14.9962
2290.22	15.9623
2290.46	14.0373
2290.69	16.9301
2290.93	15.0034
2291.16	15.9659
2291.4	14.0366
2291.63	15.9614
2291.87	14.9949
2292.1	13.0662
2292.34	16.9166
2292.57	13.0623
2292.81	15.9488
2293.04	16.9095
2293.28	15.943
2293.51	14.0121
2293.74	16.8973
2293.98	13.05
2294.21	14.9764
2294.45	14.9791
2294.68	14.9823
2294.92	14.9865
2295.15	15.9549
2295.39	14.9948
2295.62	16.9242
2295.86	14.0358
2296.09	16.9318
2296.32	15.0067
2296.56	15.9738
2296.79	14.046
2297.03	15.975
2297.26	16.9396
2297.5	15.9745
2297.73	15.0115
2297.97	15.9789
2298.2	14.0508
2298.43	11.1567
2298.67	14.0531
2298.9	15.0186
2299.14	14.0528
2299.37	15.0166
2299.61	15.9806
2299.84	15.0157
2300.07	15.0153
2300.31	15.0143
2300.54	16.9441
2300.78	15.0141
2301.01	15.0155
2301.25	13.0873
2301.48	15.0203
2301.71	17.9188
2301.95	13.0924
2302.18	16.9587
2302.42	13.0962
2302.65	15.029
2302.89	12.1314
2303.12	17.9311
2303.35	13.1008
2303.59	15.0343
2303.82	15.0345
2304.05	15.0342
2304.29	15.0336
2304.52	15.9986
2304.76	15.0301
2304.99	13.0963
2305.23	15.0274
2305.46	15.9921
2305.69	15.992
2305.93	13.0941
2306.16	14.0623
2306.4	13.0981
2306.63	16.9682
2306.86	15.0394
2307.1	13.108
2307.33	17.9461
2307.57	17.9465
2307.8	18.9133
2308.03	14.0747
2308.27	17.9396
2308.5	17.9293
2308.74	15.0198
2308.97	15.0144
2309.2	16.941
2309.44	16.9384
2309.67	15.9703
2309.91	15.0032
2310.14	13.0731
2310.37	15.9695
2310.61	16.9396
2310.84	16.9462
2311.07	17.9171
2311.31	15.9898
2311.54	14.0614
2311.78	15.0336
2312.01	15.0386
2312.24	13.1062
2312.48	15.037
2312.71	17.934
2312.94	14.0631
2313.18	16.9588
2313.41	15.0173
2313.65	15.9786
2313.88	16.9418
2314.11	14.0446
2314.35	13.0796
2314.58	16.943
2314.81	13.0836
2315.05	15.0181
2315.28	15.9787
2315.51	13.0789
2315.75	15.0081
2315.98	15.0056
2316.22	13.0725
2316.45	15.9657
2316.68	13.0689
2316.92	14.0327
2317.15	14.0326
2317.38	13.0679
2317.62	17.8925
2317.85	14.999
2318.08	14.0359
2318.32	16.9343
2318.55	15.0062
2318.78	15.9752
2319.02	15.0136
2319.25	15.0182
2319.48	15.9886
2319.72	14.0567
2319.95	15.9893
2320.19	16.9567
2320.42	17.9247
2320.65	17.9256
2320.89	15.9929
2321.12	15.9933
2321.35	15.9924
2321.58	17.9254
2321.82	16.9542
2322.05	15.9824
2322.28	16.9426
2322.52	16.9385
2322.75	16.935
2322.98	15.966
2323.22	18.8584
2323.45	18.8541
2323.68	18.8499
2323.92	14.9871
2324.15	16.9126
2324.38	17.8728
2324.62	17.87
2324.85	16.903
2325.08	18.8285
2325.32	16.9016
2325.55	20.7571
2325.78	20.7575
2326.02	26.5353
2326.25	24.603
2326.48	30.3758
2326.71	36.152
2326.95	40.9659
2327.18	53.4938
2327.41	70.8276
2327.65	83.3424
2327.88	76.5934
2328.11	62.1458
2328.35	47.704
2328.58	40.9685
2328.81	25.5611
2329.05	26.5309
2329.28	22.6699
2329.51	22.6653
2329.75	24.588
2329.98	21.6957
2330.21	21.6927
2330.44	18.8018
2330.68	15.9119
2330.91	16.8728
2331.14	16.8703
2331.38	16.8673
2331.61	17.8246
2331.84	12.051
2332.07	15.8964
2332.31	13.9724
2332.54	14.9331
2332.77	14.9335
2333	14.9345
2333.24	15.8955
2333.47	15.8937
2333.7	14.931
2333.94	13.9687
2334.17	13.968
2334.4	15.89
2334.63	13.9664
2334.87	13.9651
2335.1	14.9252
2335.33	16.8468
2335.56	13.9624
2335.8	16.8452
2336.03	13.9622
2336.26	14.9236
2336.5	12.0398
2336.73	13.9616
2336.96	15.8825
2337.19	16.8414
2337.43	15.8776
2337.66	12.9927
2337.89	15.871
2338.12	15.8664
2338.36	11.0617
2338.59	15.8548
2338.82	14.8909
2339.05	13.929
2339.29	17.7621
2339.52	14.8829
2339.75	14.8811
2339.98	15.8387
2340.22	13.9211
2340.45	15.8383
2340.68	13.9203
2340.91	12.961
2341.15	14.8782
2341.38	13.9204
2341.61	13.9208
2341.84	14.8789
2342.08	12.9606
2342.31	13.9175
2342.54	12.9568
2342.77	15.8274
2343.01	12.9507
2343.24	14.8635
2343.47	13.9046
2343.7	15.8189
2343.93	16.7756
2344.17	13.9015
2344.4	15.8151
2344.63	15.8146
2344.86	14.8574
2345.1	14.8582
2345.33	15.8175
2345.56	15.8186
2345.79	15.8184
2346.03	10.0712
2346.26	12.9416
2346.49	15.807
2346.72	14.8434
2346.95	14.8358
2347.19	15.7822
2347.42	14.8156
2347.65	16.7032
2347.88	13.8125
2348.12	13.8352
2348.35	12.9267
2348.58	16.7692
2348.81	11.9567
2349.04	15.7608
2349.28	14.8079
2349.51	14.8096
2349.74	14.8002
2349.97	12.8802
2350.2	14.7757
2350.44	13.827
2350.67	15.7307
2350.9	15.7275
2351.13	13.8228
2351.36	14.7745
2351.6	11.9201
2351.83	13.8286
2352.06	13.828
2352.29	15.7326
2352.52	13.8255
2352.76	13.8241
2352.99	10.0121
2353.22	12.8673
2353.45	14.7671
2353.68	16.6631
2353.92	13.8029
2354.15	14.751
2354.38	14.7483
2354.61	10.9427
2354.84	16.6446
2355.07	11.8897
2355.31	17.5906
2355.54	13.7877
2355.77	13.7847
2356	14.7331
2356.23	15.6819
2356.46	13.781
2356.7	15.6787
2356.93	12.827
2357.16	14.7229
2357.39	14.7193
2357.62	15.6647
2357.86	16.6097
2358.09	12.8114
2358.32	15.653
2358.55	15.649
2358.78	14.697
2359.01	13.7454
2359.25	11.8467
2359.48	14.6846
2359.71	13.7342
2359.94	14.678
2360.17	13.7287
2360.4	15.6191
2360.63	14.6708
2360.87	12.7767
2361.1	14.6671
2361.33	13.7189
2361.56	12.7709
2361.79	16.5514
2362.02	12.7674
2362.26	15.6009
2362.49	14.6523
2362.72	14.6452
2362.95	15.5803
2363.18	14.629
2363.41	17.4578
2363.64	14.6262
2363.88	12.7399
2364.11	13.6894
2364.34	14.6421
2364.57	15.5936
2364.8	14.6471
