#Acq. time (s)=	30
#Accumulations=	2
#Range (cm-¹)=	1200...2365
#Windows=	3
#Auto scanning=	Off
#Autofocus=	Off
#Macrospot=	Off
#AutoExposure=	Off
#Spike filter=	Multiple accum.
#Delay time (s)=	2
#Binning=	1
#Readout mode=	Signal
#DeNoise=	Off
#ICS correction=	On
#Dark correction=	Off
#Inst. Process=	Off
#Detector Gain=	Best Dynamic
#Detector ADC=	50 kHz HS
#Detector temperature (°C)=	-60.09
#Instrument=	LabRAM HR Evol
#Detector=	SIN-EM FIVIS
#Objective=	x100_VIS_LWD
#Grating=	1800 (450-850nm)
#ND Filter=	100%
#Laser=	532nm_Edge
#Hole=	100.021
#Temperature=	0
#Range=	Visible
#StageXY=	75x50mm Scan+
#StageZ=	Z motor
#X (µm)=	0
#Y (µm)=	0
#Z (µm)=	12.5
#Full time(mm:ss)=	3:23
#Project=	21_11_26
#Sample=	BU19(2)w
#Site=	
#Title=	BU19(2)w-A-FF2-FI01-V_1800 (450-850nm)_532nm_Edge_100%_x100_VIS_LWD_H100um_30sX2
#Remark=	
#Date=	26.11.2021 14:18
#Acquired=	26.11.2021 14:18:21
1202.72	97.3254
1203	100.693
1203.28	109.342
1203.56	101.736
1203.84	100.579
1204.11	101.603
1204.39	102.634
1204.67	100.486
1204.95	96.1933
1205.23	114.445
1205.5	93.9818
1205.78	107.902
1206.06	107.848
1206.34	94.9165
1206.61	98.0861
1206.89	105.541
1207.17	108.702
1207.45	95.8025
1207.73	101.129
1208	111.807
1208.28	102.151
1208.56	107.477
1208.84	101.022
1209.11	102.061
1209.39	96.6842
1209.67	98.8072
1209.95	95.5922
1210.23	103.063
1210.5	99.8322
1210.78	102.992
1211.06	101.879
1211.34	98.6401
1211.61	103.935
1211.89	108.168
1212.17	97.4564
1212.45	97.4153
1212.72	96.3194
1213	95.2223
1213.28	94.1249
1213.56	103.687
1213.83	102.605
1214.11	94.0633
1214.39	103.646
1214.67	90.8699
1214.94	101.514
1215.22	100.445
1215.5	105.76
1215.78	103.622
1216.05	95.0945
1216.33	95.0664
1216.61	92.9012
1216.89	96.0475
1217.16	96.0056
1217.44	94.9098
1217.72	107.626
1218	101.22
1218.27	91.6367
1218.55	90.551
1218.83	91.5897
1219.1	100.065
1219.38	103.237
1219.66	93.6749
1219.94	94.7203
1220.21	100.003
1220.49	95.7538
1220.77	98.9325
1221.04	101.044
1221.32	90.4258
1221.6	88.2853
1221.88	90.386
1222.15	95.6551
1222.43	100.911
1222.71	92.3898
1222.98	106.099
1223.26	94.408
1223.54	93.3039
1223.81	91.1474
1224.09	95.3381
1224.37	92.1322
1224.65	91.0498
1224.92	98.4189
1225.2	99.4575
1225.48	97.3398
1225.76	89.9583
1226.03	96.299
1226.31	91.0282
1226.59	91.0193
1226.86	86.7858
1227.14	84.6544
1227.42	101.523
1227.69	104.632
1227.97	87.6651
1228.25	103.407
1228.52	105.449
1228.8	103.242
1229.08	111.566
1229.35	92.6398
1229.63	99.1861
1229.91	99.394
1230.18	91.9142
1230.46	94.9842
1230.74	92.8402
1231.01	92.8467
1231.29	91.7355
1231.57	98.9055
1231.84	87.3607
1232.12	83.152
1232.4	107.314
1232.67	96.7904
1232.95	99.9363
1233.23	91.5223
1233.5	108.317
1233.78	105.159
1234.06	96.7575
1234.33	105.167
1234.61	105.174
1234.89	99.9318
1235.16	98.8937
1235.44	98.898
1235.71	101.006
1235.99	93.6553
1236.27	97.8651
1236.54	97.8598
1236.82	102.049
1237.1	102.029
1237.37	98.8504
1237.65	100.914
1237.93	112.426
1238.2	103.984
1238.48	108.14
1238.76	90.264
1239.03	115.405
1239.31	102.798
1239.58	101.732
1239.86	101.718
1240.14	92.2735
1240.41	100.652
1240.69	106.937
1240.97	104.84
1241.24	114.276
1241.52	101.697
1241.79	95.3951
1242.07	101.662
1242.35	111.078
1242.62	105.837
1242.9	103.744
1243.18	106.899
1243.45	106.91
1243.73	107.953
1244	105.854
1244.28	107.954
1244.56	108.997
1244.83	110.034
1245.11	105.827
1245.39	115.232
1245.66	115.199
1245.94	115.155
1246.21	116.16
1246.49	118.234
1246.76	116.127
1247.04	121.358
1247.32	114.025
1247.59	122.384
1247.87	118.192
1248.14	121.315
1248.42	125.45
1248.7	126.468
1248.97	116
1249.25	116.003
1249.52	128.56
1249.8	115.997
1250.08	118.081
1250.35	113.895
1250.63	110.73
1250.9	129.515
1251.18	116.94
1251.45	116.914
1251.73	121.068
1252.01	116.865
1252.28	115.796
1252.56	123.08
1252.83	120.965
1253.11	130.33
1253.39	122.996
1253.66	124.024
1253.94	118.803
1254.21	124.037
1254.49	128.233
1254.76	131.389
1255.04	124.088
1255.31	125.128
1255.59	129.311
1255.87	138.706
1256.14	137.651
1256.42	132.433
1256.69	143.927
1256.97	151.256
1257.24	160.661
1257.52	173.183
1257.79	177.332
1258.07	181.489
1258.35	177.295
1258.62	163.703
1258.9	155.329
1259.17	166.77
1259.45	167.806
1259.72	175.129
1260	186.634
1260.27	177.308
1260.55	206.495
1260.82	208.529
1261.1	227.233
1261.37	258.471
1261.65	265.727
1261.92	293.928
1262.2	328.643
1262.48	359.391
1262.75	383.676
1263.02	378.866
1263.3	386.752
1263.58	378.229
1263.85	362.94
1264.13	313.075
1264.4	286.183
1264.68	257.033
1264.95	251.641
1265.23	223.356
1265.5	211.856
1265.78	186.752
1266.05	189.849
1266.33	162.678
1266.6	177.316
1266.88	166.885
1267.15	165.867
1267.43	163.811
1267.7	163.852
1267.98	152.389
1268.25	150.343
1268.53	158.782
1268.8	161.978
1269.08	169.339
1269.35	166.22
1269.63	141.09
1269.9	158.889
1270.18	158.851
1270.45	157.751
1270.73	149.338
1271	155.578
1271.28	150.315
1271.55	151.348
1271.83	171.204
1272.1	147.146
1272.38	163.923
1272.65	150.356
1272.93	162.979
1273.2	153.589
1273.47	168.296
1273.75	163.097
1274.03	162.089
1274.3	155.836
1274.57	174.738
1274.85	161.107
1275.12	171.585
1275.4	175.778
1275.67	174.745
1275.95	181.066
1276.22	171.65
1276.5	192.68
1276.77	178.014
1277.05	196.946
1277.32	193.82
1277.6	207.52
1277.87	213.871
1278.14	223.378
1278.42	227.624
1278.69	256.05
1278.97	280.308
1279.24	290.868
1279.52	310.901
1279.79	362.426
1280.07	426.557
1280.34	507.486
1280.61	619.996
1280.89	773.602
1281.16	1027.18
1281.44	1375.69
1281.71	1853.95
1281.99	2456.3
1282.26	3287.8
1282.53	4079.74
1282.81	4723.48
1283.08	5161.64
1283.36	5071.79
1283.63	4559.62
1283.91	3604.84
1284.18	2671.65
1284.45	1899.26
1284.73	1323.74
1285	945.684
1285.28	709.632
1285.55	536.56
1285.83	455.303
1286.1	383.714
1286.37	356.414
1286.65	292.17
1286.92	282.636
1287.2	258.413
1287.47	255.235
1287.75	222.562
1288.02	222.519
1288.29	219.335
1288.57	196.177
1288.84	203.546
1289.12	196.19
1289.39	201.479
1289.66	186.773
1289.94	189.963
1290.21	192.106
1290.49	165.801
1290.76	162.636
1291.03	173.148
1291.31	155.23
1291.58	173.129
1291.86	157.325
1292.13	164.688
1292.4	163.633
1292.68	160.481
1292.95	161.521
1293.22	147.814
1293.5	155.191
1293.77	147.864
1294.05	152.138
1294.32	146.927
1294.59	152.214
1294.87	146.938
1295.14	150.088
1295.42	151.166
1295.69	142.786
1295.96	151.307
1296.24	145.074
1296.51	143.017
1296.79	137.744
1297.06	141.973
1297.33	133.499
1297.61	141.926
1297.88	133.441
1298.15	134.464
1298.43	121.753
1298.7	149.223
1298.97	130.199
1299.25	134.397
1299.52	133.32
1299.79	140.684
1300.07	137.512
1300.34	134.366
1300.62	129.097
1300.89	134.377
1301.16	130.144
1301.44	129.08
1301.71	135.418
1301.98	125.933
1302.25	136.512
1302.53	115.394
1302.8	123.845
1303.08	129.122
1303.35	128.054
1303.62	128.036
1303.9	115.338
1304.17	117.442
1304.44	128.001
1304.72	119.55
1304.99	114.266
1305.26	118.472
1305.54	118.447
1305.81	123.694
1306.08	111
1306.35	120.464
1306.63	126.765
1306.9	116.204
1307.18	121.473
1307.45	119.371
1307.72	108.824
1308	109.874
1308.27	110.924
1308.54	118.31
1308.81	109.862
1309.09	109.865
1309.36	117.263
1309.63	113.056
1309.91	119.401
1310.18	108.855
1310.45	117.292
1310.73	108.839
1311	109.891
1311.27	110.947
1311.55	119.393
1311.82	104.619
1312.09	113.069
1312.37	110.973
1312.64	118.377
1312.91	110.991
1313.18	113.094
1313.46	109.906
1313.73	119.4
1314	109.885
1314.28	114.096
1314.55	118.314
1314.82	110.929
1315.09	106.714
1315.37	106.724
1315.64	117.293
1315.91	118.361
1316.18	113.092
1316.46	101.466
1316.73	106.736
1317	110.953
1317.28	103.554
1317.55	99.3259
1317.82	104.618
1318.09	108.85
1318.37	104.628
1318.64	109.911
1318.91	108.854
1319.18	110.964
1319.46	103.562
1319.73	102.498
1320	97.2092
1320.28	120.454
1320.55	109.888
1320.82	103.54
1321.09	100.352
1321.37	108.774
1321.64	114.018
1321.91	101.314
1322.18	111.844
1322.46	104.424
1322.73	106.516
1323	109.662
1323.27	111.751
1323.55	104.345
1323.82	109.626
1324.09	104.355
1324.36	104.354
1324.64	107.51
1324.91	102.236
1325.18	113.829
1325.45	107.506
1325.73	115.908
1326	100.046
1326.27	89.4525
1326.54	109.38
1326.81	103.032
1327.09	123.009
1327.36	106.209
1327.63	111.542
1327.9	101.044
1328.18	110.56
1328.45	103.221
1328.72	105.367
1328.99	106.453
1329.27	115.955
1329.54	110.662
1329.81	106.451
1330.08	99.0574
1330.35	105.375
1330.63	114.851
1330.9	106.39
1331.17	103.197
1331.44	106.325
1331.71	107.333
1331.99	107.282
1332.26	104.083
1332.53	106.155
1332.8	109.276
1333.07	99.7676
1333.35	107.089
1333.62	108.101
1333.89	112.267
1334.16	101.726
1334.43	113.247
1334.71	112.163
1334.98	104.784
1335.25	112.105
1335.52	118.375
1335.79	115.202
1336.07	103.64
1336.34	107.814
1336.61	99.405
1336.88	115.115
1337.15	107.759
1337.43	111.939
1337.7	115.07
1337.97	107.717
1338.24	101.4
1338.51	95.0877
1338.78	106.591
1339.06	118.089
1339.33	101.319
1339.6	104.454
1339.87	111.784
1340.14	104.457
1340.42	105.503
1340.69	103.409
1340.96	112.834
1341.23	108.639
1341.5	109.678
1341.77	99.1954
1342.04	108.604
1342.32	100.208
1342.59	103.322
1342.86	111.662
1343.13	108.491
1343.4	102.196
1343.67	106.368
1343.95	105.315
1344.22	110.54
1344.49	102.172
1344.76	103.214
1345.03	112.613
1345.3	107.363
1345.58	111.516
1345.85	103.117
1346.12	109.356
1346.39	104.092
1346.66	109.256
1346.93	103.999
1347.2	110.223
1347.47	104.97
1347.75	107.023
1348.02	108.042
1348.29	105.939
1348.56	106.969
1348.83	108
1349.1	109.021
1349.37	103.788
1349.65	111.055
1349.92	113.114
1350.19	111.007
1350.46	104.737
1350.73	104.714
1351	110.928
1351.27	115.058
1351.54	111.915
1351.81	107.722
1352.09	108.75
1352.36	107.705
1352.63	104.594
1352.9	112.935
1353.17	111.926
1353.44	110.9
1353.71	106.825
1353.98	117.348
1354.25	117.233
1354.53	117.051
1354.8	115.887
1355.07	112.78
1355.34	113.825
1355.61	122.091
1355.88	114.795
1356.15	112.753
1356.42	116.915
1356.69	115.847
1356.96	117.909
1357.24	111.664
1357.51	118.919
1357.78	123.053
1358.05	121.992
1358.32	110.549
1358.59	120.903
1358.86	118.804
1359.13	116.701
1359.4	119.786
1359.67	129.099
1359.94	124.931
1360.22	119.711
1360.49	122.781
1360.76	114.454
1361.03	127.896
1361.3	111.308
1361.57	121.661
1361.84	120.617
1362.11	127.857
1362.38	127.838
1362.65	127.821
1362.92	131.946
1363.19	138.15
1363.46	143.333
1363.73	146.461
1364	150.619
1364.28	163.065
1364.55	143.378
1364.82	148.544
1365.09	149.561
1365.36	138.139
1365.63	139.14
1365.9	138.068
1366.17	143.207
1366.44	133.86
1366.71	142.099
1366.98	131.714
1367.25	139.934
1367.52	150.244
1367.79	162.626
1368.06	169.879
1368.33	210.202
1368.6	294.976
1368.87	375.625
1369.15	363.238
1369.41	273.314
1369.68	213.357
1369.95	174.041
1370.23	167.815
1370.5	136.783
1370.77	152.244
1371.04	139.821
1371.31	141.858
1371.58	149.044
1371.85	151.055
1372.12	148.927
1372.39	158.151
1372.66	150.873
1372.93	160.108
1373.2	159.047
1373.47	147.684
1373.74	155.906
1374.01	149.704
1374.28	153.809
1374.55	167.189
1374.82	167.174
1375.09	160.977
1375.36	171.253
1375.63	166.106
1375.9	167.154
1376.17	174.358
1376.44	171.273
1376.71	177.406
1376.98	184.567
1377.25	173.178
1377.52	170.015
1377.79	188.557
1378.06	183.456
1378.33	192.794
1378.6	195.977
1378.87	189.897
1379.14	207.454
1379.41	204.35
1379.68	203.288
1379.95	217.685
1380.22	233.094
1380.49	222.69
1380.76	233.827
1381.03	244.003
1381.3	266.533
1381.57	255.259
1381.84	281.925
1382.11	284.874
1382.38	321.711
1382.65	352.379
1382.92	367.646
1383.19	395.206
1383.46	436.125
1383.73	497.527
1384	570.236
1384.27	686.001
1384.54	801.875
1384.81	991.63
1385.08	1347.67
1385.34	1774.77
1385.61	2556.41
1385.88	3818.63
1386.15	5726.07
1386.42	8409.98
1386.69	10937.2
1386.96	11860.7
1387.23	10107.2
1387.5	7130
1387.77	4423.26
1388.04	2711.06
1388.31	1788.64
1388.58	1233.07
1388.85	909.082
1389.12	718.311
1389.39	594.528
1389.66	511.403
1389.93	429.308
1390.2	390.151
1390.46	364.199
1390.73	311.768
1391	304.576
1391.27	292.149
1391.54	261.374
1391.81	247
1392.08	229.523
1392.35	242.776
1392.62	222.237
1392.89	222.196
1393.16	210.901
1393.43	214.968
1393.7	188.331
1393.97	203.662
1394.23	188.291
1394.5	180.088
1394.77	182.12
1395.04	178.017
1395.31	170.87
1395.58	179.083
1395.85	181.149
1396.12	186.272
1396.39	166.815
1396.66	176.009
1396.93	169.844
1397.2	154.469
1397.46	166.714
1397.73	159.519
1398	164.615
1398.27	161.541
1398.54	156.434
1398.81	161.565
1399.08	157.481
1399.35	143.162
1399.62	156.486
1399.89	160.594
1400.16	161.63
1400.42	159.578
1400.69	161.645
1400.96	154.515
1401.23	155.555
1401.5	162.714
1401.77	169.899
1402.04	167.847
1402.31	163.803
1402.58	160.818
1402.84	159.889
1403.11	186.637
1403.38	168.217
1403.65	187.746
1403.92	176.452
1404.19	167.174
1404.46	204.007
1404.73	196.853
1404.99	202.988
1405.26	215.27
1405.53	232.665
1405.8	248
1406.07	271.535
1406.34	293.016
1406.61	329.882
1406.87	371.876
1407.14	406.74
1407.41	472.371
1407.68	502.139
1407.95	574.957
1408.22	641.633
1408.49	643.719
1408.76	628.374
1409.02	548.431
1409.29	466.433
1409.56	398.776
1409.83	328.028
1410.1	272.65
1410.37	238.796
1410.63	221.31
1410.9	191.511
1411.17	187.348
1411.44	170.904
1411.71	164.724
1411.98	147.283
1412.25	141.127
1412.51	129.874
1412.78	136.058
1413.05	141.269
1413.32	139.384
1413.59	116.864
1413.86	127.036
1414.12	117.635
1414.39	109.454
1414.66	119.788
1414.93	126.002
1415.2	106.484
1415.47	116.752
1415.73	102.376
1416	105.456
1416.27	98.2741
1416.54	114.711
1416.81	96.2329
1417.07	107.538
1417.34	104.467
1417.61	101.394
1417.88	104.484
1418.15	108.598
1418.42	96.2658
1418.68	105.515
1418.95	107.573
1419.22	108.599
1419.49	102.432
1419.76	97.2793
1420.02	102.395
1420.29	105.452
1420.56	96.1858
1420.83	98.2163
1421.1	98.1914
1421.36	104.328
1421.63	103.289
1421.9	104.319
1422.17	90.9971
1422.44	102.323
1422.7	102.355
1422.97	95.2126
1423.24	106.61
1423.51	107.733
1423.77	102.334
1424.04	101.087
1424.31	105.213
1424.58	103.058
1424.85	101.007
1425.11	104.108
1425.38	99.0506
1425.65	95.9835
1425.92	94.941
1426.19	89.8421
1426.45	86.7547
1426.72	86.7357
1426.99	74.4049
1427.26	95.908
1427.52	86.6528
1427.79	88.6621
1428.06	91.7013
1428.33	88.6112
1428.59	87.5783
1428.86	81.4331
1429.13	88.6026
1429.4	78.3666
1429.67	85.5419
1429.93	78.3821
1430.2	88.6418
1430.47	74.3153
1430.74	80.4788
1431	78.4501
1431.27	82.5859
1431.54	86.7167
1431.81	87.7553
1432.07	79.5415
1432.34	82.6018
1432.61	76.4228
1432.87	82.5626
1433.14	76.3805
1433.41	78.398
1433.68	80.41
1433.95	69.1066
1434.21	73.1821
1434.48	76.2431
1434.75	79.3499
1435.01	81.4133
1435.28	83.4631
1435.55	80.3863
1435.82	82.4306
1436.08	66.0287
1436.35	71.1442
1436.62	82.406
1436.89	77.2726
1437.15	86.481
1437.42	69.0573
1437.69	75.1976
1437.95	77.2341
1438.22	75.1786
1438.49	74.1552
1438.76	76.2124
1439.02	74.1677
1439.29	77.2403
1439.56	71.0942
1439.82	73.1518
1440.09	67.0162
1440.36	67.0326
1440.63	67.0381
1440.89	76.2679
1441.16	72.1642
1441.43	72.1652
1441.69	73.1818
1441.96	65.989
1442.23	76.2317
1442.49	70.0922
1442.76	81.3708
1443.03	64.9739
1443.3	72.1408
1443.56	64.9472
1443.83	76.2117
1444.1	74.1504
1444.36	76.1945
1444.63	78.2465
1444.9	72.1138
1445.16	74.1802
1445.43	68.0453
1445.7	68.0361
1445.97	72.1297
1446.23	64.9396
1446.5	69.0334
1446.77	59.7939
1447.03	64.9136
1447.3	74.1346
1447.57	68.9965
1447.83	63.8578
1448.1	69.9989
1448.37	67.9448
1448.63	66.9285
1448.9	65.9153
1449.17	68.9932
1449.43	64.8863
1449.7	71.0308
1449.97	60.7634
1450.23	67.9267
1450.5	63.8113
1450.77	65.8524
1451.03	70.9686
1451.3	59.6856
1451.57	64.801
1451.83	70.9392
1452.1	65.8056
1452.37	73.9934
1452.63	62.7172
1452.9	64.7639
1453.17	63.7393
1453.43	61.6941
1453.7	64.7714
1453.97	57.5949
1454.23	58.612
1454.5	64.7536
1454.77	60.6514
1455.03	64.747
1455.3	62.6923
1455.56	60.6354
1455.83	62.6827
1456.1	55.5168
1456.36	66.7934
1456.63	62.6902
1456.9	65.7559
1457.16	63.6915
1457.43	60.6039
1457.7	59.5713
1457.96	62.6371
1458.23	65.7042
1458.49	55.4574
1458.76	59.5531
1459.03	56.4799
1459.29	62.6265
1459.56	68.7728
1459.82	59.5497
1460.09	55.4457
1460.36	58.512
1460.62	67.7241
1460.89	64.6418
1461.16	57.4614
1461.42	66.6673
1461.69	61.535
1461.95	66.6415
1462.22	55.366
1462.49	58.4224
1462.75	56.36
1463.02	62.4822
1463.28	55.3038
1463.55	68.5804
1463.82	56.2931
1464.08	53.2204
1464.35	56.3026
1464.61	61.4425
1464.88	62.4856
1465.15	58.4169
1465.41	60.4129
1465.68	59.2729
1465.94	54.1157
1466.21	58.1886
1466.48	61.2664
1466.74	60.2362
1467.01	52.0428
1467.27	56.1125
1467.54	62.2363
1467.8	59.1681
1468.07	58.1401
1468.34	58.134
1468.6	53.0291
1468.87	57.1045
1469.13	56.0776
1469.4	60.1478
1469.67	54.0181
1469.93	58.0819
1470.2	55.0061
1470.46	66.2022
1470.73	61.0942
1470.99	49.8754
1471.26	47.8303
1471.53	55.9693
1471.79	48.8248
1472.06	60.0161
1472.32	57.9715
1472.59	60.0022
1472.85	57.9605
1473.12	52.8642
1473.39	48.7839
1473.65	57.9347
1473.92	56.9043
1474.18	58.929
1474.45	52.8152
1474.71	54.8468
1474.98	57.9017
1475.24	49.7598
1475.51	60.9531
1475.78	50.7696
1476.04	50.7612
1476.31	58.891
1476.57	56.8465
1476.84	55.8204
1477.1	51.7385
1477.37	57.8284
1477.63	52.7349
1477.9	57.8141
1478.16	56.7921
1478.43	61.8658
1478.69	55.7499
1478.96	51.6718
1479.22	55.7255
1479.49	54.6958
1479.76	48.5855
1480.02	58.7284
1480.29	52.6185
1480.55	56.6558
1480.82	50.5455
1481.08	60.6785
1481.35	53.5668
1481.61	54.568
1481.88	55.5843
1482.14	56.6049
1482.41	51.5378
1482.67	52.5607
1482.94	57.6422
1483.2	52.5622
1483.47	53.5809
1483.73	54.5966
1484	51.5468
1484.26	54.5877
1484.53	56.5909
1484.79	45.3948
1485.06	56.4867
1485.32	55.3905
1485.59	49.2891
1485.85	61.3745
1486.12	54.4287
1486.38	52.4146
1486.65	48.377
1486.91	51.357
1487.18	58.474
1487.44	47.3325
1487.71	50.3533
1487.97	61.479
1488.24	46.2754
1488.5	52.3392
1488.77	49.2863
1489.03	51.2943
1489.3	47.2328
1489.56	51.2709
1489.83	50.2509
1490.09	59.3487
1490.36	49.228
1490.62	59.3402
1490.89	51.2368
1491.15	56.279
1491.42	47.1635
1491.68	47.1551
1491.95	48.1603
1492.21	50.1785
1492.48	54.2215
1492.74	54.216
1493	48.1436
1493.27	51.1711
1493.53	51.1674
1493.8	50.1491
1494.06	54.1868
1494.33	56.2057
1494.59	51.1515
1494.86	56.2075
1495.12	46.0921
1495.39	50.1237
1495.65	56.1675
1495.92	54.1222
1496.18	48.0428
1496.45	59.1363
1496.71	53.0669
1496.97	59.1129
1497.24	55.0636
1497.5	57.0781
1497.77	51.0184
1498.03	53.0301
1498.3	51.0068
1498.56	53.0221
1498.82	51.0013
1499.09	43.9347
1499.35	53.017
1499.62	49.9889
1499.88	49.9901
1500.15	59.0771
1500.41	50.999
1500.68	47.9663
1500.94	53.0087
1501.2	56.0319
1501.47	50.9749
1501.73	53.9884
1502	49.9446
1502.26	49.9394
1502.52	49.9338
1502.79	60.0151
1503.05	42.8486
1503.32	57.9647
1503.58	52.9116
1503.85	57.9393
1504.11	52.894
1504.37	57.9378
1504.64	50.8779
1504.9	53.9001
1505.17	44.8182
1505.43	50.8594
1505.7	46.8149
1505.96	44.7814
1506.22	56.8509
1506.49	54.8282
1506.75	49.7857
1507.02	57.8442
1507.28	53.819
1507.54	54.8254
1507.81	50.7936
1508.07	46.7587
1508.34	50.7822
1508.6	55.8136
1508.86	54.8035
1509.13	53.7945
1509.39	51.7764
1509.66	48.7491
1509.92	51.7682
1510.18	54.794
1510.45	49.7552
1510.71	52.7643
1510.98	52.7497
1511.24	50.7187
1511.5	52.7138
1511.77	52.6875
1512.03	51.6484
1512.29	56.6433
1512.56	56.6101
1512.82	52.5628
1513.08	51.5403
1513.35	43.4913
1513.61	52.5137
1513.88	50.4979
1514.14	56.5313
1514.4	45.5021
1514.67	48.517
1514.93	48.5075
1515.2	51.5046
1515.46	57.5099
1515.72	52.4723
1515.99	48.4381
1516.25	53.4344
1516.51	52.4159
1516.78	55.4152
1517.04	51.396
1517.3	57.4047
1517.57	51.3837
1517.83	53.3864
1518.09	48.3734
1518.36	56.4024
1518.62	50.3844
1518.88	56.4028
1519.15	52.3905
1519.41	52.3918
1519.67	51.3894
1519.94	54.3985
1520.2	51.3838
1520.47	55.3879
1520.73	48.3583
1520.99	52.3705
1521.26	50.3659
1521.52	53.3774
1521.78	51.369
1522.05	48.353
1522.31	46.3382
1522.57	50.3418
1522.84	52.3378
1523.1	52.3284
1523.36	49.3071
1523.62	50.2901
1523.89	51.2671
1524.15	48.2434
1524.41	51.2337
1524.68	51.2205
1524.94	49.2056
1525.2	52.2124
1525.47	50.2085
1525.73	52.21
1525.99	52.2146
1526.26	47.2123
1526.52	52.2328
1526.78	52.2408
1527.05	54.2465
1527.31	46.2226
1527.57	53.2275
1527.84	51.2159
1528.1	52.2098
1528.36	52.2016
1528.63	54.1951
1528.89	48.1746
1529.15	52.173
1529.41	45.1551
1529.68	53.1637
1529.94	47.1469
1530.2	51.1408
1530.47	51.1348
1530.73	54.1407
1530.99	47.1372
1531.25	50.1497
1531.52	55.1645
1531.78	51.1541
1532.04	48.1409
1532.31	47.1367
1532.57	51.1339
1532.83	51.1368
1533.09	45.1343
1533.36	57.1798
1533.62	49.1718
1533.88	49.1758
1534.15	52.186
1534.41	56.1945
1534.67	47.1597
1534.94	52.1672
1535.2	50.1519
1535.46	53.1519
1535.72	50.1296
1535.99	54.1076
1536.25	51.0809
1536.51	49.0616
1536.77	51.0423
1537.04	47.0145
1537.3	46.9942
1537.56	47.9839
1537.82	48.9686
1538.09	46.965
1538.35	46.951
1538.61	56.9288
1538.87	51.9209
1539.14	46.9141
1539.4	51.9236
1539.66	50.9516
1539.92	51.9893
1540.19	55.0188
1540.45	52.0341
1540.71	48.0452
1540.97	45.0476
1541.24	50.0638
1541.5	50.0378
1541.76	51.034
1542.02	45.0026
1542.29	44.9868
1542.55	49.979
1542.81	45.9564
1543.07	49.9457
1543.34	50.9309
1543.6	50.9138
1543.86	51.8926
1544.12	51.8701
1544.39	47.8687
1544.65	53.8691
1544.91	52.8773
1545.17	43.885
1545.43	48.8964
1545.7	46.9114
1545.96	48.9218
1546.22	47.9235
1546.48	45.9223
1546.74	56.9341
1547.01	52.9265
1547.27	45.9166
1547.53	52.9327
1547.79	54.9393
1548.06	47.9099
1548.32	48.8806
1548.58	44.8716
1548.84	45.872
1549.1	47.8865
1549.37	46.8341
1549.63	51.7764
1549.89	46.7628
1550.15	47.7878
1550.42	56.8484
1550.68	48.9162
1550.94	41.9451
1551.2	45.0005
1551.46	51.9918
1551.73	50.9896
1551.99	50.9749
1552.25	45.9361
1552.51	52.9832
1552.77	55.012
1553.03	47.9705
1553.3	51.968
1553.56	51.9234
1553.82	44.8888
1554.08	52.9057
1554.34	56.902
1554.61	54.8757
1554.87	57.8591
1555.13	53.8259
1555.39	54.8167
1555.65	50.8023
1555.91	49.7966
1556.18	54.8053
1556.44	47.7898
1556.7	50.7832
1556.96	46.7736
1557.22	54.7871
1557.48	50.7798
1557.75	48.7736
1558.01	48.7671
1558.27	51.7584
1558.53	45.7296
1558.79	49.7174
1559.06	46.6935
1559.32	55.6775
1559.58	50.6574
1559.84	58.6409
1560.1	53.6276
1560.36	51.6166
1560.63	47.6093
1560.89	54.5972
1561.15	58.5873
1561.41	43.5933
1561.67	45.5918
1561.93	49.5956
1562.19	47.6072
1562.46	51.6196
1562.72	51.6165
1562.98	46.6096
1563.24	52.602
1563.5	51.6011
1563.76	46.5921
1564.02	46.5854
1564.29	46.5998
1564.55	46.6159
1564.81	48.6202
1565.07	58.62
1565.33	44.5788
1565.59	51.478
1565.85	46.3588
1566.11	52.2596
1566.38	50.4919
1566.64	46.5544
1566.9	49.5231
1567.16	51.4816
1567.42	46.5252
1567.68	45.5663
1567.94	48.5521
1568.2	51.5102
1568.47	49.5138
1568.73	50.5176
1568.99	49.5179
1569.25	46.5095
1569.51	57.4817
1569.77	47.4718
1570.03	51.4658
1570.29	51.4666
1570.55	52.4636
1570.82	48.4631
1571.08	56.4536
1571.34	45.4544
1571.6	52.441
1571.86	48.432
1572.12	51.4158
1572.38	44.418
1572.64	54.396
1572.9	50.3865
1573.17	48.3779
1573.43	50.3634
1573.69	51.3488
1573.95	53.3333
1574.21	45.3467
1574.47	51.3413
1574.73	48.3552
1574.99	48.3642
1575.25	46.3762
1575.51	48.3831
1575.78	48.3891
1576.04	51.3862
1576.3	54.3764
1576.56	56.3703
1576.82	48.3662
1577.08	49.3448
1577.34	41.3325
1577.6	53.2898
1577.86	51.2704
1578.12	46.2617
1578.38	48.2372
1578.64	50.2177
1578.9	42.2353
1579.17	51.2035
1579.43	46.2148
1579.69	46.2116
1579.95	49.2018
1580.21	53.1945
1580.47	51.2006
1580.73	48.2064
1580.99	47.2034
1581.25	48.1908
1581.51	44.1911
1581.77	45.1778
1582.03	51.1435
1582.29	49.1352
1582.55	44.146
1582.81	47.1276
1583.07	50.1083
1583.33	50.1015
1583.59	47.108
1583.85	43.1188
1584.11	49.086
1584.38	49.0822
1584.64	48.0872
1584.9	48.087
1585.16	51.0739
1585.42	55.0541
1585.68	49.0707
1585.94	51.0578
1586.2	48.0609
1586.46	46.0535
1586.72	51.0146
1586.98	54.9821
1587.24	48.9995
1587.5	48.9901
1587.76	51.9667
1588.02	51.9602
1588.28	52.9519
1588.54	47.9778
1588.8	50.9655
1589.06	48.9795
1589.32	48.9824
1589.58	45.0036
1589.84	57.9473
1590.1	45.0026
1590.36	53.9595
1590.62	58.939
1590.88	53.9637
1591.14	48.9859
1591.4	49.9765
1591.66	43.0013
1591.92	54.9441
1592.18	45.9729
1592.44	48.9443
1592.7	45.9381
1592.96	47.9124
1593.22	43.9214
1593.48	48.8721
1593.74	51.8292
1594	45.8402
1594.26	45.8235
1594.52	41.8399
1594.78	52.7619
1595.04	53.7584
1595.3	56.7472
1595.56	44.8275
1595.82	57.7418
1596.08	38.8381
1596.34	46.7793
1596.6	58.6941
1596.86	48.7587
1597.12	42.7974
1597.38	51.7371
1597.64	47.7647
1597.9	45.7785
1598.16	43.7866
1598.42	52.7187
1598.68	52.7047
1598.94	47.7207
1599.2	46.7115
1599.46	49.6757
1599.72	45.6934
1599.98	50.642
1600.24	39.7167
1600.5	47.6405
1600.76	43.66
1601.02	49.5928
1601.28	48.581
1601.54	55.4951
1601.8	50.5195
1602.06	48.5204
1602.32	45.5355
1602.58	46.5118
1602.84	45.5074
1603.1	52.417
1603.36	46.4657
1603.62	46.4525
1603.88	46.4422
1604.14	47.423
1604.4	48.4068
1604.66	50.3814
1604.92	48.4018
1605.17	43.4548
1605.43	49.3849
1605.69	45.4279
1605.95	49.384
1606.21	50.3757
1606.47	44.4443
1606.73	51.372
1606.99	49.3955
1607.25	52.3605
1607.51	60.1242
1607.77	43.6691
1608.03	49.4793
1608.29	42.8608
1608.55	47.5805
1608.81	47.6393
1609.07	45.7285
1609.32	46.5025
1609.58	50.1103
1609.84	50.7116
1610.1	47.5427
1610.36	45.856
1610.62	56.9917
1610.88	54.3849
1611.14	49.2095
1611.4	47.7217
1611.66	48.877
1611.92	45.33
1612.18	48.0273
1612.44	49.1494
1612.69	48.1269
1612.95	45.3473
1613.21	56.5174
1613.47	51.3801
1613.73	51.119
1613.99	50.1818
1614.25	49.4504
1614.51	47.362
1614.77	50.7855
1615.03	53.757
1615.29	48.8142
1615.54	52.3286
1615.8	45.6274
1616.06	48.7767
1616.32	47.8092
1616.58	50.8255
1616.84	51.4557
1617.1	50.115
1617.36	45.7499
1617.62	47.9331
1617.88	46.2746
1618.13	50.2264
1618.39	48.2379
1618.65	51.0278
1618.91	49.3786
1619.17	50.8848
1619.43	50.3065
1619.69	49.9142
1619.95	48.7005
1620.2	51.0061
1620.46	53.4035
1620.72	48.904
1620.98	50.2135
1621.24	48.8407
1621.5	50.3697
1621.76	47.7633
1622.02	48.1613
1622.27	51.3778
1622.53	53.0426
1622.79	49.0223
1623.05	47.702
1623.31	49.6682
1623.57	48.8871
1623.83	48.2061
1624.09	48.6882
1624.34	50.9817
1624.6	48.9378
1624.86	49.3092
1625.12	49.1368
1625.38	48.1079
1625.64	49.7107
1625.9	50.5709
1626.15	49.2168
1626.41	46.0413
1626.67	45.0874
1626.93	46.9723
1627.19	49.488
1627.45	47.6691
1627.7	49.293
1627.96	50.8774
1628.22	52.6233
1628.48	49.9744
1628.74	52.723
1629	50.3769
1629.26	51.4423
1629.51	48.0323
1629.77	48.1646
1630.03	50.9123
1630.29	51.216
1630.55	49.4145
1630.81	48.462
1631.06	49.7231
1631.32	46.2152
1631.53	47.7858
1631.79	50.7446
1632.05	49.7646
1632.31	46.8126
1632.57	51.7341
1632.84	51.7443
1633.1	48.807
1633.36	50.7584
1633.62	49.7444
1633.88	47.7648
1634.14	50.7239
1634.4	47.7712
1634.66	47.77
1634.93	58.6102
1635.19	45.7918
1635.45	58.6
1635.71	45.7802
1635.97	51.6861
1636.23	47.7357
1636.49	51.6677
1636.75	50.6727
1637.02	50.6624
1637.28	49.6661
1637.54	49.6538
1637.8	50.6304
1638.06	49.6405
1638.32	49.6325
1638.58	44.702
1638.84	48.6324
1639.1	48.6293
1639.37	50.5945
1639.63	49.606
1639.89	53.5394
1640.15	48.6133
1640.41	49.5923
1640.67	44.6684
1640.93	51.5645
1641.19	52.5523
1641.46	48.6118
1641.72	47.6203
1641.98	50.5653
1642.24	51.5427
1642.5	51.5365
1642.76	47.5931
1643.02	52.5092
1643.28	46.5979
1643.54	54.4676
1643.8	54.4626
1644.06	50.5179
1644.33	46.5725
1644.59	49.5137
1644.85	47.5362
1645.11	48.5148
1645.37	46.547
1645.63	47.5333
1645.89	44.5809
1646.15	49.4983
1646.41	47.5219
1646.67	49.4806
1646.93	50.4557
1647.19	51.4326
1647.46	48.473
1647.72	49.4477
1647.98	45.5061
1648.24	49.4351
1648.5	47.4664
1648.76	52.3888
1649.02	56.3303
1649.28	46.5107
1649.54	52.423
1649.8	48.4761
1650.06	48.4673
1650.32	54.3692
1650.58	50.4427
1650.85	45.5265
1651.11	49.4711
1651.37	50.4619
1651.63	49.4791
1651.89	53.4199
1652.15	46.5184
1652.41	47.5003
1652.67	41.5855
1652.93	49.4611
1653.19	47.4811
1653.45	52.4012
1653.71	48.4567
1653.97	51.4111
1654.23	47.4709
1654.49	49.4411
1654.75	48.4539
1655.01	45.4967
1655.27	45.4986
1655.53	48.4615
1655.8	46.499
1656.06	45.5247
1656.32	47.5052
1656.57	50.4697
1656.84	47.5092
1657.1	49.4819
1657.36	48.4898
1657.62	45.521
1657.88	50.4472
1658.14	47.4798
1658.4	50.4331
1658.66	51.4108
1658.92	47.454
1659.18	45.4709
1659.44	51.3782
1659.7	48.409
1659.96	47.4124
1660.22	48.3846
1660.48	46.4131
1660.74	50.3591
1661	50.363
1661.26	52.3406
1661.52	51.36
1661.78	51.3666
1662.04	47.4199
1662.3	53.3411
1662.56	51.3185
1662.82	45.4813
1663.08	51.4566
1663.34	49.4489
1663.6	52.4046
1663.86	51.4
1664.12	49.3223
1664.38	52.3299
1664.64	45.4279
1664.9	47.4028
1665.16	50.3855
1665.42	48.4156
1665.68	45.4006
1665.94	44.3702
1666.2	50.4078
1666.46	48.437
1666.72	50.4059
1666.98	50.3343
1667.24	51.164
1667.5	45.383
1667.76	53.2657
1668.02	50.293
1668.28	49.2976
1668.54	50.2726
1668.8	47.3103
1669.06	46.3402
1669.32	51.2999
1669.58	45.3753
1669.84	54.2623
1670.1	47.3461
1670.36	46.3501
1670.62	48.3218
1670.88	52.2952
1671.14	47.3657
1671.4	42.4151
1671.66	49.3269
1671.92	50.3095
1672.18	45.366
1672.44	51.297
1672.69	45.3639
1672.95	48.3256
1673.21	49.3102
1673.47	48.3194
1673.73	52.272
1673.99	44.3625
1674.25	52.2735
1674.51	43.3766
1674.77	50.3013
1675.03	50.304
1675.29	49.3202
1675.55	50.3134
1675.81	49.3244
1676.07	53.28
1676.33	49.317
1676.59	43.377
1676.85	53.2727
1677.11	47.332
1677.37	43.3687
1677.63	45.342
1677.89	45.3344
1678.14	48.2929
1678.4	48.2801
1678.66	49.2554
1678.92	43.3098
1679.18	54.1764
1679.44	49.2233
1679.7	46.25
1679.96	49.207
1680.22	49.1985
1680.48	54.1325
1680.74	47.2063
1681	45.2218
1681.26	47.1902
1681.52	48.1722
1681.78	49.1556
1682.03	52.1152
1682.29	47.1719
1682.55	50.1323
1682.81	46.1779
1683.07	49.136
1683.33	49.131
1683.59	54.066
1683.85	53.0744
1684.11	47.1422
1684.37	48.1234
1684.63	46.1372
1684.89	50.08
1685.14	46.1238
1685.4	48.0935
1685.66	49.0764
1685.92	47.0975
1686.18	47.0941
1686.44	49.0664
1686.7	48.079
1686.96	43.1459
1687.22	47.098
1687.48	48.0832
1687.73	50.0517
1687.99	46.0914
1688.25	45.095
1688.51	44.0996
1688.77	49.0283
1689.03	44.0813
1689.29	49.9909
1689.55	46.0314
1689.81	44.0464
1690.06	47.9804
1690.32	53.8841
1690.58	44.0147
1690.84	45.0072
1691.1	45.0091
1691.36	48.9561
1691.62	49.9416
1691.88	45.0087
1692.13	52.9044
1692.39	46.9791
1692.65	48.9467
1692.91	46.9625
1693.17	48.9232
1693.43	45.9497
1693.69	45.9339
1693.95	46.9027
1694.2	48.861
1694.46	45.8918
1694.72	45.8788
1694.98	44.8835
1695.24	47.8342
1695.5	50.7885
1695.76	47.8321
1696.01	49.8014
1696.27	47.8305
1696.53	42.9061
1696.79	47.8338
1697.05	50.7862
1697.31	46.8362
1697.57	46.824
1697.82	48.7786
1698.08	49.7471
1698.34	43.8261
1698.6	50.7054
1698.86	50.6935
1699.12	46.7469
1699.38	40.8361
1699.63	42.7992
1699.89	41.8137
1700.15	45.7464
1700.41	46.7274
1700.67	43.7638
1700.92	52.6124
1701.18	53.5902
1701.44	43.7464
1701.7	52.5914
1701.96	46.6786
1702.22	48.6324
1702.47	48.6202
1702.73	48.6071
1702.99	47.6119
1703.25	47.6055
1703.51	43.67
1703.77	44.646
1704.02	49.5505
1704.28	49.5439
1704.54	41.6844
1704.8	48.5645
1705.06	46.5969
1705.32	50.5215
1705.57	44.6193
1705.83	43.6329
1706.09	46.5769
1706.35	49.5133
1706.61	47.5349
1706.86	49.4842
1707.12	45.5415
1707.38	53.3787
1707.64	47.4761
1707.9	47.4599
1708.16	45.4802
1708.41	42.5213
1708.67	46.4248
1708.93	42.4857
1709.19	49.3244
1709.44	47.3513
1709.7	51.2568
1709.96	49.2916
1710.22	55.1607
1710.48	44.3894
1710.73	47.324
1710.99	48.3031
1711.25	47.3272
1711.51	50.2657
1711.77	46.3486
1712.02	52.2251
1712.28	50.2632
1712.54	52.2128
1712.8	47.2992
1713.06	45.3191
1713.31	50.1878
1713.57	48.2088
1713.83	47.2105
1714.09	49.1438
1714.34	54.0161
1714.6	48.1445
1714.86	51.0667
1715.12	44.223
1715.38	49.102
1715.63	49.1065
1715.89	49.1132
1716.15	45.2008
1716.41	47.1474
1716.66	48.1139
1716.92	50.0534
1717.18	50.0358
1717.44	50.0149
1717.69	49.9905
1717.95	48.9874
1718.21	50.9122
1718.47	53.8124
1718.72	46.9732
1718.98	45.9856
1719.24	47.9235
1719.5	48.8925
1719.75	46.9409
1720.01	46.9345
1720.27	52.776
1720.53	48.8796
1720.78	49.8447
1721.04	49.8321
1721.3	51.7615
1721.56	43.9634
1721.81	51.733
1722.07	45.8826
1722.33	47.8123
1722.59	41.9643
1722.84	48.7527
1723.1	47.766
1723.36	49.6949
1723.62	47.7405
1723.87	47.7313
1724.13	44.8138
1724.39	49.6612
1724.64	51.5968
1724.9	48.6725
1725.16	50.5972
1725.42	48.6338
1725.67	53.462
1725.93	48.5914
1726.19	49.5452
1726.45	52.4427
1726.7	50.5045
1726.96	44.6827
1727.22	42.7346
1727.47	50.4645
1727.73	48.5224
1727.99	51.4363
1728.24	48.5232
1728.5	52.3857
1728.76	50.4261
1729.02	52.2878
1729.27	50.2745
1729.53	47.3485
1729.79	50.2673
1730.05	48.3575
1730.3	49.3385
1730.56	47.374
1730.82	49.2883
1731.07	46.3841
1731.33	58.0281
1731.59	51.2631
1731.84	44.495
1732.1	48.3561
1732.36	49.3159
1732.61	47.3748
1732.87	55.0956
1733.13	46.3892
1733.39	43.4783
1733.64	50.2204
1733.9	48.2668
1734.16	53.0671
1734.41	47.2607
1734.67	49.1708
1734.93	45.2961
1735.18	44.3144
1735.44	52.9659
1735.7	49.0957
1735.95	47.1564
1736.21	48.1081
1736.47	50.025
1736.72	51.9411
1736.98	50.0059
1737.24	49.0334
1737.49	50.9466
1737.75	49.0124
1738.01	51.8878
1738.26	52.8367
1738.52	52.822
1738.78	49.9237
1739.03	49.9097
1739.29	54.698
1739.55	51.7972
1739.8	50.8143
1740.06	49.8283
1740.32	53.6408
1740.57	46.9048
1740.83	47.8452
1741.09	47.8299
1741.34	53.5645
1741.6	53.5491
1741.86	47.7882
1742.11	52.5645
1742.37	49.6829
1742.63	50.6337
1742.88	48.7113
1743.14	48.7026
1743.4	50.6102
1743.65	45.8193
1743.91	46.7681
1744.16	49.6256
1744.42	51.5268
1744.68	48.6459
1744.93	52.4647
1745.19	47.6783
1745.45	49.5884
1745.7	50.5412
1745.96	44.7961
1746.22	48.6122
1746.47	50.5112
1746.73	55.2741
1746.98	52.3872
1747.24	50.4606
1747.5	52.353
1747.75	45.653
1748.01	51.3669
1748.27	50.4027
1748.52	49.4433
1748.78	50.3948
1749.03	45.62
1749.29	51.3474
1749.55	51.3495
1749.8	49.4442
1750.06	51.3603
1750.32	47.5467
1750.57	53.2875
1750.83	55.2067
1751.08	44.6927
1751.34	45.6501
1751.6	49.4717
1751.85	46.594
1752.11	48.4884
1752.36	56.1128
1752.62	51.3208
1752.88	52.2612
1753.13	49.3817
1753.39	50.3215
1753.64	47.4455
1753.9	50.2962
1754.15	47.4225
1754.41	46.4547
1754.67	50.2551
1754.92	47.3835
1755.18	52.1396
1755.43	48.3173
1755.69	49.2606
1755.95	52.1074
1756.2	47.3292
1756.46	52.0763
1756.71	49.2022
1756.97	51.0865
1757.23	52.9698
1757.48	47.2431
1757.74	48.1849
1757.99	51.9796
1758.25	51.9792
1758.5	49.1365
1758.76	51.0404
1759.02	45.3286
1759.27	58.6473
1759.53	56.7413
1759.78	51.9824
1760.04	53.8811
1760.3	56.728
1760.55	52.9137
1760.81	47.1967
1761.06	50.9927
1761.32	52.8831
1761.57	54.7708
1761.83	52.8559
1762.08	48.0925
1762.34	51.8875
1762.6	50.9312
1762.85	49.0347
1763.11	47.1348
1763.36	51.8863
1763.62	51.8804
1763.87	57.5834
1764.13	48.0749
1764.38	55.6843
1764.64	55.6921
1764.89	53.806
1765.15	60.4729
1765.4	48.1031
1765.66	50.9597
1765.92	53.8156
1766.17	51.9098
1766.43	54.7625
1766.68	49.9968
1766.94	48.0853
1767.19	56.6454
1767.45	47.122
1767.7	54.729
1767.96	58.5246
1768.21	52.8028
1768.47	54.696
1768.73	45.1741
1768.98	53.7287
1769.24	52.7522
1769.49	47.0173
1769.75	55.5384
1770	56.4653
1770.26	51.7154
1770.51	54.5733
1770.77	55.5333
1771.02	54.5807
1771.28	49.8303
1771.53	57.4431
1771.79	51.7556
1772.04	58.4148
1772.3	55.5616
1772.55	57.4693
1772.81	51.7696
1773.06	55.5797
1773.32	51.7766
1773.57	49.8756
1773.83	56.5398
1774.08	55.5896
1774.34	57.4944
1774.59	47.9737
1774.85	57.4932
1775.1	55.5932
1775.36	55.594
1775.61	57.5052
1775.87	53.7161
1776.12	54.6796
1776.38	50.8698
1776.63	50.8681
1776.89	52.7687
1777.14	53.7116
1777.4	55.6048
1777.65	51.7835
1777.91	47.9596
1778.16	46.9948
1778.42	51.7446
1778.67	52.6839
1778.93	47.9089
1779.18	51.6998
1779.44	56.4394
1779.69	53.5724
1779.95	50.7139
1780.2	50.7248
1780.46	53.5799
1780.71	52.6284
1780.97	53.5813
1781.22	45.9673
1781.47	51.6766
1781.73	52.6273
1781.98	53.5805
1782.24	49.7752
1782.49	51.6845
1782.75	47.8824
1783	52.6502
1783.26	47.8881
1783.51	51.7019
1783.77	46.9392
1784.02	47.895
1784.28	46.9449
1784.53	47.9034
1784.79	50.7736
1785.04	47.9158
1785.29	55.5491
1785.55	48.8667
1785.8	47.9064
1786.06	47.8979
1786.31	53.6124
1786.57	46.9324
1786.82	41.2089
1787.08	46.9367
1787.33	47.8975
1787.58	51.7256
1787.84	49.8316
1788.09	48.9023
1788.35	49.8864
1788.6	48.9577
1788.86	48.9749
1789.11	49.9372
1789.37	48.03
1789.62	49.0025
1789.87	49.9696
1790.13	47.0973
1790.38	52.851
1790.64	47.1024
1790.89	52.8514
1791.15	49.0108
1791.4	48.9961
1791.65	42.2577
1791.91	42.2504
1792.16	45.1156
1792.42	46.0702
1792.67	46.0685
1792.93	48.9408
1793.18	48.9435
1793.43	52.7761
1793.69	44.1516
1793.94	48.9386
1794.2	50.8579
1794.45	43.1905
1794.7	44.1443
1794.96	47.9662
1795.21	50.8512
1795.47	50.8873
1795.72	47.0716
1795.97	47.0803
1796.23	44.2042
1796.48	44.2087
1796.74	50.9363
1796.99	48.061
1797.25	48.0672
1797.5	45.1897
1797.75	47.1157
1798.01	50.0023
1798.26	44.2359
1798.51	50.0054
1798.77	49.0433
1799.02	50.9632
1799.28	42.3031
1799.53	43.2563
1799.78	44.2071
1800.04	47.078
1800.29	48.0268
1800.55	50.8985
1800.8	45.1249
1801.05	47.0384
1801.31	47.9924
1801.56	49.9082
1801.81	51.8256
1802.07	47.9817
1802.32	46.0601
1802.58	48.9431
1802.83	44.1418
1803.08	47.0286
1803.34	44.1507
1803.59	44.1567
1803.84	50.892
1804.1	46.0847
1804.35	50.8923
1804.61	44.1621
1804.86	52.8255
1805.11	48.0205
1805.37	46.1027
1805.62	42.2598
1805.87	47.0813
1806.13	49.9775
1806.38	49.0195
1806.64	47.0966
1806.89	50.9541
1807.14	49.0275
1807.4	50.9532
1807.65	42.2759
1807.9	48.0552
1808.16	48.0522
1808.41	49.9771
1808.66	40.336
1808.92	47.081
1809.17	48.043
1809.42	45.1494
1809.68	46.1113
1809.93	44.1816
1810.18	51.8927
1810.44	48.9984
1810.69	38.3895
1810.94	48.0252
1811.2	46.091
1811.45	38.3741
1811.7	46.082
1811.96	39.3294
1812.21	48.0027
1812.46	46.0732
1812.72	47.0389
1812.97	50.8994
1813.22	45.1176
1813.48	46.0853
1813.73	47.0492
1813.98	42.2278
1814.24	47.0592
1814.49	48.999
1814.74	43.2153
1815	49.0219
1815.25	47.0955
1815.5	47.0994
1815.76	41.3012
1816.01	44.1992
1816.26	46.1307
1816.52	46.1295
1816.77	48.0623
1817.02	50.9624
1817.27	46.1224
1817.53	43.2124
1817.78	48.0189
1818.03	49.9305
1818.29	55.7242
1818.54	44.1388
1818.79	46.0797
1819.05	49.9491
1819.3	48.0101
1819.55	45.1107
1819.8	48.0122
1820.06	48.0143
1820.31	44.148
1820.56	48.0172
1820.82	47.0531
1821.07	45.1204
1821.32	48.99
1821.58	48.9931
1821.83	44.1597
1822.08	49.0009
1822.33	45.1318
1822.59	43.1966
1822.84	44.1639
1823.09	42.2267
1823.34	49.9698
1823.6	41.2526
1823.85	50.9252
1824.1	46.077
1824.36	46.0721
1824.61	36.3926
1824.86	44.1366
1825.11	47.0412
1825.37	46.074
1825.62	48.9804
1825.87	47.0436
1826.12	44.1355
1826.38	45.1001
1826.63	45.0973
1826.88	49.9374
1827.14	46.0609
1827.39	50.9032
1827.64	47.0297
1827.89	45.0937
1828.15	46.0635
1828.4	44.1223
1828.65	47.9923
1828.9	48.9527
1829.16	49.9107
1829.41	43.1224
1829.66	46.0227
1829.91	45.0487
1830.17	46.0108
1830.42	49.875
1830.67	52.7703
1830.92	43.0799
1831.18	54.6939
1831.43	40.1728
1831.68	45.0165
1831.93	45.0191
1832.19	48.8958
1832.44	45.9921
1832.69	49.8707
1832.94	44.0625
1833.2	46.0037
1833.45	50.8474
1833.7	52.7835
1833.95	45.9991
1834.2	46.9671
1834.46	44.0581
1834.71	46.9507
1834.96	46.9221
1835.21	45.9268
1835.47	45.9017
1835.72	50.722
1835.97	44.9007
1836.22	48.7655
1836.48	43.9152
1836.73	47.9754
1836.98	46.9947
1837.23	44.0185
1837.48	51.7466
1837.74	44.9269
1837.99	45.8628
1838.24	51.6131
1838.49	48.6788
1838.74	43.8384
1839	52.6188
1839.25	44.906
1839.5	45.8881
1839.75	43.9531
1840	48.801
1840.26	42.0241
1840.51	41.9814
1840.76	47.7548
1841.01	45.788
1841.27	43.8275
1841.52	41.8704
1841.77	41.8478
1842.02	48.5851
1842.27	49.5286
1842.53	48.5432
1842.78	39.8432
1843.03	46.5989
1843.28	50.4486
1843.53	46.5922
1843.78	43.6939
1844.04	41.761
1844.29	45.6109
1844.54	42.7133
1844.79	36.9271
1845.04	46.5709
1845.3	42.7014
1845.55	47.5221
1845.8	38.8377
1846.05	43.6752
1846.3	45.6217
1846.55	47.5678
1846.81	48.5645
1847.06	44.6697
1847.31	43.6366
1847.56	47.41
1847.81	48.3531
1848.07	42.5747
1848.32	44.519
1848.57	47.427
1848.82	44.5095
1849.07	39.6797
1849.32	49.3056
1849.57	45.4415
1849.83	47.3494
1850.08	48.2927
1850.33	44.4274
1850.58	49.214
1850.83	45.351
1851.09	41.4917
1851.34	46.2824
1851.59	45.3093
1851.84	40.497
1852.09	43.3699
1852.34	42.4039
1852.59	46.2407
1852.84	47.1973
1853.1	45.273
1853.35	48.1486
1853.6	46.2215
1853.85	40.4524
1854.1	42.3603
1854.35	48.1022
1854.6	45.2048
1854.86	47.106
1855.11	48.0537
1855.36	45.1664
1855.61	42.2741
1855.86	43.2144
1856.11	43.2025
1856.36	45.1105
1856.61	38.3997
1856.87	45.1007
1857.12	44.1389
1857.37	45.091
1857.62	38.3794
1857.87	49.862
1858.12	46.0222
1858.37	42.182
1858.63	47.9123
1858.88	43.113
1859.13	45.0125
1859.38	44.0411
1859.63	42.1136
1859.88	44.0144
1860.13	37.3175
1860.38	43.0501
1860.63	43.0491
1860.89	40.1848
1861.14	47.8398
1861.39	45.9301
1861.64	45.9352
1861.89	43.0682
1862.14	45.9378
1862.39	46.8886
1862.64	47.8345
1862.9	44.9506
1863.15	40.1543
1863.4	48.746
1863.65	42.9954
1863.9	43.938
1864.15	42.97
1864.4	42.9583
1864.65	43.9021
1864.9	40.0703
1865.15	45.787
1865.4	47.6806
1865.66	40.028
1865.91	41.9186
1866.16	47.6202
1866.41	44.7366
1866.66	46.6189
1866.91	44.6905
1867.16	40.8597
1867.41	41.7905
1867.66	48.4295
1867.91	43.6564
1868.16	48.399
1868.41	46.4883
1868.67	46.4813
1868.92	48.3797
1869.17	46.4772
1869.42	38.8674
1869.67	45.5162
1869.92	41.7072
1870.17	40.7505
1870.42	44.5466
1870.67	43.5902
1870.92	43.5847
1871.17	46.431
1871.42	47.377
1871.67	41.6679
1871.92	44.51
1872.17	48.2987
1872.42	48.2891
1872.68	43.5312
1872.93	36.8716
1873.18	46.355
1873.43	46.3448
1873.68	46.3389
1873.93	39.6868
1874.18	43.4738
1874.43	47.2574
1874.68	41.5506
1874.93	40.5878
1875.18	44.3664
1875.43	42.4543
1875.68	44.3338
1875.93	49.0508
1876.18	45.232
1876.43	44.2647
1876.68	46.1396
1876.93	41.3946
1877.18	47.0599
1877.43	40.4145
1877.68	48.889
1877.93	45.0534
1878.18	46.0317
1878.44	42.4072
1878.69	42.343
1878.93	42.3198
1879.19	41.3645
1879.44	45.1889
1879.69	44.2591
1879.94	42.3473
1880.19	44.2241
1880.44	43.2713
1880.69	45.1581
1880.94	40.43
1881.19	42.3105
1881.44	47.9848
1881.69	42.2829
1881.94	37.5285
1882.19	41.2869
1882.44	41.2605
1882.69	45.0095
1882.94	43.0864
1883.19	46.8436
1883.44	40.2061
1883.69	49.9658
1883.94	43.1271
1884.19	43.008
1884.44	42.0653
1884.69	48.6884
1884.94	45.8306
1885.19	46.7874
1885.44	43.035
1885.69	41.1506
1885.94	46.8141
1886.19	48.7221
1886.44	42.1199
1886.69	38.345
1886.94	44.948
1887.19	44.925
1887.44	49.6298
1887.69	42.0658
1887.94	42.0515
1888.19	48.6383
1888.44	40.1351
1888.69	47.6548
1888.94	45.7498
1889.19	38.1966
1889.44	51.3621
1889.69	40.9944
1889.94	44.7546
1890.19	42.8661
1890.44	46.6321
1890.69	43.8145
1890.94	40.0539
1891.19	47.5882
1891.43	45.699
1891.68	44.7492
1891.94	49.4535
1892.18	40.0294
1892.43	49.4401
1892.68	43.7847
1892.93	37.1841
1893.18	44.7028
1893.43	46.5646
1893.68	45.5938
1893.93	39.9273
1894.18	40.8585
1894.43	48.3818
1894.68	45.541
1894.93	43.6499
1895.18	47.4005
1895.43	48.3376
1895.68	46.4586
1895.93	47.3995
1896.18	42.7027
1896.43	42.7048
1896.68	47.4085
1896.93	42.7132
1897.18	47.419
1897.42	46.4812
1897.68	46.4821
1897.92	42.7179
1898.17	45.536
1898.42	49.2919
1898.67	44.5798
1898.92	48.3295
1899.17	47.3744
1899.42	47.3582
1899.67	47.3453
1899.92	43.578
1900.17	42.629
1900.42	43.5591
1900.67	49.1899
1900.92	46.3698
1901.16	44.492
1901.41	41.677
1901.66	44.5019
1901.91	41.6871
1902.16	47.3335
1902.41	48.2818
1902.66	39.8229
1902.91	41.7011
1903.16	44.5155
1903.41	44.5071
1903.66	45.4383
1903.91	44.4902
1904.16	44.4835
1904.41	41.6571
1904.65	46.353
1904.9	46.3476
1905.15	44.4611
1905.4	49.156
1905.65	46.3314
1905.9	50.085
1906.15	49.1271
1906.4	39.7118
1906.65	44.3989
1906.9	49.0858
1907.14	42.5033
1907.39	45.3135
1907.64	49.0666
1907.89	43.4313
1908.14	50.0081
1908.39	45.3171
1908.64	47.1963
1908.89	50.0141
1909.14	49.0762
1909.39	42.5019
1909.63	46.2672
1909.88	45.3354
1910.13	46.2863
1910.38	45.3576
1910.63	44.4291
1910.88	44.4396
1911.13	41.6213
1911.38	47.2755
1911.62	47.2767
1911.87	44.4491
1912.12	47.271
1912.37	44.4382
1912.62	42.5477
1912.87	47.2523
1913.12	50.0741
1913.37	44.4195
1913.61	50.0688
1913.86	42.5367
1914.11	45.3727
1914.36	42.556
1914.61	43.5055
1914.86	43.5112
1915.11	46.3471
1915.36	47.2963
1915.6	40.6946
1915.85	44.468
1916.1	40.6888
1916.35	42.5687
1916.6	50.1107
1916.85	44.4395
1917.1	48.1987
1917.34	45.3573
1917.59	45.3468
1917.84	47.2239
1918.09	50.9881
1918.34	42.5011
1918.59	45.3323
1918.83	43.4528
1919.08	46.2914
1919.33	49.1331
1919.58	40.6502
1919.83	45.3858
1920.08	49.1777
1920.33	50.1286
1920.57	41.623
1920.82	47.2832
1921.07	51.0625
1921.32	46.3467
1921.57	43.5195
1921.81	47.305
1922.06	47.3082
1922.31	43.5259
1922.56	49.1969
1922.81	42.5694
1923.06	45.3956
1923.31	43.4943
1923.55	48.213
1923.8	37.8075
1924.05	47.2519
1924.3	40.626
1924.55	48.1738
1924.79	45.3298
1925.04	44.3795
1925.29	47.2121
1925.54	44.3801
1925.79	44.3862
1926.04	44.3966
1926.28	45.3514
1926.53	49.1436
1926.78	43.4769
1927.03	43.4875
1927.28	45.3866
1927.52	50.1243
1927.77	49.181
1928.02	37.8186
1928.27	41.6084
1928.52	46.346
1928.76	49.188
1929.01	42.5584
1929.26	46.3511
1929.51	44.4595
1929.76	39.726
1930	42.5802
1930.25	47.3307
1930.5	46.3932
1930.75	44.503
1931	43.5624
1931.24	37.8657
1931.49	48.3072
1931.74	42.6034
1931.99	44.4925
1932.24	44.4826
1932.48	50.1666
1932.73	45.4114
1932.98	43.5029
1933.23	45.3946
1933.47	48.2304
1933.72	43.4867
1933.97	45.3939
1934.22	50.1602
1934.46	50.1905
1934.71	36.9208
1934.96	38.8535
1935.21	36.9752
1935.46	46.5252
1935.7	48.4522
1935.95	42.7427
1936.2	49.3818
1936.45	43.6546
1936.69	46.5071
1936.94	47.4502
1937.19	44.5783
1937.44	49.3257
1937.68	39.7887
1937.93	40.7284
1938.18	44.5246
1938.43	49.2701
1938.68	42.604
1938.92	46.424
1939.17	42.6174
1939.42	43.5729
1939.67	43.5769
1939.91	39.7687
1940.16	41.6774
1940.41	43.5812
1940.66	47.4008
1940.9	47.4092
1941.15	40.7607
1941.4	46.4992
1941.64	43.6326
1941.89	46.4856
1942.14	44.5571
1942.39	36.8995
1942.63	47.3997
1942.88	42.6735
1943.13	48.4094
1943.38	46.4981
1943.62	48.3839
1943.87	46.4495
1944.12	43.5679
1944.37	45.5018
1944.61	47.4176
1944.86	48.379
1945.11	38.8371
1945.35	49.351
1945.6	38.8499
1945.85	44.5905
1946.1	47.4649
1946.34	41.7339
1946.59	41.7369
1946.84	46.52
1947.09	44.6064
1947.33	47.4711
1947.58	51.2886
1947.83	43.6295
1948.07	43.6248
1948.32	43.6207
1948.57	45.5291
1948.82	44.5655
1949.06	40.7394
1949.31	43.6125
1949.56	52.2273
1949.8	41.7106
1950.05	42.675
1950.3	46.5123
1950.54	51.3175
1950.79	46.5477
1951.04	41.769
1951.29	45.6178
1951.53	43.7153
1951.78	44.6887
1952.03	36.0599
1952.27	43.7448
1952.52	44.7084
1952.77	41.831
1953.01	45.6673
1953.26	39.9089
1953.51	44.72
1953.76	47.5851
1954	36.0402
1954.25	46.5676
1954.49	43.6596
1954.74	44.5904
1954.99	45.5235
1955.24	48.387
1955.48	39.7601
1955.73	45.5098
1955.98	43.6024
1956.22	46.4948
1956.47	44.6066
1956.72	41.737
1956.96	46.5477
1957.21	44.6322
1957.46	44.6396
1957.7	49.449
1957.95	43.6902
1958.2	44.6541
1958.44	42.7332
1958.69	46.5773
1958.94	44.6539
1959.18	52.3354
1959.43	43.6728
1959.68	38.8603
1959.92	45.5809
1960.17	44.6092
1960.42	47.4797
1960.66	43.6271
1960.91	44.5759
1961.16	45.5235
1961.4	44.5515
1961.65	45.5005
1961.9	43.5727
1962.14	45.4899
1962.39	43.5696
1962.63	44.5275
1962.88	46.4455
1963.13	47.4039
1963.37	45.4824
1963.62	48.3603
1963.87	39.7186
1964.11	45.4773
1964.36	45.4796
1964.61	41.6401
1964.85	40.6754
1965.1	40.6684
1965.35	47.3871
1965.59	43.5409
1965.84	44.4984
1966.08	51.2216
1966.33	44.5049
1966.58	47.3939
1966.82	46.4404
1967.07	47.4055
1967.32	48.3695
1967.56	47.4031
1967.81	45.4775
1968.05	52.2071
1968.3	46.4377
1968.55	55.0887
1968.79	45.4703
1969.04	41.6171
1969.29	46.4113
1969.53	50.2392
1969.78	45.416
1970.02	41.5561
1970.27	51.1415
1970.52	42.4882
1970.76	50.1558
1971.01	50.143
1971.25	51.0909
1971.5	52.0404
1971.75	53.9499
1971.99	47.228
1972.24	48.1872
1972.48	47.2291
1972.73	51.0655
1972.98	46.2646
1973.22	51.053
1973.47	46.245
1973.71	51.0251
1973.96	51.9703
1974.21	48.1251
1974.45	42.366
1974.7	49.07
1974.94	51.9421
1975.19	55.7746
1975.44	51.9414
1975.68	49.0685
1975.93	50.9906
1976.17	46.1989
1976.42	49.0777
1976.66	51.9551
1976.91	50.9942
1977.16	48.1131
1977.4	56.741
1977.65	50.9784
1977.89	55.7641
1978.14	49.998
1978.39	49.027
1978.63	49.0163
1978.88	49.0071
1979.12	51.8757
1979.37	49.955
1979.61	46.1189
1979.86	48.0326
1980.1	47.0725
1980.35	51.8626
1980.6	46.1027
1980.84	53.757
1981.09	54.7021
1981.33	51.8193
1981.58	50.85
1981.82	53.7141
1982.07	55.6222
1982.31	52.7432
1982.56	55.6106
1982.81	49.8523
1983.05	53.6696
1983.3	55.5672
1983.54	51.7188
1983.79	61.2705
1984.03	50.7378
1984.28	52.6434
1984.52	53.5908
1984.77	52.625
1985.02	53.573
1985.26	60.2528
1985.51	62.1447
1985.75	55.4426
1986	49.7045
1986.24	57.3509
1986.49	54.4876
1986.73	54.4935
1986.98	53.5385
1987.22	55.4451
1987.47	54.4895
1987.71	52.5639
1987.96	56.3675
1988.21	51.5667
1988.45	53.453
1988.7	53.4247
1988.94	58.128
1989.19	61.8102
1989.43	49.6306
1989.68	53.4098
1989.92	58.765
1990.17	58.8965
1990.41	56.8316
1990.66	53.8956
1990.9	60.6363
1991.15	53.565
1991.39	58.1165
1991.64	53.0912
1991.88	58.7462
1992.13	57.913
1992.37	59.5481
1992.62	59.1553
1992.86	59.147
1993.11	57.071
1993.35	54.7493
1993.6	55.7128
1993.84	56.5313
1994.09	59.4499
1994.33	60.4205
1994.58	56.7376
1994.82	54.7768
1995.07	61.3457
1995.31	58.9975
1995.56	58.4669
1995.8	56.3027
1996.05	59.0621
1996.29	61.7142
1996.54	58.1374
1996.78	63.1815
1997.03	60.7414
1997.27	60.6924
1997.52	61.1865
1997.76	59.4673
1998.01	63.3897
1998.25	59.1433
1998.5	60.3556
1998.74	57.6969
1998.99	61.2569
1999.23	64.1113
1999.48	59.4607
1999.72	64.6093
1999.97	62.0962
2000.21	60.0552
2000.46	61.859
2000.7	64.284
2000.95	59.2275
2001.19	61.8533
2001.43	62.6842
2001.68	64.0634
2001.92	61.2214
2002.17	60.5998
2002.41	65.4085
2002.66	61.8179
2002.9	64.1201
2003.15	61.489
2003.39	60.6898
2003.64	62.2959
2003.88	61.9798
2004.13	63.1965
2004.37	62.8335
2004.61	62.7446
2004.86	62.8427
2005.1	66.7592
2005.35	61.2863
2005.59	62.3353
2005.84	64.3129
2006.08	62.9984
2006.33	61.84
2006.57	64.8781
2006.81	63.5757
2007.06	62.4274
2007.3	64.2106
2007.55	61.5197
2007.79	60.9788
2008.04	63.2129
2008.28	55.8027
2008.53	63.2142
2008.77	66.2912
2009.01	63.2138
2009.26	60.0617
2009.5	57.9569
2009.75	63.8178
2009.99	58.8298
2010.24	65.3765
2010.48	58.4571
2010.73	63.5844
2010.97	61.2495
2011.21	64.3874
2011.46	62.452
2011.7	61.225
2011.95	64.4658
2012.19	60.9321
2012.43	63.7161
2012.68	64.6513
2012.92	59.9376
2013.17	65.5723
2013.42	66.4896
2013.67	67.3963
2013.91	64.5551
2014.16	57.9511
2014.41	61.6828
2014.66	62.5887
2014.9	59.743
2015.15	68.1802
2015.4	67.2434
2015.64	63.4967
2015.89	56.9347
2016.14	68.207
2016.39	56.9329
2016.63	61.641
2016.88	61.6844
2017.13	66.3914
2017.37	61.6871
2017.62	63.556
2017.87	54.1454
2018.11	63.5198
2018.36	63.4945
2018.61	63.4674
2018.86	64.3814
2019.1	58.7306
2019.35	60.5811
2019.6	62.4322
2019.84	59.6087
2020.09	63.3459
2020.34	59.5934
2020.58	61.4641
2020.83	56.7771
2021.08	53.0275
2021.33	58.6487
2021.57	59.5877
2021.82	55.8402
2022.07	63.3292
2022.31	54.8935
2022.56	61.4394
2022.81	61.4266
2023.05	52.9868
2023.3	61.3924
2023.55	53.8941
2023.8	61.3637
2024.04	59.4791
2024.29	54.7906
2024.54	57.5831
2024.78	55.6945
2025.03	57.5426
2025.27	52.8537
2025.52	60.3039
2025.77	58.4187
2026.02	57.4689
2026.26	56.5153
2026.51	47.1924
2026.76	55.6058
2027	55.6391
2027.25	57.5482
2027.5	55.725
2027.74	52.9457
2027.99	52.0019
2028.23	55.7084
2028.48	51.9204
2028.73	55.5071
2028.98	51.9144
2029.22	51.1615
2029.47	54.8028
2029.72	63.2802
2029.96	56.6263
2030.21	51.8954
2030.45	55.5674
2030.7	54.6305
2030.95	49.9259
2031.19	54.6231
2031.44	55.5868
2031.69	53.7112
2031.93	54.6434
2032.18	58.3761
2032.43	57.4581
2032.67	51.8734
2032.92	52.8248
2033.17	54.7094
2033.41	53.7873
2033.66	50.9926
2033.91	58.4867
2034.15	50.0768
2034.4	50.0501
2034.64	54.6862
2034.89	51.831
2035.14	53.6823
2035.38	52.7701
2035.63	59.3218
2035.87	51.8805
2036.12	48.1768
2036.37	56.6176
2036.61	51.9375
2036.86	51.9099
2037.11	50.9753
2037.35	55.6613
2037.6	56.5946
2037.84	53.7856
2038.09	56.584
2038.34	53.7715
2038.58	53.7627
2038.83	55.6222
2039.08	47.2029
2039.32	49.0627
2039.57	51.8553
2039.81	57.4488
2040.06	47.1644
2040.31	58.3512
2040.55	48.0693
2040.8	49.9217
2041.04	49.9087
2041.29	46.1673
2041.54	54.5492
2041.78	46.1532
2042.03	55.4712
2042.27	48.938
2042.52	47.999
2042.77	50.7832
2043.01	52.6414
2043.26	47.9814
2043.5	51.7115
2043.75	47.9957
2044	49.8781
2044.24	48.9643
2044.49	51.7693
2044.73	53.6314
2044.98	50.8195
2045.23	51.728
2045.47	48.8874
2045.72	46.1469
2045.96	51.7568
2046.21	49.9593
2046.45	50.9735
2046.7	50.9297
2046.95	49.0122
2047.19	50.8424
2047.44	49.9098
2047.68	53.6266
2047.93	51.7186
2048.17	44.2491
2048.42	54.5042
2048.67	47.0473
2048.91	48.9138
2049.16	45.1878
2049.4	43.3326
2049.65	46.139
2049.89	45.2175
2050.14	49.9
2050.39	49.912
2050.63	50.8587
2050.88	48.997
2051.12	46.1954
2051.37	48.0597
2051.61	48.0489
2051.86	49.9014
2052.11	45.231
2052.35	48.9657
2052.6	51.7735
2052.84	53.6424
2053.09	52.7134
2053.33	45.2469
2053.58	52.7297
2053.82	48.0685
2054.07	45.2843
2054.31	48.0973
2054.56	49.0378
2054.8	45.2963
2055.05	50.9067
2055.3	45.2905
2055.54	43.4155
2055.79	53.6903
2056.03	45.2681
2056.28	46.1997
2056.52	46.1942
2056.77	49.9271
2057.01	46.1839
2057.26	48.0518
2057.5	43.379
2057.75	48.0553
2058	47.125
2058.24	49.9361
2058.49	44.3308
2058.73	49.0178
2058.98	43.4132
2059.22	44.3567
2059.47	45.2983
2059.71	45.2998
2059.96	49.0458
2060.2	47.1732
2060.45	41.5497
2060.69	49.0299
2060.94	48.0877
2061.18	49.964
2061.43	48.0977
2061.67	44.3565
2061.92	48.1022
2062.16	46.2295
2062.41	48.1025
2062.65	42.4863
2062.9	45.299
2063.14	49.0506
2063.39	45.3109
2063.63	44.3801
2063.88	39.6992
2064.12	52.8233
2064.37	49.0773
2064.61	39.7062
2064.86	47.2095
2065.1	48.1527
2065.35	43.4732
2065.59	45.3612
2065.84	44.4339
2066.08	44.4433
2066.33	46.3284
2066.57	41.6385
2066.82	49.1513
2067.06	45.3987
2067.31	46.3418
2067.55	47.2839
2067.8	40.7126
2068.04	43.5368
2068.29	45.4211
2068.53	45.4246
2068.78	45.4261
2069.02	45.4316
2069.27	39.7903
2069.51	42.6034
2069.76	45.4093
2070	46.3281
2070.25	44.4409
2070.49	40.6869
2070.73	46.34
2070.98	45.4216
2071.22	44.5028
2071.47	48.2607
2071.71	43.544
2071.96	45.4743
2072.2	43.6077
2072.45	42.6617
2072.69	43.5991
2072.94	46.4213
2073.18	44.5331
2073.43	45.4733
2073.67	44.5282
2073.92	44.5289
2074.16	49.237
2074.4	44.5305
2074.65	47.3594
2074.89	35.1221
2075.14	46.4359
2075.38	43.623
2075.63	43.6407
2075.87	39.8883
2076.12	41.7887
2076.36	44.6269
2076.6	46.5148
2076.85	41.7954
2077.09	42.7337
2077.34	43.6676
2077.58	39.8825
2077.83	43.6357
2078.07	45.5156
2078.31	44.5767
2078.56	45.5282
2078.8	43.6442
2079.05	42.7033
2079.29	38.9335
2079.54	47.4361
2079.78	39.9021
2080.03	42.7423
2080.27	45.5825
2080.51	41.809
2080.76	47.4831
2081	44.6475
2081.25	39.9172
2081.49	45.5823
2081.74	49.3591
2081.98	40.854
2082.22	41.7961
2082.47	45.5775
2082.71	47.4695
2082.96	43.691
2083.2	47.4707
2083.45	44.6337
2083.69	42.7408
2083.93	45.5727
2084.18	37.0671
2084.42	40.8461
2084.67	44.6242
2084.91	44.6237
2085.15	42.7339
2085.4	43.678
2085.64	42.7316
2085.89	48.4007
2086.13	44.6225
2086.37	44.6325
2086.62	41.8083
2086.86	40.8707
2087.11	43.7114
2087.35	43.7154
2087.59	43.7213
2087.84	40.8852
2088.08	48.4552
2088.32	38.9909
2088.57	41.8299
2088.81	38.9911
2089.06	41.8315
2089.3	38.9925
2089.54	38.9972
2089.79	39.0024
2090.03	43.7471
2090.28	39.9609
2090.52	41.8563
2090.76	43.7528
2091.01	45.6505
2091.25	44.7066
2091.5	45.658
2091.74	42.8182
2091.98	41.8797
2092.23	42.8388
2092.47	45.697
2092.72	44.7613
2092.96	41.9274
2093.2	40.9877
2093.45	44.7957
2093.69	43.8557
2093.93	44.8153
2094.18	41.9717
2094.42	45.7809
2094.66	40.0779
2094.91	42.9288
2095.15	41.9749
2095.39	44.8226
2095.64	43.8635
2095.88	45.755
2096.13	40.9965
2096.37	39.0905
2096.61	39.0865
2096.86	40.0338
2097.1	44.7806
2097.34	42.8738
2097.59	39.0658
2097.83	42.8546
2098.07	40.9512
2098.32	39.9985
2098.56	39.0461
2098.8	39.9884
2099.05	37.1399
2099.29	44.7305
2099.53	48.5229
2099.78	43.7745
2100.02	41.8745
2100.27	41.8736
2100.51	40.9246
2100.75	42.8238
2101	40.9283
2101.24	39.038
2101.48	45.6916
2101.73	39.9975
2101.97	43.798
2102.21	41.8971
2102.45	39.9953
2102.7	44.7433
2102.94	47.5888
2103.18	44.7312
2103.43	41.8727
2103.67	44.7148
2103.92	44.7123
2104.16	43.7594
2104.4	44.7082
2104.64	45.66
2104.89	43.7667
2105.13	44.7216
2105.37	42.8269
2105.62	40.9332
2105.86	40.941
2106.1	41.8977
2106.35	45.7029
2106.59	42.8545
2106.83	40.9542
2107.08	42.8561
2107.32	44.7603
2107.56	41.9081
2107.8	40.9516
2108.05	41.8932
2108.29	42.8317
2108.53	39.0189
2108.78	42.8063
2109.02	45.6448
2109.26	42.7915
2109.51	40.893
2109.75	45.6508
2109.99	41.8588
2110.23	46.6079
2110.48	40.9069
2110.72	41.8556
2110.96	42.8042
2111.21	43.7531
2111.45	39.9515
2111.69	42.7973
2111.93	42.7903
2112.18	36.1369
2112.42	42.781
2112.66	40.8802
2112.91	45.6316
2113.15	42.7855
2113.39	41.8393
2113.63	42.7983
2113.88	41.8553
2114.12	46.6105
2114.36	39.9534
2114.61	41.8494
2114.85	46.599
2115.09	37.096
2115.33	40.8973
2115.58	38.0428
2115.82	39.9389
2116.06	44.6856
2116.31	42.7804
2116.55	42.7707
2116.79	44.6609
2117.03	43.7059
2117.28	40.8536
2117.52	42.7498
2117.76	36.1029
2118	43.6943
2118.25	40.8381
2118.49	42.7287
2118.73	38.9205
2118.97	41.7541
2119.22	37.9496
2119.46	40.7853
2119.7	40.7756
2119.94	39.8183
2120.19	44.5484
2120.43	40.7505
2120.67	42.6422
2120.91	36.0092
2121.16	38.8569
2121.4	36.9636
2121.64	39.8145
2121.88	37.9262
2122.13	41.7271
2122.37	37.9396
2122.61	43.6385
2122.85	38.8987
2123.1	40.8008
2123.34	42.7027
2123.58	42.705
2123.82	41.756
2124.07	39.8528
2124.31	44.5933
2124.55	41.7374
2124.79	35.0839
2125.03	40.7597
2125.28	40.7393
2125.52	42.6155
2125.76	41.6527
2126	44.4797
2126.25	42.5724
2126.49	39.721
2126.73	41.6039
2126.97	39.702
2127.21	41.584
2127.46	44.411
2127.7	41.5693
2127.94	42.5114
2128.18	42.5076
2128.43	39.6659
2128.67	39.6622
2128.91	42.4968
2129.15	38.7147
2129.39	41.5476
2129.64	35.8721
2129.88	39.6488
2130.12	38.7007
2130.36	42.4776
2130.6	42.4738
2130.85	40.5796
2131.09	39.6296
2131.33	39.6236
2131.57	45.2838
2131.81	44.3312
2132.06	40.5467
2132.3	45.2624
2132.54	38.6476
2132.78	38.6389
2133.02	36.7432
2133.27	42.4002
2133.51	44.2855
2133.75	41.4551
2133.99	38.6243
2134.23	43.3419
2134.48	41.4551
2134.72	42.3988
2134.96	39.5652
2135.2	42.3939
2135.44	40.5041
2135.68	41.4444
2135.93	37.6648
2136.17	45.2044
2136.41	41.4171
2136.65	40.4608
2136.89	36.6829
2137.14	39.5114
2137.38	40.4545
2137.62	43.2824
2137.86	40.457
2138.1	44.2367
2138.34	38.5739
2138.59	41.3901
2138.83	39.4951
2139.07	38.5582
2139.31	41.3982
2139.55	44.2363
2139.79	45.1561
2140.03	43.2531
2140.28	43.2444
2140.52	44.1788
2140.76	40.4039
2141	39.4564
2141.24	39.4521
2141.49	37.5642
2141.73	38.5052
2141.97	44.1458
2142.21	44.1348
2142.45	42.2471
2142.69	36.598
2142.93	36.6037
2143.18	40.3746
2143.42	35.6935
2143.66	38.5046
2143.9	39.3486
2144.14	43.1057
2144.38	41.2327
2144.62	40.3054
2144.87	39.3772
2145.11	36.5615
2145.35	41.2404
2145.59	40.3023
2145.83	44.0639
2146.07	41.2395
2146.31	42.175
2146.55	39.35
2146.8	40.2855
2147.04	40.281
2147.28	43.0953
2147.52	44.0277
2147.76	45.8997
2148	44.0139
2148.24	40.2507
2148.48	44.941
2148.73	40.2388
2148.97	42.1104
2149.21	42.1028
2149.45	43.9703
2149.69	43.0203
2149.93	42.0633
2150.17	36.4254
2150.42	35.4767
2150.66	41.0928
2150.9	38.2755
2151.14	46.709
2151.38	41.0874
2151.62	38.2803
2151.86	38.2828
2152.1	43.914
2152.34	41.1022
2152.58	40.1687
2152.83	40.1615
2153.07	43.9054
2153.31	42.0211
2153.55	35.4513
2153.79	39.1962
2154.03	41.0658
2154.27	37.3095
2154.51	43.857
2154.75	40.0949
2154.99	41.9491
2155.24	36.317
2155.48	41.9115
2155.72	43.767
2155.96	38.1445
2156.2	43.7405
2156.44	39.9938
2156.68	41.8568
2156.92	34.3804
2157.16	40.9172
2157.4	40.916
2157.64	40.9177
2157.89	38.1189
2158.13	43.7317
2158.37	42.8027
2158.61	39.999
2158.85	42.8016
2159.09	35.321
2159.33	39.055
2159.57	40.9179
2159.81	39.9757
2160.05	36.2299
2160.29	41.8233
2160.53	39.0106
2160.77	39.9343
2161.01	42.7252
2161.25	42.7192
2161.5	36.1837
2161.74	40.8443
2161.98	41.7721
2162.22	45.501
2162.46	44.5666
2162.7	38.9679
2162.94	40.8318
2163.18	39.8941
2163.42	38.9549
2163.66	45.4776
2163.9	41.7417
2164.14	38.0062
2164.38	37.0682
2164.62	43.5837
2164.86	40.7756
2165.11	43.5628
2165.35	38.9046
2165.59	37.0434
2165.83	38.9063
2166.07	42.633
2166.31	44.4959
2166.55	38.8989
2166.79	41.6884
2167.03	39.8179
2167.27	40.7401
2167.51	39.8016
2167.75	40.7222
2167.99	42.5703
2168.23	37.8974
2168.47	40.669
2168.71	43.4505
2168.95	39.7295
2169.19	37.871
2169.43	42.5239
2169.67	37.881
2169.91	42.5417
2170.15	42.5549
2170.39	38.8458
2170.63	42.578
2170.87	39.7865
2171.11	37.92
2171.35	36.0493
2171.59	38.8377
2171.83	37.8904
2172.07	41.5827
2172.31	43.4254
2172.56	41.5572
2172.79	42.478
2173.04	37.8254
2173.28	40.6103
2173.51	43.3957
2173.76	37.8193
2174	35.0333
2174.24	35.9657
2174.48	42.4731
2174.72	45.2619
2174.96	36.8965
2175.2	45.2596
2175.44	35.0342
2175.68	41.536
2175.92	37.8149
2176.16	38.7416
2176.4	45.2427
2176.64	38.7338
2176.88	37.7976
2177.12	43.3674
2177.36	43.3662
2177.6	35.0055
2177.84	41.5076
2178.08	38.7186
2178.32	38.7187
2178.55	42.4294
2178.8	42.4168
2179.03	39.6218
2179.28	36.8341
2179.52	39.6199
2179.75	45.1902
2180	44.2608
2180.23	36.8313
2180.47	41.4723
2180.71	38.6843
2180.95	41.4659
2181.19	34.0351
2181.43	40.5312
2181.67	42.384
2181.91	39.5932
2182.15	37.7313
2182.39	35.872
2182.63	45.1451
2182.87	39.5727
2183.11	40.4955
2183.35	38.6313
2183.59	38.6214
2183.83	39.5361
2184.07	40.4534
2184.31	38.5924
2184.55	40.4387
2184.79	43.2152
2185.03	37.6559
2185.27	38.5849
2185.51	41.3667
2185.75	40.4418
2185.99	44.1532
2186.23	40.4509
2186.47	42.3114
2186.7	36.7528
2186.95	37.6895
2187.18	39.5554
2187.42	40.4939
2187.66	40.5042
2187.9	34.0103
2188.14	42.3702
2188.38	43.2932
2188.62	41.4274
2188.86	33.9912
2189.1	35.8391
2189.34	41.3971
2189.58	39.5292
2189.82	36.7329
2190.06	45.0659
2190.3	42.2777
2190.54	41.3477
2190.78	39.4933
2191.01	38.5683
2191.25	42.2789
2191.49	43.2048
2191.73	41.3516
2191.97	35.7899
2192.21	38.574
2192.45	46.9234
2192.69	37.6504
2192.93	37.6525
2193.17	41.3686
2193.41	41.3745
2193.65	40.4518
2193.89	36.7462
2194.13	39.5466
2194.36	40.4934
2194.6	37.7166
2194.84	40.511
2195.08	42.3668
2195.32	38.6426
2195.56	39.5669
2195.8	40.4888
2196.04	38.6208
2196.28	40.4664
2196.52	43.2368
2196.76	37.6526
2197	40.4261
2197.23	42.2728
2197.47	39.4816
2197.71	36.6921
2197.95	34.836
2198.19	36.6908
2198.43	37.6211
2198.67	36.7008
2198.91	41.3493
2199.15	39.5034
2199.38	42.3018
2199.62	41.3838
2199.86	40.4668
2200.1	33.9713
2200.34	45.1472
2200.58	35.8639
2200.82	40.5343
2201.06	36.8237
2201.3	39.6283
2201.54	44.2965
2201.77	47.0718
2202.01	40.5087
2202.25	39.4942
2202.49	42.2191
2202.73	41.3165
2202.97	41.386
2203.21	42.347
2203.45	35.8241
2203.68	39.5347
2203.92	40.498
2204.16	42.4927
2204.4	35.9125
2204.64	41.503
2204.88	38.711
2205.12	40.5476
2205.36	41.4418
2205.59	40.4778
2205.83	33.9454
2206.07	41.3768
2206.31	37.6575
2206.55	38.5948
2206.79	39.5248
2207.03	43.2277
2207.26	42.2994
2207.5	41.3745
2207.74	40.4509
2207.98	38.5975
2208.22	39.5349
2208.46	42.334
2208.7	38.618
2208.93	36.7617
2209.17	39.5591
2209.41	37.6995
2209.65	40.4945
2209.89	44.2188
2210.13	39.5599
2210.36	42.3541
2210.6	40.4953
2210.84	40.4999
2211.08	41.4369
2211.32	44.238
2211.56	41.4474
2211.8	42.3853
2212.03	38.6635
2212.27	39.6031
2212.51	37.7422
2212.75	44.2738
2212.99	39.6057
2213.23	37.7351
2213.46	35.8651
2213.7	40.5206
2213.94	39.5801
2214.18	41.4458
2214.42	36.7899
2214.66	41.4684
2214.89	43.3497
2215.13	40.5529
2215.37	36.8211
2215.61	37.7559
2215.85	37.7564
2216.08	41.4908
2216.32	37.7551
2216.56	40.5544
2216.8	41.4858
2217.04	37.7483
2217.28	38.6792
2217.51	37.7444
2217.75	40.5454
2217.99	39.6124
2218.23	37.7438
2218.47	39.6095
2218.7	39.61
2218.94	37.7451
2219.18	36.8152
2219.42	35.8864
2219.66	40.5632
2219.9	38.6977
2220.13	39.6358
2220.37	38.7039
2220.61	40.571
2220.85	35.8953
2221.09	35.8928
2221.32	39.6258
2221.56	37.7469
2221.8	39.6036
2222.04	41.4614
2222.27	42.386
2222.51	31.1777
2222.75	38.6433
2222.99	37.7114
2223.23	35.8482
2223.46	37.7199
2223.7	37.725
2223.94	36.7985
2224.18	39.6115
2224.42	35.8832
2224.65	39.6324
2224.89	40.5763
2225.13	39.6484
2225.37	36.8485
2225.6	37.7923
2225.84	38.7381
2226.08	34.9996
2226.32	34.069
2226.56	35.9489
2226.79	35.9532
2227.03	39.7085
2227.27	35.9653
2227.51	42.5329
2227.74	42.5368
2227.98	38.7874
2228.22	43.4741
2228.46	40.6566
2228.69	40.6525
2228.93	38.7735
2229.17	40.6453
2229.41	35.9546
2229.64	36.8909
2229.88	38.7711
2230.12	36.9042
2230.36	38.7881
2230.6	35.9789
2230.83	40.677
2231.07	34.1133
2231.31	36.936
2231.55	42.578
2231.78	38.8297
2232.02	39.7756
2232.26	37.9028
2232.5	38.849
2232.73	40.7356
2232.97	38.8613
2233.21	40.7484
2233.45	38.8732
2233.68	36.9974
2233.92	41.7083
2234.16	41.713
2234.39	41.7166
2234.63	38.8894
2234.87	37.0028
2235.11	36.9973
2235.34	38.8714
2235.58	37.916
2235.82	40.7263
2236.06	38.8453
2236.29	40.7266
2236.53	36.9658
2236.77	39.7883
2237	38.8482
2237.24	39.7897
2237.48	39.7979
2237.72	38.864
2237.95	36.9947
2238.19	33.2415
2238.43	37.9639
2238.67	37.0306
2238.9	37.9818
2239.14	34.22
2239.38	39.8913
2239.61	38.006
2239.85	36.1149
2240.09	37.9954
2240.33	36.0978
2240.56	37.0307
2240.8	37.9679
2241.04	39.8689
2241.27	37.9959
2241.51	40.8277
2241.75	37.0549
2241.99	37.0566
2242.22	38.9453
2242.46	34.2285
2242.7	34.231
2242.93	40.8423
2243.17	38.0099
2243.41	40.8394
2243.64	34.2255
2243.88	36.1068
2244.12	40.8214
2244.36	36.1007
2244.59	39.8756
2244.83	37.9927
2245.07	38.9468
2245.3	38.9614
2245.54	39.9192
2245.78	37.0919
2246.01	36.1527
2246.25	36.1591
2246.49	40.8939
2246.72	39.9538
2246.96	35.2266
2247.2	38.0692
2247.43	33.3422
2247.67	43.755
2247.91	38.0771
2248.14	37.129
2248.38	36.1795
2248.62	38.0689
2248.85	34.2801
2249.09	37.1159
2249.33	41.8438
2249.56	34.2715
2249.8	36.1689
2250.04	39.9581
2250.27	35.2241
2250.51	34.2723
2250.75	38.9954
2250.98	39.9323
2251.22	36.1387
2251.46	38.9678
2251.69	37.0702
2251.93	39.9033
2252.17	39.9036
2252.4	37.0701
2252.64	36.1289
2252.88	40.8647
2253.11	38.984
2253.35	39.0038
2253.59	34.2817
2253.82	39.9752
2254.06	42.8264
2254.3	35.2505
2254.53	37.1521
2254.77	41.8968
2255.01	32.4146
2255.24	40.9432
2255.48	39.0478
2255.72	39.9951
2255.95	37.1508
2256.19	41.8925
2256.42	40.0017
2256.66	36.2136
2256.9	40.0138
2257.13	37.1723
2257.37	36.2283
2257.61	41.9286
2257.84	38.1363
2258.08	42.887
2258.32	36.2411
2258.55	38.1409
2258.79	36.2428
2259.02	39.0946
2259.26	39.099
2259.5	38.1536
2259.73	35.3055
2259.97	38.1581
2260.2	37.211
2260.44	42.9169
2260.68	40.0681
2260.91	42.923
2261.15	38.1741
2261.39	33.4291
2261.62	38.1919
2261.86	34.3868
2262.1	35.3392
2262.33	36.2926
2262.57	37.2462
2262.8	35.3467
2263.04	41.0652
2263.28	39.1687
2263.51	38.2253
2263.75	38.2359
2263.98	40.1544
2264.22	35.4013
2264.46	44.9527
2264.69	38.2873
2264.93	39.2518
2265.16	36.3957
2265.4	36.402
2265.64	41.1832
2265.87	36.4074
2266.11	35.4525
2266.34	35.4486
2266.58	40.2147
2266.81	38.2946
2267.05	35.4205
2267.29	37.3203
2267.52	36.3588
2267.76	37.3064
2267.99	41.115
2268.23	40.1511
2268.47	35.3755
2268.7	39.1862
2268.94	37.2793
2269.17	37.2833
2269.41	36.3362
2269.65	42.0694
2269.88	39.217
2270.12	33.4993
2270.35	40.195
2270.59	35.4298
2270.82	40.2131
2271.06	36.3944
2271.3	35.4452
2271.53	35.4504
2271.77	41.191
2272	38.3267
2272.24	37.3762
2272.47	39.2922
2272.71	36.4219
2272.95	39.2927
2273.18	40.2504
2273.42	38.338
2273.65	38.3389
2273.89	43.1247
2274.12	36.4268
2274.36	43.1271
2274.6	40.2566
2274.83	40.2576
2275.07	37.387
2275.3	36.4312
2275.54	39.3042
2275.77	42.178
2276.01	36.431
2276.24	39.308
2276.48	31.6537
2276.72	42.1991
2276.95	35.4993
2277.18	37.4222
2277.42	35.5121
2277.66	36.4816
2277.89	37.4535
2278.13	35.5474
2278.36	42.2828
2278.6	41.3278
2278.83	37.488
2279.07	38.4478
2279.3	37.4848
2279.54	37.4812
2279.78	38.4336
2280.01	36.4957
2280.24	38.403
2280.48	42.2285
2280.72	38.3815
2280.95	39.3318
2281.19	41.2424
2281.42	38.3614
2281.66	39.3139
2281.89	36.4338
2282.13	42.1879
2282.36	37.3968
2282.6	38.3598
2282.83	35.4893
2283.07	37.4149
2283.3	36.4629
2283.54	40.3109
2283.77	37.4455
2284.01	37.4617
2284.24	33.6325
2284.48	36.5314
2284.71	42.3102
2284.95	39.4286
2285.19	39.4366
2285.42	41.3689
2285.65	34.6345
2285.89	36.5591
2286.12	35.588
2286.36	35.5735
2286.59	32.6858
2286.83	36.5346
2287.06	41.3497
2287.3	41.3679
2287.54	38.4942
2287.77	39.4619
2288	35.6125
2288.24	43.3286
2288.47	47.1778
2288.71	44.28
2288.94	42.3461
2289.18	42.3373
2289.41	47.1366
2289.65	41.3442
2289.88	41.3289
2290.12	43.2338
2290.35	36.4966
2290.59	39.3758
2290.82	39.3748
2291.06	39.3745
2291.29	35.5331
2291.53	34.5795
2291.76	38.4384
2292	36.5213
2292.23	36.5265
2292.47	41.3451
2292.7	38.4633
2292.94	43.2869
2293.17	43.2954
2293.41	40.4114
2293.64	39.4527
2293.88	36.5646
2294.11	34.6379
2294.34	34.6341
2294.58	34.6289
2294.81	32.6953
2295.05	40.3948
2295.28	36.5351
2295.52	41.3444
2295.75	37.4855
2295.99	44.219
2296.22	36.5108
2296.46	36.5011
2296.69	37.4472
2296.93	35.5198
2297.16	37.4459
2297.39	37.4501
2297.63	39.3809
2297.86	39.3887
2298.1	35.5467
2298.33	43.2643
2298.57	40.382
2298.8	39.423
2299.04	39.4297
2299.27	38.4746
2299.51	35.5887
2299.74	36.5584
2299.97	41.3841
2300.21	40.4177
2300.44	37.5229
2300.68	42.344
2300.91	37.524
2301.15	38.4943
2301.38	39.4632
2301.61	40.4317
2301.85	32.7114
2302.08	39.4679
2302.32	38.5002
2302.55	37.5305
2302.79	35.5965
2303.02	39.4568
2303.25	38.4897
2303.49	40.4165
2303.72	36.5545
2303.96	35.5889
2304.19	37.5216
2304.43	37.5269
2304.66	36.5662
2304.89	37.5348
2305.13	39.4707
2305.36	40.4431
2305.6	40.4465
2305.83	44.3121
2306.07	40.4497
2306.3	37.5546
2306.53	41.4241
2306.77	36.5921
2307	36.5917
2307.24	41.4229
2307.47	39.4873
2307.7	38.5161
2307.94	40.4428
2308.17	42.3712
2308.41	36.569
2308.64	37.5309
2308.87	32.6991
2309.11	36.5641
2309.34	40.4337
2309.58	41.4059
2309.81	38.515
2310.04	37.5589
2310.28	42.4023
2310.51	36.601
2310.75	38.5357
2310.98	39.5009
2311.21	38.5282
2311.45	41.4193
2311.68	35.5954
2311.92	34.6054
2312.15	40.3853
2312.38	39.4086
2312.62	38.4365
2312.85	37.4636
2313.08	38.4224
2313.32	41.3153
2313.55	38.424
2313.79	35.5387
2314.02	41.3455
2314.25	37.4926
2314.49	41.3677
2314.72	40.4126
2314.95	40.4267
2315.19	43.3411
2315.42	36.5752
2315.66	37.5316
2315.89	35.5871
2316.12	41.3794
2316.36	45.2332
2316.59	37.4794
2316.82	42.2961
2317.06	37.461
2317.29	42.2868
2317.52	40.3567
2317.76	35.5294
2317.99	37.4696
2318.23	39.4074
2318.46	44.2219
2318.69	43.2477
2318.93	40.3442
2319.16	43.2328
2319.39	41.294
2319.63	43.2168
2319.86	40.316
2320.09	45.1364
2320.33	44.1705
2320.56	45.1356
2320.79	43.2042
2321.03	43.2072
2321.26	48.0386
2321.5	45.1494
2321.73	47.0879
2321.96	54.8233
2322.2	50.0076
2322.43	50.9885
2322.66	46.1676
2322.9	50.0382
2323.13	51.0014
2323.36	56.8032
2323.6	54.8727
2323.83	53.908
2324.06	52.9437
2324.3	64.5482
2324.53	70.3461
2324.76	74.2095
2325	68.3901
2325.23	79.9644
2325.46	91.5272
2325.7	98.2654
2325.93	110.798
2326.16	137.808
2326.4	163.84
2326.63	216.882
2326.86	305.598
2327.09	429.969
2327.33	589.004
2327.56	708.433
2327.79	760.388
2328.03	634.953
2328.26	429.592
2328.49	326.482
2328.73	236.845
2328.96	176.125
2329.19	138.505
2329.43	107.645
2329.66	97.9821
2329.89	79.6715
2330.13	76.7775
2330.36	65.2274
2330.59	63.2953
2330.82	53.6577
2331.06	53.6515
2331.29	50.7594
2331.52	47.8726
2331.76	47.8785
2331.99	43.0684
2332.22	46.9322
2332.46	45.9547
2332.69	45.9443
2332.92	46.8994
2333.16	44.9659
2333.39	41.1076
2333.62	42.0638
2333.85	39.1702
2334.09	42.0528
2334.32	41.0833
2334.55	44.9239
2334.79	40.1013
2335.02	40.094
2335.25	42.9737
2335.48	43.9327
2335.72	43.929
2335.95	42.9678
2336.18	40.0845
2336.41	42.0054
2336.65	36.23
2336.88	40.0727
2337.11	41.0312
2337.34	37.1825
2337.58	41.9865
2337.81	41.0222
2338.04	41.9788
2338.28	41.0134
2338.51	39.0879
2338.74	36.2012
2338.97	42.9269
2339.21	43.8885
2339.44	41.966
2339.67	42.9258
2339.91	38.1173
2340.14	38.113
2340.37	38.107
2340.6	45.786
2340.84	40.9735
2341.07	39.0422
2341.3	39.03
2341.53	35.1767
2341.77	40.9191
2342	44.743
2342.23	39.9382
2342.46	38.9714
2342.7	40.8817
2342.93	34.1652
2343.16	40.8722
2343.39	42.7874
2343.63	41.828
2343.86	41.8248
2344.09	39.9048
2344.32	40.8627
2344.56	37.9884
2344.79	39.9059
2345.02	38.9449
2345.25	40.8583
2345.49	37.0188
2345.72	38.9282
2345.95	47.5394
2346.18	40.8241
2346.41	38.8997
2346.65	36.0226
2346.88	39.8498
2347.11	36.9739
2347.34	40.7993
2347.58	39.8374
2347.81	34.091
2348.04	36.9628
2348.27	37.9214
2348.5	43.6704
2348.74	37.9266
2348.97	39.8406
2349.2	41.7508
2349.43	35.998
2349.67	40.7665
2349.9	38.8345
2350.13	37.8575
2350.36	44.5226
2350.59	33.985
2350.83	38.7075
2351.06	40.527
2351.29	42.4966
2351.52	35.9471
2351.75	37.8982
2351.99	36.8635
2352.22	37.7752
2352.45	43.5042
2352.68	35.8717
2352.91	41.5725
2353.15	35.8143
2353.38	36.7401
2353.61	34.8429
2353.84	40.5543
2354.07	40.5453
2354.31	39.5922
2354.54	43.3992
2354.77	39.5981
2355	40.5593
2355.23	39.604
2355.47	33.8832
2355.7	36.7372
2355.93	36.7324
2356.16	39.5845
2356.39	40.5287
2356.63	38.6102
2356.86	39.5422
2357.09	41.4284
2357.32	42.3697
2357.55	42.3611
2357.79	35.6976
2358.02	36.6417
2358.25	41.3877
2358.48	38.5308
2358.71	35.6756
2358.94	38.5169
2359.18	34.7117
2359.41	39.4577
2359.64	40.4041
2359.87	38.4983
2360.1	37.5408
2360.33	39.4303
2360.57	38.4706
2360.8	43.2053
2361.03	35.6039
2361.26	33.697
2361.49	33.6875
2361.72	41.2625
2361.96	40.3029
2362.19	41.2387
2362.42	42.1731
2362.65	40.2665
2362.88	35.5216
2363.11	43.0866
2363.34	39.2915
2363.58	35.4987
2363.81	36.4394
2364.04	38.3264
2364.27	43.0508
2364.5	36.4219
2364.73	36.4151
2364.97	42.0822
