#Acq. time (s)=	30
#Accumulations=	2
#Range (cm-¹)=	1200...2365
#Windows=	3
#Auto scanning=	Off
#Autofocus=	Off
#Macrospot=	Off
#AutoExposure=	Off
#Spike filter=	Multiple accum.
#Delay time (s)=	2
#Binning=	1
#Readout mode=	Signal
#DeNoise=	Off
#ICS correction=	On
#Dark correction=	Off
#Inst. Process=	Off
#Detector Gain=	Best Dynamic
#Detector ADC=	50 kHz HS
#Detector temperature (°C)=	-60.09
#Instrument=	LabRAM HR Evol
#Detector=	SIN-EM FIVIS
#Objective=	x100_VIS_LWD
#Grating=	1800 (450-850nm)
#ND Filter=	100%
#Laser=	532nm_Edge
#Hole=	49.98
#Temperature=	0
#Range=	Visible
#StageXY=	75x50mm Scan+
#StageZ=	Z motor
#X (µm)=	0
#Y (µm)=	0
#Z (µm)=	58.8
#Full time(mm:ss)=	3:12
#Project=	21_11_22
#Sample=	BU19w
#Site=	
#Title=	BU19w-D-FF2-FI06-V_1800 (450-850nm)_532nm_Edge_100%_x100_VIS_LWD_H50um_30sX2
#Remark=	
#Date=	22.11.2021 13:14
#Acquired=	22.11.2021 13:14:09
1202.84	37.0405
1203.12	41.3137
1203.4	41.2929
1203.67	35.9117
1203.95	36.9652
1204.23	40.1625
1204.51	36.9375
1204.78	37.9981
1205.06	41.2013
1205.34	37.9814
1205.62	41.1791
1205.9	43.3054
1206.17	39.0156
1206.45	36.8703
1206.73	41.1437
1207.01	36.8629
1207.29	37.9236
1207.56	40.0447
1207.84	38.9591
1208.12	36.8095
1208.39	42.1311
1208.67	41.0497
1208.95	35.7001
1209.23	36.751
1209.51	37.8049
1209.78	36.7272
1210.06	42.0409
1210.34	36.7058
1210.62	39.894
1210.89	37.7553
1211.17	35.6253
1211.45	44.1426
1211.72	35.6248
1212	32.4294
1212.28	39.8793
1212.56	43.0697
1212.84	38.8078
1213.11	34.5402
1213.39	34.5272
1213.67	35.5743
1213.94	33.4323
1214.22	31.2953
1214.5	38.7217
1214.78	33.3986
1215.05	37.6366
1215.33	36.5654
1215.61	37.6172
1215.89	35.4887
1216.16	38.6685
1216.44	37.6025
1216.72	32.2927
1216.99	35.467
1217.27	40.7673
1217.55	35.4634
1217.83	30.1571
1218.1	38.6375
1218.38	34.3877
1218.66	31.2004
1218.93	32.2504
1219.21	32.2368
1219.49	35.3979
1219.77	36.4375
1220.04	34.3025
1220.32	31.1135
1220.6	36.3834
1220.88	35.3131
1221.15	34.2426
1221.43	31.0645
1221.71	34.2246
1221.98	34.2181
1222.26	37.3821
1222.54	34.2173
1222.81	38.4435
1223.09	34.2232
1223.37	28.9415
1223.64	36.3288
1223.92	35.2657
1224.2	36.3136
1224.48	39.4604
1224.75	35.2075
1225.03	34.1296
1225.31	37.2667
1225.58	37.2319
1225.86	38.252
1226.14	39.2949
1226.41	35.1653
1226.69	42.63
1226.97	36.2756
1227.24	36.2391
1227.52	38.3285
1227.8	39.3844
1228.07	40.4196
1228.35	47.6904
1228.63	46.6419
1228.9	48.7417
1229.18	46.6378
1229.46	44.529
1229.73	50.8306
1230.01	48.7257
1230.29	51.8706
1230.56	55.0186
1230.84	46.6161
1231.12	57.1249
1231.39	59.2303
1231.67	59.2372
1231.95	62.3997
1232.22	60.3012
1232.5	59.254
1232.78	61.3628
1233.05	62.4187
1233.33	58.2118
1233.61	61.3574
1233.88	60.2954
1234.16	58.1804
1234.43	56.0585
1234.71	57.0873
1234.99	59.1653
1235.26	53.8955
1235.54	57.0217
1235.82	59.1008
1236.09	51.7489
1236.37	54.8856
1236.65	49.6367
1236.92	46.4872
1237.2	51.7252
1237.47	47.5307
1237.75	47.5305
1238.03	49.6281
1238.3	41.2425
1238.58	40.1904
1238.85	40.1816
1239.13	39.1272
1239.41	42.2695
1239.68	44.3672
1239.96	48.5633
1240.24	45.425
1240.51	46.472
1240.79	43.3256
1241.06	43.3271
1241.34	43.3261
1241.62	44.3702
1241.89	42.2685
1242.17	41.211
1242.45	43.2945
1242.72	43.279
1243	41.1687
1243.27	43.2539
1243.55	44.296
1243.83	46.3876
1244.1	47.4327
1244.38	48.4743
1244.65	47.4247
1244.93	45.3263
1245.2	51.587
1245.48	46.3437
1245.76	45.2937
1246.03	48.4322
1246.31	52.6185
1246.59	53.6608
1246.86	57.8407
1247.14	49.4727
1247.41	54.6914
1247.69	48.4032
1247.96	54.6619
1248.24	56.7397
1248.51	64.042
1248.79	59.8511
1249.07	58.7945
1249.34	61.915
1249.62	65.0343
1249.89	60.8442
1250.17	65.0055
1250.45	58.7359
1250.72	71.2561
1251	58.741
1251.27	58.7506
1251.55	67.1144
1251.82	60.855
1252.1	57.7218
1252.38	59.8131
1252.65	56.6796
1252.93	59.8083
1253.2	59.8091
1253.48	61.9008
1253.75	57.7308
1254.03	60.8668
1254.3	51.4626
1254.58	53.5424
1254.86	58.7575
1255.13	59.796
1255.41	46.2164
1255.68	55.607
1255.96	43.0663
1256.23	49.3249
1256.51	49.33
1256.78	50.3763
1257.06	47.2683
1257.33	49.3426
1257.61	45.1549
1257.88	51.3977
1258.16	49.2967
1258.44	46.1576
1258.71	38.8555
1258.99	42.0195
1259.26	46.2511
1259.54	47.3473
1259.81	39.9515
1260.09	41.989
1260.36	47.1687
1260.64	39.9099
1260.91	49.34
1261.19	45.2
1261.46	49.4186
1261.74	44.1562
1262.01	44.1421
1262.29	47.2755
1262.56	47.2722
1262.84	52.4852
1263.11	57.7074
1263.39	51.4402
1263.66	58.7609
1263.94	47.2726
1264.21	51.464
1264.49	53.568
1264.76	47.3058
1265.04	45.227
1265.31	42.1046
1265.59	46.3092
1265.86	41.08
1266.14	45.2762
1266.41	44.2331
1266.69	43.183
1266.96	40.0298
1267.24	36.8751
1267.51	41.0532
1267.79	41.0422
1268.06	37.8937
1268.34	42.0752
1268.61	39.9761
1268.89	42.0693
1269.16	38.9373
1269.44	38.947
1269.71	43.1493
1269.99	41.065
1270.26	44.2181
1270.54	42.1324
1270.81	41.0939
1271.09	42.1523
1271.36	39.012
1271.64	41.111
1271.91	44.2552
1272.18	36.9115
1272.46	43.2079
1272.74	43.2135
1273.01	43.2198
1273.28	36.931
1273.56	44.2855
1273.83	39.0427
1274.11	41.1474
1274.38	46.408
1274.66	44.3168
1274.93	42.2245
1275.21	38.0273
1275.48	41.1869
1275.76	42.2494
1276.03	40.1515
1276.3	44.366
1276.58	41.2067
1276.85	39.0986
1277.13	45.4028
1277.4	42.2439
1277.68	42.2461
1277.95	43.2998
1278.23	42.2568
1278.5	41.2173
1278.77	42.2755
1279.05	46.483
1279.32	38.0642
1279.6	46.4914
1279.87	44.3782
1280.15	42.254
1280.42	49.5722
1280.69	50.5995
1280.97	55.8543
1281.24	59.0138
1281.52	62.3153
1281.79	73.9159
1282.07	90.7799
1282.34	114.959
1282.61	149.657
1282.89	192.819
1283.16	267.63
1283.44	342.413
1283.71	365.5
1283.99	313.904
1284.26	212.816
1284.53	126.465
1284.81	91.709
1285.08	74.8587
1285.36	63.2802
1285.63	49.5998
1285.9	53.8114
1286.18	47.5023
1286.45	44.3513
1286.73	40.1463
1287	45.4194
1287.28	40.1597
1287.55	36.9992
1287.82	36.9937
1288.1	34.8836
1288.37	39.0947
1288.64	36.9866
1288.92	34.8778
1289.19	32.77
1289.47	33.8242
1289.74	35.9283
1290.01	38.0299
1290.29	32.7642
1290.56	33.8259
1290.84	33.839
1291.11	34.9064
1291.38	30.6934
1291.66	33.8554
1291.93	31.7435
1292.21	31.7463
1292.48	39.1433
1292.75	31.774
1293.03	36.0202
1293.3	31.809
1293.57	32.869
1293.85	31.8117
1294.12	33.9216
1294.4	34.9712
1294.67	32.8499
1294.94	31.7849
1295.22	37.0555
1295.49	37.0565
1295.76	34.9419
1296.04	32.8231
1296.31	32.8172
1296.58	35.9776
1296.86	31.7529
1297.13	31.7567
1297.4	29.6475
1297.68	32.815
1297.95	34.9243
1298.22	30.6984
1298.5	34.9218
1298.77	27.5339
1299.04	29.6495
1299.32	37.0451
1299.59	33.8763
1299.87	32.8184
1300.14	32.8153
1300.41	29.6421
1300.69	28.5798
1300.96	30.6889
1301.23	27.5203
1301.51	29.6311
1301.78	31.7415
1302.05	30.6809
1302.33	31.7301
1302.6	29.6109
1302.87	31.7133
1303.15	28.5394
1303.42	31.6964
1303.69	27.4735
1303.97	29.581
1304.24	30.6372
1304.51	27.4729
1304.79	31.6902
1305.06	32.7431
1305.33	27.4703
1305.6	34.8501
1305.88	26.4122
1306.15	27.4702
1306.42	26.4178
1306.7	28.531
1306.97	26.4222
1307.24	26.4205
1307.52	34.8595
1307.79	31.6923
1308.06	30.6371
1308.34	31.6929
1308.61	29.5824
1308.88	28.5277
1309.15	31.6985
1309.43	31.7023
1309.7	29.5916
1309.97	27.4781
1310.25	32.751
1310.52	30.6367
1310.79	26.4106
1311.06	25.3517
1311.34	27.4613
1311.61	32.7394
1311.88	32.7413
1312.16	28.5209
1312.43	28.5232
1312.7	29.5818
1312.98	29.5845
1313.25	32.7513
1313.52	29.5795
1313.79	28.5209
1314.07	28.5188
1314.34	29.5735
1314.61	29.5761
1314.89	31.6906
1315.16	29.5788
1315.43	27.466
1315.7	27.4654
1315.98	27.4644
1316.25	32.7447
1316.52	29.5729
1316.79	27.4578
1317.07	29.5711
1317.34	28.514
1317.61	29.5678
1317.88	29.5626
1318.16	31.667
1318.43	28.4896
1318.7	26.3681
1318.97	30.5831
1319.25	31.6277
1319.52	30.5673
1319.79	26.3431
1320.06	27.3928
1320.34	27.385
1320.61	27.3872
1320.88	25.2784
1321.16	29.4957
1321.43	27.3844
1321.7	31.6017
1321.97	29.4901
1322.25	25.2738
1322.52	27.3752
1322.79	27.3616
1323.06	30.5051
1323.33	28.3753
1323.61	26.2608
1323.88	32.5685
1324.15	31.524
1324.42	29.4393
1324.7	26.2884
1324.97	26.2964
1325.24	30.5222
1325.51	29.4786
1325.79	27.3774
1326.06	29.4905
1326.33	28.4292
1326.6	23.1564
1326.87	31.5944
1327.15	27.3709
1327.42	28.421
1327.69	30.5239
1327.96	26.298
1328.23	27.3429
1328.51	28.385
1328.78	28.371
1329.05	25.2008
1329.32	26.245
1329.6	30.4447
1329.87	30.433
1330.14	30.4207
1330.41	27.2558
1330.68	29.3477
1330.96	27.2367
1331.23	32.4791
1331.5	30.3692
1331.77	27.2111
1332.04	29.303
1332.32	25.0987
1332.59	30.3382
1332.86	25.0868
1333.13	26.13
1333.4	28.2219
1333.67	27.1683
1333.95	29.2605
1334.22	28.2081
1334.49	28.2044
1334.76	27.1521
1335.03	28.1924
1335.3	25.0413
1335.58	26.0837
1335.85	28.1726
1336.12	32.3564
1336.39	23.9773
1336.66	28.1652
1336.94	26.0713
1337.21	30.2595
1337.48	29.212
1337.75	28.1646
1338.02	22.9266
1338.29	26.066
1338.57	26.0629
1338.84	31.2941
1339.11	27.1003
1339.38	28.14
1339.65	31.2705
1339.93	27.0763
1340.2	29.1627
1340.47	27.0673
1340.74	22.8816
1341.01	30.201
1341.28	31.2461
1341.55	27.0615
1341.82	29.1496
1342.1	24.9612
1342.37	29.1359
1342.64	28.0805
1342.91	25.9821
1343.18	23.8833
1343.45	25.9582
1343.73	26.9914
1344	30.1119
1344.27	30.1011
1344.54	29.0485
1344.81	31.1265
1345.08	31.121
1345.35	31.1169
1345.63	26.9446
1345.9	26.9392
1346.17	22.7656
1346.44	26.9263
1346.71	32.1272
1346.98	30.0375
1347.25	24.8255
1347.52	24.8196
1347.8	32.0968
1348.07	27.9258
1348.34	25.8392
1348.61	26.8713
1348.88	28.9471
1349.15	28.9451
1349.42	26.867
1349.69	28.9517
1349.96	25.8382
1350.24	27.9213
1350.51	28.9843
1350.78	31.1003
1351.05	28.9888
1351.32	31.0226
1351.59	24.7517
1351.86	34.1044
1352.13	26.8334
1352.41	28.9007
1352.68	27.8537
1352.95	26.8221
1353.22	27.8643
1353.49	26.8175
1353.76	28.8909
1354.03	30.9643
1354.3	29.9215
1354.57	29.9164
1354.84	26.7958
1355.11	27.8279
1355.39	28.8593
1355.66	26.7777
1355.93	28.846
1356.2	26.7643
1356.47	26.759
1356.74	27.7912
1357.01	29.8567
1357.28	24.6641
1357.55	28.8004
1357.82	27.7572
1358.09	25.6818
1358.36	27.7516
1358.63	30.8569
1358.9	28.7823
1359.18	25.6709
1359.45	28.7733
1359.72	28.7692
1359.99	24.6251
1360.26	25.6606
1360.53	29.806
1360.8	30.8446
1361.07	36.0265
1361.34	27.7385
1361.61	25.6637
1361.88	27.7312
1362.15	26.6896
1362.42	30.8236
1362.69	33.9201
1362.97	34.9458
1363.24	30.7981
1363.51	28.7208
1363.78	31.8135
1364.05	30.7675
1364.32	28.6935
1364.59	35.9234
1364.86	31.7918
1365.13	32.827
1365.4	32.8278
1365.67	33.8624
1365.94	31.7955
1366.21	33.8647
1366.48	33.8659
1366.75	36.9629
1367.02	33.8559
1367.29	28.6825
1367.56	32.8077
1367.83	35.9013
1368.1	34.8605
1368.37	40.0137
1368.64	47.2263
1368.91	48.2385
1369.18	46.1554
1369.45	36.8559
1369.72	34.7823
1369.99	33.7439
1370.26	35.7994
1370.54	36.8241
1370.81	32.697
1371.08	38.8752
1371.34	33.7195
1371.62	36.8068
1371.89	30.6216
1372.16	38.8567
1372.43	37.8265
1372.7	37.8301
1372.97	36.7978
1373.24	36.7994
1373.51	41.9389
1373.78	39.868
1374.05	47.0599
1374.32	39.8337
1374.59	42.9244
1374.86	41.9044
1375.13	46.0384
1375.4	45.0294
1375.67	44.0244
1375.94	43.0005
1376.21	48.153
1376.48	46.0837
1376.75	46.076
1377.02	49.1573
1377.29	51.1974
1377.56	54.2403
1377.83	53.1854
1378.09	49.0468
1378.36	56.2559
1378.64	54.1846
1378.91	57.2418
1379.18	59.2661
1379.44	65.4009
1379.71	63.323
1379.98	63.2964
1380.25	67.3811
1380.52	60.1802
1380.79	70.4222
1381.06	61.1825
1381.33	68.36
1381.6	70.4147
1381.87	66.3242
1382.14	75.5718
1382.41	74.5755
1382.68	69.4617
1382.95	71.5307
1383.22	70.5112
1383.49	66.4171
1383.76	70.5313
1384.03	70.5301
1384.3	76.6432
1384.57	81.6146
1384.84	87.6079
1385.11	92.6475
1385.38	99.9094
1385.65	130.809
1385.92	170.981
1386.19	212.175
1386.45	379.544
1386.72	577.8
1386.99	787.057
1387.26	590.535
1387.53	320.576
1387.8	171.908
1388.07	119.557
1388.34	83.6737
1388.61	66.2448
1388.88	61.106
1389.15	54.9429
1389.42	53.9049
1389.69	48.7749
1389.96	46.7193
1390.23	43.6416
1390.49	43.6359
1390.76	39.5368
1391.03	41.579
1391.3	38.5049
1391.57	37.478
1391.84	38.4984
1392.11	38.5006
1392.38	39.5296
1392.65	37.4862
1392.92	37.4871
1393.19	40.5558
1393.46	33.3864
1393.73	40.5453
1393.99	34.399
1394.26	34.3914
1394.53	36.4294
1394.8	31.3103
1395.07	30.2857
1395.34	34.3779
1395.61	31.3117
1395.88	32.336
1396.15	33.3597
1396.42	32.3405
1396.68	31.3198
1396.95	35.4157
1397.22	29.2734
1397.49	30.2996
1397.76	34.4016
1398.03	30.3088
1398.3	31.3309
1398.57	27.2366
1398.84	31.332
1399.11	31.3407
1399.38	32.3821
1399.64	25.2216
1399.91	30.3628
1400.18	30.3719
1400.45	25.2428
1400.72	29.3489
1400.99	33.4481
1401.26	32.4013
1401.53	25.2223
1401.79	32.4006
1402.06	32.3957
1402.33	33.4143
1402.6	32.3813
1402.87	27.2478
1403.14	31.3425
1403.41	33.3879
1403.68	32.3587
1403.94	32.359
1404.21	23.1347
1404.48	31.3367
1404.75	28.2618
1405.02	29.2877
1405.29	30.3135
1405.56	31.3395
1405.82	35.4426
1406.09	30.3169
1406.36	33.3953
1406.63	35.4483
1406.9	33.3976
1407.17	42.6297
1407.44	39.5433
1407.7	46.709
1407.97	48.743
1408.24	52.8294
1408.51	62.0408
1408.78	54.8596
1409.05	43.5866
1409.31	41.5422
1409.58	38.4778
1409.85	32.3461
1410.12	26.225
1410.39	30.3531
1410.66	24.1707
1410.92	25.1583
1411.19	31.3145
1411.46	29.2823
1411.73	25.1904
1412	31.3469
1412.27	27.2404
1412.53	29.2927
1412.8	20.0519
1413.07	29.2936
1413.34	28.2683
1413.61	26.216
1413.88	28.2718
1414.14	23.138
1414.41	27.2491
1414.68	26.2236
1414.95	23.1415
1415.22	29.3062
1415.48	26.2233
1415.75	26.2237
1416.02	22.1119
1416.29	26.2224
1416.56	23.1356
1416.82	27.2399
1417.09	25.1785
1417.36	24.1455
1417.63	24.1393
1417.9	23.1061
1418.17	23.1004
1418.43	25.1495
1418.7	26.176
1418.97	23.1015
1419.24	26.1898
1419.5	22.0878
1419.77	21.0709
1420.04	21.0876
1420.31	20.0771
1420.58	25.1749
1420.84	21.0052
1421.11	25.1161
1421.38	25.0901
1421.65	26.1097
1421.92	25.0941
1422.18	24.0817
1422.45	24.0892
1422.72	23.0551
1422.99	24.0898
1423.26	24.0868
1423.52	25.1073
1423.79	23.0485
1424.06	23.0409
1424.33	24.0576
1424.59	25.0711
1424.86	23.0127
1425.13	24.0315
1425.4	21.9808
1425.66	21.9798
1425.93	25.0518
1426.2	21.9807
1426.47	23.0062
1426.73	23.0087
1427	21.9881
1427.27	25.0674
1427.54	24.0469
1427.81	26.1037
1428.07	26.1142
1428.34	17.9135
1428.61	23.0475
1428.88	19.9676
1429.14	17.9105
1429.41	23.0347
1429.68	22.0039
1429.94	24.0473
1430.21	20.9613
1430.48	21.9757
1430.75	24.0141
1431.02	22.9824
1431.28	19.9067
1431.55	21.9629
1431.82	20.9429
1432.08	20.9427
1432.35	21.9665
1432.62	18.8907
1432.89	22.9873
1433.15	19.9108
1433.42	22.9819
1433.69	20.9296
1433.96	20.9263
1434.22	20.9233
1434.49	20.9214
1434.76	26.0388
1435.02	21.9397
1435.29	22.9637
1435.56	23.9904
1435.83	23.9916
1436.09	18.869
1436.36	17.8443
1436.63	20.92
1436.89	19.8988
1437.16	18.8782
1437.43	19.9051
1437.7	20.9307
1437.96	19.9045
1438.23	21.9555
1438.5	20.9274
1438.77	17.8468
1439.03	25.0201
1439.3	26.0495
1439.57	21.9474
1439.83	21.9509
1440.1	23.9982
1440.37	19.8913
1440.63	18.8619
1440.9	18.8586
1441.17	19.8817
1441.43	20.9066
1441.7	20.9118
1441.97	17.8387
1442.24	20.9222
1442.5	21.9452
1442.77	18.8643
1443.03	14.7582
1443.3	19.8842
1443.57	22.9585
1443.84	15.7764
1444.1	18.8504
1444.37	22.9489
1444.64	17.8183
1444.9	19.8654
1445.17	21.9142
1445.44	19.8662
1445.7	27.0491
1445.97	26.0242
1446.24	22.9458
1446.5	23.9683
1446.77	19.8621
1447.04	19.8575
1447.3	22.9282
1447.57	19.8498
1447.84	20.872
1448.1	22.9188
1448.37	20.866
1448.64	19.8379
1448.9	24.9578
1449.17	19.8318
1449.44	18.8052
1449.7	20.8533
1449.97	19.8285
1450.24	20.8544
1450.5	18.8058
1450.77	18.8049
1451.04	18.8023
1451.3	19.8246
1451.57	15.7246
1451.83	19.8223
1452.1	17.7712
1452.37	20.8426
1452.63	19.8169
1452.9	17.7697
1453.17	17.7705
1453.43	21.8691
1453.7	20.8413
1453.97	16.7376
1454.23	24.9298
1454.5	18.7798
1454.77	18.7773
1455.03	17.7508
1455.3	17.7497
1455.56	19.7977
1455.83	22.8711
1456.1	15.6995
1456.36	17.7479
1456.63	20.821
1456.9	18.7699
1457.16	16.7184
1457.43	20.8137
1457.69	19.7864
1457.96	16.7102
1458.23	18.7549
1458.49	20.7991
1458.76	16.6994
1459.02	20.79
1459.29	17.7143
1459.56	16.686
1459.82	18.7271
1460.09	18.7214
1460.36	20.7607
1460.62	16.6651
1460.89	17.6853
1461.15	18.7121
1461.42	15.6508
1461.69	19.7497
1461.95	19.7579
1462.22	19.7447
1462.48	21.7468
1462.75	17.6438
1463.02	18.6601
1463.28	16.6237
1463.55	19.6836
1463.81	18.653
1464.08	15.588
1464.35	17.6291
1464.61	18.6469
1464.88	19.6644
1465.14	18.6421
1465.41	19.6606
1465.67	15.5788
1465.94	18.6366
1466.21	16.5937
1466.47	19.6496
1466.74	18.6249
1467	16.5803
1467.27	18.614
1467.54	17.591
1467.8	19.6254
1468.07	19.6225
1468.33	20.6374
1468.6	19.6133
1468.86	16.5541
1469.13	14.5149
1469.39	16.5496
1469.66	15.5296
1469.93	20.6189
1470.19	18.5798
1470.46	20.6118
1470.72	20.6073
1470.99	17.5502
1471.25	17.5476
1471.52	18.5639
1471.79	17.5465
1472.05	19.5823
1472.32	22.6348
1472.58	19.5795
1472.85	17.541
1473.11	17.5373
1473.38	17.5342
1473.64	16.5139
1473.91	17.5272
1474.17	20.5741
1474.44	18.5369
1474.71	18.535
1474.97	16.4993
1475.24	21.5803
1475.5	17.5082
1475.77	19.5371
1476.03	18.5165
1476.3	18.5119
1476.56	17.491
1476.83	17.4858
1477.09	15.4494
1477.36	16.4576
1477.62	17.4661
1477.89	16.4464
1478.15	19.4873
1478.42	16.4393
1478.68	18.4684
1478.95	18.4703
1479.22	20.5023
1479.48	16.4451
1479.75	16.4467
1480.01	15.4303
1480.28	18.4771
1480.54	17.4617
1480.81	18.4761
1481.07	17.4588
1481.34	18.4654
1481.6	18.4535
1481.87	20.4587
1482.13	19.4159
1482.4	13.3349
1482.66	19.3854
1482.93	19.4321
1483.19	17.4103
1483.46	17.4175
1483.72	16.3826
1483.99	19.4301
1484.25	15.3789
1484.52	16.3858
1484.78	18.4061
1485.05	16.3767
1485.31	14.3474
1485.58	19.4046
1485.84	18.3862
1486.11	18.3812
1486.37	18.3778
1486.64	17.3631
1486.9	18.3722
1487.17	20.3941
1487.43	17.3577
1487.7	19.3773
1487.96	16.338
1488.22	19.3666
1488.49	16.3302
1488.75	15.3171
1489.02	18.3487
1489.28	16.3263
1489.55	16.3245
1489.81	18.3442
1490.08	19.3532
1490.34	18.341
1490.61	18.3383
1490.87	19.3471
1491.14	17.3244
1491.4	18.3352
1491.67	19.3467
1491.93	17.3228
1492.19	17.3187
1492.46	16.3016
1492.72	18.3143
1492.99	17.2974
1493.25	17.2927
1493.52	17.2889
1493.78	18.2948
1494.05	18.2908
1494.31	17.28
1494.58	17.2787
1494.84	19.2947
1495.1	18.2838
1495.37	20.3011
1495.63	18.2818
1495.9	16.2627
1496.16	15.2528
1496.43	19.2901
1496.69	14.2433
1496.96	18.2816
1497.22	20.3003
1497.48	17.2702
1497.75	18.2778
1498.01	18.276
1498.28	21.301
1498.54	20.286
1498.81	15.2376
1499.07	20.2815
1499.34	16.243
1499.6	18.2582
1499.86	16.2352
1500.13	17.239
1500.39	18.2442
1500.66	19.2475
1500.92	18.2377
1501.18	19.2468
1501.45	16.2211
1501.71	17.2285
1501.98	15.2096
1502.24	20.2482
1502.5	17.2193
1502.77	20.2367
1503.03	19.2199
1503.3	15.1874
1503.56	18.2079
1503.83	18.2072
1504.09	15.1861
1504.35	21.2314
1504.62	19.2158
1504.88	18.2067
1505.15	18.2041
1505.41	16.1866
1505.67	18.2008
1505.94	17.1926
1506.2	19.207
1506.47	20.2131
1506.73	16.1811
1506.99	21.2203
1507.26	20.2131
1507.52	18.1924
1507.78	17.18
1508.05	18.1817
1508.31	19.182
1508.58	18.1662
1508.84	15.1366
1509.1	14.1212
1509.37	21.1475
1509.63	18.1228
1509.9	19.1208
1510.16	18.1107
1510.42	20.1135
1510.69	16.095
1510.95	18.1055
1511.21	17.1075
1511.48	18.1129
1511.74	16.1006
1512.01	16.0954
1512.27	20.1053
1512.53	20.0986
1512.8	17.0807
1513.06	17.0739
1513.32	16.0657
1513.59	18.0683
1513.85	18.0655
1514.11	18.0629
1514.38	17.0585
1514.64	17.0575
1514.9	21.0684
1515.17	17.0595
1515.43	20.0682
1515.7	15.0534
1515.96	17.0592
1516.22	21.0722
1516.49	16.0565
1516.75	16.0561
1517.01	20.0676
1517.28	17.0549
1517.54	17.0523
1517.8	17.052
1518.07	17.0525
1518.33	15.0462
1518.59	20.0626
1518.86	18.0538
1519.12	17.0475
1519.38	20.0538
1519.65	17.0408
1519.91	15.0317
1520.17	18.0361
1520.44	18.0291
1520.7	17.0182
1520.96	18.0138
1521.23	21.0133
1521.49	18.0037
1521.75	16.9981
1522.02	18.0001
1522.28	16.9983
1522.54	21.0038
1522.81	16.9991
1523.07	17.0012
1523.33	17.0049
1523.59	21.0166
1523.86	20.0149
1524.12	19.0109
1524.38	16
1524.65	14.9954
1524.91	22.0074
1525.17	21.0022
1525.44	17.9926
1525.7	17.9893
1525.96	14.9811
1526.23	16.9823
1526.49	17.9824
1526.75	20.9846
1527.02	21.9811
1527.28	16.9719
1527.54	15.9708
1527.8	16.9747
1528.07	14.9735
1528.33	18.9829
1528.59	19.9842
1528.86	18.9795
1529.12	18.9789
1529.38	20.9785
1529.64	18.9758
1529.91	19.9821
1530.17	14.9755
1530.43	19.9941
1530.69	16.9866
1530.96	17.9901
1531.22	15.9824
1531.48	18.9894
1531.75	20.9927
1532.01	16.9773
1532.27	15.9716
1532.53	18.9753
1532.8	17.9615
1533.06	17.9543
1533.32	19.9521
1533.59	16.9396
1533.85	16.9315
1534.11	16.924
1534.37	17.9208
1534.64	17.9148
1534.9	15.9134
1535.16	16.9088
1535.42	18.9011
1535.69	16.8985
1535.95	15.8957
1536.21	18.8983
1536.48	19.909
1536.74	16.9201
1537	15.9266
1537.26	19.9407
1537.53	14.9366
1537.79	18.9508
1538.05	19.9551
1538.31	17.9398
1538.58	17.9377
1538.84	18.9333
1539.1	20.9308
1539.36	18.9206
1539.62	18.9143
1539.89	14.9036
1540.15	18.9024
1540.41	15.8941
1540.67	18.8884
1540.94	15.8798
1541.2	20.8797
1541.46	17.8793
1541.72	17.882
1541.98	18.8873
1542.25	17.8895
1542.51	18.8973
1542.77	17.899
1543.03	20.9051
1543.3	19.9047
1543.56	16.8971
1543.82	16.8967
1544.08	17.8994
1544.35	19.9043
1544.61	18.9034
1544.87	21.9036
1545.13	19.8871
1545.39	14.8792
1545.66	17.8825
1545.92	19.8912
1546.18	17.8688
1546.44	18.8469
1546.71	18.8407
1546.97	18.8505
1547.23	16.8678
1547.49	19.9025
1547.75	20.928
1548.02	20.95
1548.28	17.921
1548.54	20.9341
1548.8	16.9129
1549.06	17.909
1549.33	20.9284
1549.59	16.9189
1549.85	16.9152
1550.11	19.9213
1550.37	17.8974
1550.64	16.8898
1550.9	17.8901
1551.16	17.885
1551.42	20.8859
1551.68	20.8773
1551.94	20.8679
1552.21	20.8638
1552.47	21.8627
1552.73	19.8578
1552.99	17.8543
1553.25	19.857
1553.52	18.8507
1553.78	18.8496
1554.04	20.8531
1554.3	18.8496
1554.56	19.8505
1554.82	17.8446
1555.09	20.8446
1555.35	20.8362
1555.61	17.8264
1555.87	19.8199
1556.13	22.8132
1556.39	17.8049
1556.65	20.7991
1556.92	18.7944
1557.18	17.7906
1557.44	20.7857
1557.7	20.7827
1557.96	18.7813
1558.22	19.7792
1558.49	19.7793
1558.75	18.7824
1559.01	21.786
1559.27	20.7918
1559.53	18.7905
1559.79	20.7884
1560.05	17.7852
1560.32	19.7851
1560.58	18.7817
1560.84	18.779
1561.1	18.7848
1561.36	22.7942
1561.62	18.7929
1561.88	20.7918
1562.15	19.7786
1562.41	18.7416
1562.67	20.6831
1562.93	18.6614
1563.19	18.7445
1563.45	19.7687
1563.71	21.7557
1563.98	19.7406
1564.24	20.7561
1564.5	19.7747
1564.76	22.7698
1565.02	17.7529
1565.28	20.7532
1565.54	20.7551
1565.8	17.7555
1566.07	19.7523
1566.33	17.7441
1566.59	19.7371
1566.85	20.7353
1567.11	20.7358
1567.37	18.7362
1567.63	19.7347
1567.89	13.7366
1568.15	22.7288
1568.42	24.7239
1568.68	15.7265
1568.94	17.7199
1569.2	16.7191
1569.46	19.7119
1569.72	19.7065
1569.98	18.7036
1570.24	19.6978
1570.5	18.6948
1570.77	17.6926
1571.03	17.6917
1571.29	18.692
1571.55	20.6923
1571.81	21.695
1572.07	16.7051
1572.33	21.7039
1572.59	18.7089
1572.85	21.7068
1573.11	20.7045
1573.37	16.7057
1573.64	17.7015
1573.9	19.6919
1574.16	19.6825
1574.42	19.6735
1574.68	21.6604
1574.94	17.6618
1575.2	19.6491
1575.46	19.6438
1575.72	18.6443
1575.98	21.6336
1576.24	22.629
1576.5	20.6341
1576.76	20.634
1577.03	14.6532
1577.29	21.6335
1577.55	22.6299
1577.81	19.6361
1578.07	20.6294
1578.33	21.6215
1578.59	21.6172
1578.85	19.6181
1579.11	21.6049
1579.37	25.5871
1579.63	22.5952
1579.89	19.6036
1580.15	17.6088
1580.41	22.5873
1580.67	18.6012
1580.93	20.5897
1581.19	21.5843
1581.46	21.585
1581.72	17.6009
1581.98	21.5849
1582.24	22.5795
1582.5	21.5808
1582.76	19.5869
1583.02	20.5795
1583.28	21.5688
1583.54	18.5753
1583.8	20.561
1584.06	23.5422
1584.32	22.5431
1584.58	18.5599
1584.84	21.5423
1585.1	25.5208
1585.36	19.5517
1585.62	22.5382
1585.88	19.5546
1586.14	19.5559
1586.4	18.5618
1586.66	22.5448
1586.92	22.5444
1587.18	22.543
1587.44	22.5436
1587.7	24.5368
1587.96	20.5543
1588.22	21.5483
1588.48	20.5509
1588.74	21.5439
1589	24.5274
1589.26	23.5248
1589.52	20.53
1589.78	21.5184
1590.04	23.5032
1590.3	23.4927
1590.56	20.4993
1590.82	24.4633
1591.08	23.4619
1591.34	24.4504
1591.6	21.4693
1591.86	21.4707
1592.12	21.4741
1592.38	23.4632
1592.64	21.4748
1592.9	21.4628
1593.16	23.4474
1593.42	22.4529
1593.68	19.4721
1593.94	23.4446
1594.2	24.4384
1594.46	21.4591
1594.72	23.4468
1594.98	23.4449
1595.24	19.4677
1595.5	23.4354
1595.76	23.4273
1596.02	23.4199
1596.28	23.4139
1596.54	23.4083
1596.8	22.4106
1597.06	22.4052
1597.32	18.4325
1597.58	20.4106
1597.84	21.3953
1598.1	22.378
1598.36	21.3779
1598.62	22.3596
1598.88	21.3615
1599.14	20.3654
1599.4	24.319
1599.66	22.3329
1599.92	25.2938
1600.18	24.2974
1600.44	24.2913
1600.7	24.2867
1600.96	20.3282
1601.22	26.2587
1601.48	23.2916
1601.73	30.2124
1601.99	22.3012
1602.25	24.278
1602.51	26.2553
1602.77	25.2674
1603.03	26.2582
1603.29	21.3148
1603.55	23.2951
1603.81	25.2751
1604.07	20.3288
1604.33	22.3071
1604.59	24.2845
1604.85	28.24
1605.11	23.2911
1605.37	19.3318
1605.63	25.2664
1605.89	21.3058
1606.14	23.2767
1606.4	27.2228
1606.66	24.2487
1606.92	26.2163
1607.18	21.2887
1607.44	22.2377
1607.7	22.2947
1607.96	21.3661
1608.22	23.4041
1608.48	25.2078
1608.74	25.1376
1609	27.2133
1609.26	29.4176
1609.51	27.0961
1609.77	21.6419
1610.03	26.2583
1610.29	23.5469
1610.55	26.5602
1610.81	24.1612
1611.07	24.0928
1611.33	22.4194
1611.59	26.1669
1611.85	20.9052
1612.11	26.2713
1612.36	22.8739
1612.62	24.9954
1612.88	24.9282
1613.14	24.2417
1613.4	23.2384
1613.66	26.9177
1613.92	23.7348
1614.18	24.6892
1614.44	24.5698
1614.7	27.3234
1614.95	25.6464
1615.21	26.0989
1615.47	24.329
1615.73	26.8263
1615.99	28.9676
1616.25	22.5631
1616.51	27.2533
1616.77	26.1848
1617.03	27.5417
1617.28	26.1902
1617.54	24.4838
1617.8	23.0742
1618.06	24.5091
1618.32	26.501
1618.58	25.8934
1618.84	28.7264
1619.1	26.6026
1619.35	26.0079
1619.61	27.6322
1619.87	25.4728
1620.13	25.058
1620.39	26.1649
1620.65	26.4379
1620.91	26.3621
1621.17	25.3457
1621.42	26.5693
1621.68	26.7539
1621.94	25.7939
1622.2	25.3181
1622.46	26.7998
1622.72	26.6904
1622.98	29.5397
1623.23	28.5927
1623.49	26.744
1623.75	25.1315
1624.01	25.584
1624.27	26.4548
1624.53	26.892
1624.79	27.3471
1625.04	28.0898
1625.3	28.2249
1625.56	27.8432
1625.82	24.2326
1626.08	26.9347
1626.34	28.5504
1626.59	28.2697
1626.85	29.4851
1627.11	26.3073
1627.37	28.0711
1627.63	28.2341
1627.89	27.8078
1628.14	26.5616
1628.4	26.5098
1628.66	27.2186
1628.92	28.2044
1629.18	28.1705
1629.44	23.742
1629.69	25.2045
1629.95	29.4609
1630.21	29.232
1630.47	28.4277
1630.73	24.9342
1630.99	26.8612
1631.24	25.6766
1631.29	25.3242
1631.55	27.296
1631.81	29.2671
1632.07	26.3089
1632.33	28.2784
1632.59	31.2326
1632.86	29.2584
1633.12	30.2401
1633.38	26.2947
1633.64	28.2611
1633.9	23.3315
1634.16	29.2361
1634.42	23.3228
1634.68	31.1973
1634.95	24.3032
1635.21	31.1917
1635.47	28.2348
1635.73	26.2641
1635.99	27.248
1636.25	24.2943
1636.51	32.1682
1636.77	30.1986
1637.03	30.1973
1637.3	27.2428
1637.56	27.2444
1637.82	31.1868
1638.08	28.2356
1638.34	25.2812
1638.6	31.1861
1638.86	29.2134
1639.12	30.1953
1639.39	28.2244
1639.65	27.2381
1639.91	31.1738
1640.17	29.2034
1640.43	33.1395
1640.69	27.232
1640.95	29.1973
1641.21	27.2252
1641.47	27.2199
1641.73	27.2168
1641.99	28.1991
1642.25	30.1699
1642.52	25.2521
1642.78	29.19
1643.04	27.2204
1643.3	25.2488
1643.56	25.2453
1643.82	27.2096
1644.08	31.1425
1644.34	26.2199
1644.6	30.1509
1644.86	27.1972
1645.12	27.1969
1645.38	32.1145
1645.65	26.2184
1645.91	31.1423
1646.17	32.1453
1646.43	27.2215
1646.69	29.1876
1646.95	29.1831
1647.21	27.2152
1647.47	30.1788
1647.73	25.2586
1647.99	31.1737
1648.25	28.2228
1648.51	28.2252
1648.77	28.2256
1649.03	25.2685
1649.29	25.268
1649.55	27.2396
1649.82	26.2495
1650.08	30.1872
1650.34	34.1264
1650.6	24.2738
1650.86	28.2157
1651.12	27.2327
1651.38	30.1898
1651.64	27.2338
1651.9	27.2353
1652.16	32.1672
1652.42	27.2437
1652.68	25.2787
1652.94	27.2601
1653.2	26.2781
1653.46	30.2291
1653.72	26.2823
1653.98	25.2953
1654.24	28.2548
1654.5	28.2516
1654.76	26.2743
1655.02	27.2588
1655.28	28.2427
1655.54	30.2121
1655.81	28.2342
1656.07	24.2841
1656.33	28.2248
1656.58	29.2061
1656.84	27.2289
1657.11	24.2671
1657.37	29.198
1657.63	25.2572
1657.89	29.2052
1658.15	27.237
1658.41	25.2684
1658.67	30.2056
1658.93	26.2611
1659.19	27.2395
1659.45	25.2633
1659.71	30.2456
1659.97	29.273
1660.23	28.2714
1660.49	28.2703
1660.75	28.2418
1661.01	26.2398
1661.27	25.273
1661.53	24.2891
1661.79	23.3061
1662.05	28.2565
1662.31	26.2774
1662.57	23.2794
1662.83	26.2503
1663.09	26.297
1663.35	28.2743
1663.61	28.2774
1663.87	23.2613
1664.13	24.2367
1664.39	27.2396
1664.65	28.22
1664.91	28.216
1665.17	25.2513
1665.43	27.2203
1665.69	26.2359
1665.95	23.2887
1666.21	28.2354
1666.47	28.2367
1666.72	25.2735
1666.99	26.2616
1667.25	23.2933
1667.51	25.2721
1667.76	28.2512
1668.02	28.2543
1668.28	27.2623
1668.54	24.2949
1668.8	27.2581
1669.06	23.3062
1669.32	27.2609
1669.58	23.3069
1669.84	26.2713
1670.1	26.2709
1670.36	28.2481
1670.62	24.2943
1670.88	22.3181
1671.14	26.2751
1671.4	25.2892
1671.66	25.2913
1671.92	25.294
1672.18	25.2985
1672.44	25.301
1672.7	26.2918
1672.96	26.2909
1673.22	26.2899
1673.48	27.2802
1673.74	23.322
1674	24.3115
1674.25	27.2794
1674.51	24.308
1674.77	27.2737
1675.03	22.3217
1675.29	24.295
1675.55	28.2452
1675.81	23.2957
1676.07	23.2921
1676.33	24.2773
1676.59	23.2863
1676.85	27.2368
1677.11	23.2803
1677.37	25.2544
1677.63	28.2154
1677.89	23.2718
1678.15	26.2332
1678.4	24.2557
1678.66	22.2788
1678.92	27.2175
1679.18	24.2531
1679.44	23.2648
1679.7	22.2764
1679.96	23.2627
1680.22	19.3099
1680.48	26.2241
1680.74	22.2718
1681	23.2581
1681.25	22.2677
1681.51	26.2145
1681.77	24.2368
1682.03	27.1975
1682.29	24.2336
1682.55	23.2451
1682.81	23.2443
1683.07	23.2439
1683.33	22.2565
1683.59	24.2336
1683.84	23.2493
1684.1	25.2262
1684.36	23.2496
1684.62	22.2592
1684.88	22.2559
1685.14	26.2033
1685.4	21.2626
1685.66	22.2469
1685.92	25.2042
1686.18	24.2116
1686.43	21.2463
1686.69	25.1886
1686.95	19.264
1687.21	23.2044
1687.47	23.2053
1687.73	23.2088
1687.99	24.1973
1688.25	23.2118
1688.51	23.212
1688.76	18.28
1689.02	22.2281
1689.28	25.1879
1689.54	23.2117
1689.8	20.2469
1690.06	22.2155
1690.32	23.1959
1690.58	21.2169
1690.84	21.21
1691.09	25.1482
1691.35	20.2156
1691.61	22.1811
1691.87	25.1327
1692.13	21.1925
1692.39	23.1634
1692.64	21.1935
1692.9	21.1941
1693.16	23.1654
1693.42	19.2265
1693.68	18.2415
1693.94	19.2257
1694.2	22.1789
1694.46	24.144
1694.71	22.1672
1694.97	18.2224
1695.23	20.1871
1695.49	21.1675
1695.75	19.1952
1696.01	21.1602
1696.26	19.1904
1696.52	18.2056
1696.78	20.1739
1697.04	21.1573
1697.3	22.1402
1697.56	20.168
1697.81	23.1181
1698.07	20.1651
1698.33	21.1468
1698.59	25.0782
1698.85	21.1396
1699.11	18.1852
1699.37	17.1983
1699.62	23.0914
1699.88	21.1219
1700.14	22.1029
1700.4	23.084
1700.66	23.0816
1700.91	21.114
1701.17	19.148
1701.43	21.1143
1701.69	22.0984
1701.95	18.1672
1702.21	19.1482
1702.46	16.1989
1702.72	21.1111
1702.98	21.1095
1703.24	19.1405
1703.5	20.1179
1703.75	20.1126
1704.01	19.1253
1704.27	20.1017
1704.53	20.0965
1704.79	20.0903
1705.04	18.1222
1705.3	20.0767
1705.56	20.0694
1705.82	21.0414
1706.08	19.076
1706.33	21.0297
1706.59	19.0684
1706.85	18.0877
1707.11	17.108
1707.37	21.0235
1707.62	18.0865
1707.88	20.046
1708.14	15.1515
1708.4	21.0282
1708.66	19.0704
1708.91	18.0913
1709.17	20.0493
1709.43	20.0457
1709.69	17.1015
1709.95	17.094
1710.2	20.0206
1710.46	17.0796
1710.72	17.0721
1710.98	21.9519
1711.23	18.04
1711.49	18.0372
1711.75	16.0815
1712.01	18.0334
1712.27	18.0326
1712.52	20.9674
1712.78	19.0151
1713.04	19.9909
1713.3	19.0113
1713.55	19.0076
1713.81	19.9792
1714.07	19.9727
1714.33	15.0852
1714.58	18.0046
1714.84	20.92
1715.1	20.9113
1715.36	18.9542
1715.61	17.9742
1715.87	14.0751
1716.13	17.9676
1716.39	13.0988
1716.64	22.834
1716.9	17.964
1717.16	17.9656
1717.42	17.9646
1717.68	17.9617
1717.93	17.9575
1718.19	20.8708
1718.45	19.8938
1718.71	16.9708
1718.96	18.9112
1719.22	19.8781
1719.48	18.9005
1719.74	17.9234
1719.99	18.8902
1720.25	15.9718
1720.51	17.9109
1720.76	18.8796
1721.02	17.908
1721.28	19.8472
1721.54	16.933
1721.79	15.9583
1722.05	17.894
1722.31	17.8861
1722.56	16.9098
1722.82	16.9031
1723.08	17.8682
1723.34	18.8352
1723.59	19.805
1723.85	19.8021
1724.11	17.8601
1724.37	17.8538
1724.62	18.8228
1724.88	16.8881
1725.14	14.9482
1725.39	16.8813
1725.65	17.8386
1725.91	18.779
1726.17	17.7893
1726.42	15.8546
1726.68	17.7938
1726.94	19.7333
1727.19	18.7689
1727.45	14.8963
1727.71	16.823
1727.96	15.8608
1728.22	14.9062
1728.48	17.8056
1728.74	15.8721
1728.99	16.8373
1729.25	16.8354
1729.51	17.7994
1729.76	17.7966
1730.02	15.861
1730.28	17.7882
1730.53	19.7128
1730.79	14.8789
1731.05	18.7315
1731.3	15.8322
1731.56	15.8266
1731.82	15.821
1732.08	16.7788
1732.33	17.7362
1732.59	18.694
1732.85	16.7643
1733.1	15.7989
1733.36	15.7968
1733.62	15.7943
1733.87	17.7161
1734.13	18.6751
1734.39	14.8239
1734.64	18.6688
1734.9	18.6656
1735.16	18.6614
1735.41	18.6568
1735.67	14.8079
1735.93	17.6869
1736.18	17.6819
1736.44	19.5967
1736.7	15.7483
1736.95	20.5385
1737.21	17.6522
1737.47	16.6864
1737.72	15.7225
1737.98	14.76
1738.24	14.7561
1738.49	18.5838
1738.75	15.7065
1739.01	17.6186
1739.26	18.5738
1739.52	14.7426
1739.78	16.6551
1740.03	17.61
1740.29	14.7369
1740.54	17.6074
1740.8	17.6043
1741.06	16.6429
1741.31	15.6833
1741.57	17.5932
1741.83	14.7225
1742.08	15.6783
1742.34	16.6344
1742.6	13.764
1742.85	16.6317
1743.11	16.6286
1743.36	16.6244
1743.62	14.7076
1743.88	15.6581
1744.13	14.699
1744.39	15.6488
1744.65	17.5549
1744.9	14.6861
1745.16	16.5937
1745.42	14.6837
1745.67	18.5015
1745.93	16.5925
1746.18	13.7289
1746.44	15.6395
1746.7	13.7314
1746.95	13.7333
1747.21	16.6019
1747.46	12.7823
1747.72	15.6515
1747.98	15.6516
1748.23	17.5647
1748.49	15.6518
1748.74	19.4718
1749	15.643
1749.26	14.6827
1749.51	15.634
1749.77	14.6752
1750.02	18.4898
1750.28	16.5764
1750.54	15.6185
1750.79	15.6153
1751.05	16.5659
1751.31	15.6079
1751.56	15.6041
1751.82	16.5545
1752.07	13.6919
1752.33	16.5491
1752.59	16.5462
1752.84	14.6369
1753.1	19.3962
1753.35	16.5336
1753.61	16.5284
1753.86	15.5707
1754.12	17.4684
1754.38	15.561
1754.63	15.5585
1754.89	17.4589
1755.14	13.6555
1755.4	13.6579
1755.66	16.5127
1755.91	14.6092
1756.17	16.5118
1756.42	16.5115
1756.68	13.6564
1756.93	16.51
1757.19	14.605
1757.44	14.6031
1757.7	16.5037
1757.96	15.5497
1758.21	16.4974
1758.47	15.5427
1758.72	16.4903
1758.98	14.5867
1759.23	17.4365
1759.49	13.634
1759.75	14.5861
1760	15.5374
1760.26	16.4874
1760.51	16.4864
1760.77	17.4372
1761.02	14.5851
1761.28	16.4881
1761.53	17.4434
1761.79	16.496
1762.05	16.4978
1762.3	15.5471
1762.56	15.5477
1762.81	17.4519
1763.07	15.5475
1763.32	18.4029
1763.58	16.4974
1763.83	13.6394
1764.09	16.4939
1764.34	13.637
1764.6	13.6351
1764.85	14.5839
1765.11	12.6784
1765.37	16.4816
1765.62	16.4805
1765.88	13.6235
1766.13	16.4684
1766.39	15.5093
1766.64	17.3999
1766.9	16.4466
1767.15	17.3964
1767.41	14.5516
1767.66	16.4527
1767.92	18.3526
1768.17	16.4533
1768.43	13.6067
1768.68	15.5117
1768.94	15.5117
1769.19	16.4633
1769.45	16.4657
1769.7	15.5169
1769.96	15.5182
1770.21	15.5193
1770.47	17.4237
1770.72	16.4729
1770.98	16.4737
1771.23	15.5222
1771.49	15.5223
1771.74	14.5704
1772	15.524
1772.26	14.5722
1772.51	20.2903
1772.76	14.5806
1773.02	14.5827
1773.27	14.5834
1773.53	15.5362
1773.78	14.5812
1774.04	18.3911
1774.29	13.6225
1774.55	15.5261
1774.8	17.428
1775.06	14.5667
1775.31	13.611
1775.57	16.4644
1775.82	16.4601
1776.08	13.6
1776.33	15.499
1776.59	14.5451
1776.84	14.5453
1777.1	16.4513
1777.35	15.4999
1777.61	16.4522
1777.86	14.5492
1778.12	17.4055
1778.37	14.5492
1778.63	15.5014
1778.88	12.6458
1779.13	15.5037
1779.39	17.4108
1779.65	16.461
1779.9	15.5097
1780.15	13.6048
1780.41	14.5587
1780.66	15.5131
1780.92	13.6077
1781.17	17.423
1781.43	13.611
1781.68	16.475
1781.94	15.5224
1782.19	16.4767
1782.45	15.5217
1782.7	13.6119
1782.95	15.5176
1783.21	12.6543
1783.46	18.3775
1783.72	13.6086
1783.97	13.6103
1784.23	15.5215
1784.48	15.5252
1784.74	13.621
1784.99	12.6725
1785.24	16.5053
1785.5	16.514
1785.75	14.604
1786.01	14.6058
1786.26	15.5671
1786.52	15.5716
1786.77	16.5323
1787.03	16.5336
1787.28	14.6181
1787.54	16.5361
1787.79	17.4938
1788.04	14.6166
1788.3	15.5676
1788.55	15.561
1788.81	17.4742
1789.06	12.6842
1789.31	15.5569
1789.57	16.5144
1789.82	13.6418
1790.08	14.6005
1790.33	16.517
1790.59	16.5159
1790.84	13.6424
1791.09	12.6846
1791.35	15.5594
1791.6	15.5571
1791.86	13.6387
1792.11	15.5625
1792.36	14.6131
1792.62	15.5782
1792.87	14.6207
1793.13	14.6224
1793.38	13.6641
1793.64	15.5868
1793.89	15.5892
1794.14	13.6698
1794.4	16.5546
1794.65	13.6728
1794.9	14.6351
1795.16	13.6745
1795.41	13.6749
1795.67	12.7133
1795.92	15.5971
1796.17	14.6338
1796.43	11.7473
1796.68	14.6283
1796.94	14.6247
1797.19	15.5826
1797.44	14.6191
1797.7	16.5381
1797.95	14.615
1798.21	13.653
1798.46	15.573
1798.71	16.533
1798.97	14.6119
1799.22	14.6123
1799.47	13.6524
1799.73	13.6536
1799.98	15.5773
1800.24	14.6185
1800.49	14.6209
1800.74	15.584
1801	15.5843
1801.25	15.5844
1801.5	15.5862
1801.76	13.6642
1802.01	15.5905
1802.27	12.7059
1802.52	14.6338
1802.77	13.6735
1803.03	15.602
1803.28	14.6404
1803.53	15.6055
1803.79	15.6067
1804.04	13.6796
1804.29	16.5705
1804.55	12.7147
1804.8	14.6416
1805.05	15.605
1805.31	15.6046
1805.56	14.6404
1805.81	15.6041
1806.07	12.7121
1806.32	12.7119
1806.58	14.6397
1806.83	15.6037
1807.08	15.6036
1807.34	13.6751
1807.59	14.6385
1807.84	16.5652
1808.1	15.5997
1808.35	15.5989
1808.6	12.7057
1808.86	13.6689
1809.11	15.5967
1809.36	15.597
1809.62	12.7053
1809.87	15.5998
1810.12	14.6372
1810.38	16.5673
1810.63	14.6384
1810.88	14.6401
1811.14	13.6777
1811.39	14.6458
1811.64	13.684
1811.9	14.6529
1812.15	15.6211
1812.4	14.656
1812.65	17.5557
1812.91	13.6898
1813.16	17.5561
1813.41	13.6897
1813.67	15.6238
1813.92	15.6231
1814.17	16.5886
1814.43	16.5834
1814.68	12.7111
1814.93	14.6397
1815.19	13.6745
1815.44	13.6765
1815.69	15.6125
1815.95	14.6457
1816.2	14.645
1816.45	16.5786
1816.7	14.6468
1816.96	13.6808
1817.21	14.6482
1817.46	14.6493
1817.72	14.6505
1817.97	14.6511
1818.22	16.5865
1818.47	15.6208
1818.73	11.7521
1818.98	13.6884
1819.23	16.5927
1819.49	12.7216
1819.74	17.5616
1819.99	11.7536
1820.24	16.5939
1820.5	13.6881
1820.75	13.6863
1821	17.5556
1821.26	13.6838
1821.51	15.6202
1821.76	16.5889
1822.01	13.6852
1822.27	17.5589
1822.52	15.6233
1822.77	16.5919
1823.03	17.5597
1823.28	16.5905
1823.53	12.7164
1823.78	11.7475
1824.04	13.6841
1824.29	13.6845
1824.54	13.6851
1824.79	15.6236
1825.05	12.7175
1825.3	14.6541
1825.55	14.6529
1825.8	15.6191
1826.06	16.5848
1826.31	12.7089
1826.56	11.7393
1826.81	14.6435
1827.07	14.6419
1827.32	14.6391
1827.57	15.6053
1827.82	13.6667
1828.08	15.6031
1828.33	9.79473
1828.58	17.5426
1828.83	13.67
1829.09	14.6396
1829.34	15.6096
1829.59	12.7042
1829.84	14.6446
1830.1	15.6147
1830.35	14.6445
1830.6	18.5216
1830.85	14.6452
1831.11	15.6143
1831.36	15.6146
1831.61	14.6388
1831.86	13.6614
1832.12	16.5589
1832.37	14.6157
1832.62	13.644
1832.87	13.6399
1833.13	14.607
1833.38	15.5758
1833.63	14.6745
1833.88	14.6502
1834.13	11.7255
1834.39	15.5969
1834.64	14.616
1834.89	13.6386
1835.14	13.6243
1835.39	13.6178
1835.65	13.6204
1835.9	13.6436
1836.15	13.6486
1836.4	14.621
1836.65	15.5908
1836.91	16.5618
1837.16	13.6539
1837.41	15.576
1837.66	15.5658
1837.92	15.5565
1838.17	16.515
1838.42	13.6085
1838.67	13.602
1838.92	17.4575
1839.18	11.6608
1839.43	14.5503
1839.68	12.6179
1839.93	13.5834
1840.18	14.5464
1840.43	12.6178
1840.69	13.5814
1840.94	15.5095
1841.19	12.614
1841.44	13.5783
1841.7	15.5082
1841.95	15.5069
1842.2	12.611
1842.45	13.5752
1842.7	13.5762
1842.95	15.5113
1843.2	13.586
1843.46	14.5578
1843.71	14.5613
1843.96	13.5833
1844.21	14.5265
1844.46	17.3967
1844.72	15.4671
1844.97	14.5063
1845.22	12.5862
1845.47	12.5871
1845.72	13.544
1845.97	15.4669
1846.23	14.5027
1846.48	11.6111
1846.73	14.4939
1846.98	14.4889
1847.23	12.5601
1847.48	15.4393
1847.74	14.4732
1847.99	15.4299
1848.24	14.4654
1848.49	13.5018
1848.74	14.4597
1848.99	15.418
1849.25	14.4566
1849.5	16.3763
1849.75	13.4949
1850	14.4543
1850.25	12.5326
1850.5	15.4114
1850.75	14.4487
1851.01	15.4046
1851.26	13.4804
1851.51	15.3936
1851.76	15.3893
1852.01	15.3868
1852.26	15.3832
1852.51	16.3357
1852.76	13.4562
1853.02	13.4538
1853.27	14.4098
1853.52	16.3242
1853.77	13.4502
1854.02	14.407
1854.27	14.4056
1854.52	15.361
1854.78	13.4434
1855.03	13.441
1855.28	14.3953
1855.53	13.4346
1855.78	13.4308
1856.03	14.3837
1856.28	10.554
1856.53	12.4629
1856.79	14.3727
1857.04	15.3283
1857.29	15.3273
1857.54	13.4161
1857.79	15.3309
1858.04	15.3323
1858.29	12.464
1858.54	13.4226
1858.79	17.2514
1859.04	14.38
1859.3	15.335
1859.55	16.2883
1859.8	15.3275
1860.05	15.3232
1860.3	15.319
1860.55	16.2707
1860.8	15.311
1861.05	15.3075
1861.3	13.3935
1861.56	16.2559
1861.81	16.2523
1862.06	14.3386
1862.31	12.4251
1862.56	14.329
1862.81	15.2773
1863.06	16.2241
1863.31	13.3574
1863.56	14.3038
1863.81	16.2019
1864.06	11.4351
1864.32	14.2844
1864.57	14.2786
1864.82	15.2252
1865.07	14.2717
1865.32	14.2696
1865.57	13.3175
1865.82	14.2681
1866.07	18.071
1866.32	14.2669
1866.57	14.2653
1866.82	14.2637
1867.07	16.1633
1867.32	16.1618
1867.57	14.2594
1867.83	16.159
1868.08	11.406
1868.33	15.2066
1868.58	14.2542
1868.83	12.3514
1869.08	12.3485
1869.33	15.1963
1869.58	14.2441
1869.83	11.3917
1870.08	15.1865
1870.33	16.1335
1870.58	13.2844
1870.83	15.1808
1871.08	14.2287
1871.33	13.2763
1871.58	13.2726
1871.84	12.3201
1872.08	15.1608
1872.33	14.2081
1872.59	12.308
1872.84	15.1441
1873.09	14.1885
1873.34	14.1834
1873.59	16.071
1873.84	12.2832
1874.09	15.1172
1874.34	11.3273
1874.59	15.0965
1874.84	15.0843
1875.09	14.1633
1875.34	15.1491
1875.59	13.229
1875.84	16.0646
1876.09	14.1735
1876.34	14.1858
1876.59	15.1353
1876.84	12.288
1877.09	13.2313
1877.34	15.1238
1877.59	16.0699
1877.84	14.1774
1878.09	13.227
1878.34	16.0643
1878.59	13.2179
1878.84	15.1021
1879.09	14.1486
1879.34	16.9743
1879.59	14.1311
1879.84	14.1224
1880.1	12.2298
1880.34	16.0247
1880.59	19.8709
1880.84	14.1255
1881.1	15.0435
1881.34	13.162
1881.59	18.8217
1881.84	13.1603
1882.1	15.9943
1882.34	13.1696
1882.59	17.8883
1882.85	13.173
1883.1	15.0659
1883.34	14.1239
1883.59	16.9575
1883.85	15.0647
1884.09	16.0028
1884.34	15.9985
1884.59	15.994
1884.84	14.1029
1885.09	13.1556
1885.34	15.0361
1885.59	14.0874
1885.84	14.0821
1886.09	15.9603
1886.34	14.0725
1886.59	13.129
1886.84	15.0102
1887.09	13.1268
1887.34	15.9524
1887.59	14.0722
1887.84	14.0738
1888.09	14.0736
1888.34	14.0718
1888.59	15.9539
1888.84	14.0691
1889.09	15.0091
1889.34	14.0663
1889.59	15.0061
1889.84	15.003
1890.09	14.0576
1890.34	12.169
1890.59	14.0423
1890.84	12.156
1891.09	14.977
1891.34	14.9744
1891.59	13.0902
1891.84	13.0876
1892.09	14.9654
1892.34	15.9048
1892.59	14.9659
1892.83	14.0271
1893.08	14.028
1893.33	14.9691
1893.58	14.031
1893.83	15.9135
1894.08	14.9748
1894.33	15.9164
1894.58	16.8575
1894.83	12.154
1895.08	13.0936
1895.33	13.0919
1895.58	15.9108
1895.83	15.9071
1896.08	12.1423
1896.33	14.0183
1896.58	14.9552
1896.83	15.8926
1897.08	12.1318
1897.32	14.0087
1897.57	14.9471
1897.82	14.0079
1898.07	14.9483
1898.32	13.0711
1898.57	12.133
1898.82	13.0748
1899.07	15.8974
1899.32	14.9605
1899.57	14.0211
1899.82	14.0198
1900.07	11.1962
1900.31	14.0156
1900.57	14.9537
1900.81	12.131
1901.06	12.1296
1901.31	14.0088
1901.56	14.0077
1901.81	14.9466
1902.06	14.0049
1902.31	17.7641
1902.56	15.883
1902.81	14.941
1903.06	13.9946
1903.31	14.9302
1903.55	14.9276
1903.8	13.986
1904.05	13.045
1904.3	13.9825
1904.55	12.1045
1904.8	15.8606
1905.05	15.8632
1905.3	13.0464
1905.55	14.9254
1905.79	12.107
1906.04	14.9269
1906.29	15.8685
1906.54	13.9911
1906.79	14.9345
1907.04	14.9383
1907.29	14.9426
1907.54	15.8884
1907.79	11.1842
1908.04	14.9527
1908.28	12.1283
1908.53	14.9545
1908.78	14.9541
1909.03	13.0691
1909.28	14.009
1909.53	10.2404
1909.78	14.9487
1910.03	14.0062
1910.27	14.0055
1910.52	15.8894
1910.77	14.9499
1911.02	14.0116
1911.27	13.0723
1911.52	12.1311
1911.77	14.0193
1912.02	14.0215
1912.26	14.0234
1912.51	14.0243
1912.76	14.9677
1913.01	13.079
1913.26	13.077
1913.51	12.1325
1913.76	14.0158
1914	14.0123
1914.25	14.0094
1914.5	14.0068
1914.75	14.9477
1915	14.0035
1915.25	12.1182
1915.49	14.0055
1915.74	15.8945
1915.99	13.0679
1916.24	14.0149
1916.49	16.8509
1916.74	15.9135
1916.99	14.0277
1917.23	12.1391
1917.48	13.0832
1917.73	16.8593
1917.98	14.9721
1918.23	14.9755
1918.48	13.0876
1918.72	12.1426
1918.97	14.0353
1919.22	14.9811
1919.47	12.1427
1919.72	16.869
1919.97	14.0289
1920.21	15.9172
1920.46	14.0246
1920.71	13.0776
1920.96	14.9659
1921.21	15.9078
1921.46	13.0697
1921.7	15.9021
1921.95	14.9565
1922.2	13.0672
1922.45	13.0686
1922.7	15.9065
1922.94	13.0744
1923.19	13.0771
1923.44	10.2417
1923.69	13.0827
1923.94	15.9256
1924.19	14.0341
1924.43	13.0885
1924.68	15.9306
1924.93	13.0904
1925.18	12.1439
1925.43	14.0391
1925.67	12.1446
1925.92	14.9883
1926.17	14.9896
1926.42	14.9915
1926.66	12.1502
1926.91	15.9469
1927.16	10.2582
1927.41	13.1073
1927.66	14.0589
1927.91	15.9602
1928.15	15.0106
1928.4	15.0099
1928.65	18.8051
1928.9	15.9542
1929.15	15.9514
1929.39	14.9995
1929.64	15.9455
1929.89	14.994
1930.14	14.9926
1930.38	14.9904
1930.63	16.8893
1930.88	14.0475
1931.13	14.0544
1931.37	16.9146
1931.62	15.0267
1931.87	14.0861
1932.12	13.1425
1932.37	15.0555
1932.61	16.0149
1932.86	15.0616
1933.11	15.0515
1933.36	15.0506
1933.61	16.0016
1933.85	15.9985
1934.1	14.089
1934.35	13.1326
1934.6	12.1771
1934.84	15.03
1935.09	16.9302
1935.34	15.9753
1935.59	14.0727
1935.83	11.22
1936.08	14.0771
1936.33	12.1739
1936.58	14.0801
1936.82	15.9866
1937.07	15.9881
1937.32	15.9887
1937.57	14.0859
1937.81	16.9507
1938.06	13.144
1938.31	15.0551
1938.56	16.0077
1938.8	13.1416
1939.05	12.1815
1939.3	16.9435
1939.55	14.0915
1939.79	15.0571
1940.04	15.0582
1940.29	12.1917
1940.54	17.9116
1940.78	15.9957
1941.03	17.9021
1941.28	14.0937
1941.52	13.1409
1941.77	16.0076
1942.02	13.1454
1942.27	14.1032
1942.51	13.1504
1942.76	14.1085
1943.01	15.0667
1943.26	14.1125
1943.5	13.1574
1943.75	16.0271
1944	13.1576
1944.24	15.0691
1944.49	15.067
1944.74	13.1527
1944.99	15.0642
1945.23	14.1072
1945.48	11.2374
1945.73	15.0609
1945.97	15.0617
1946.22	14.1074
1946.47	13.1529
1946.71	13.1551
1946.96	15.072
1947.21	15.076
1947.46	13.1662
1947.7	15.0875
1947.95	14.1336
1948.2	12.2205
1948.44	17.981
1948.69	14.1476
1948.94	17.0307
1949.19	12.2321
1949.43	16.0746
1949.68	15.1149
1949.93	16.0752
1950.17	17.0386
1950.42	16.0783
1950.67	15.1121
1950.91	14.1443
1951.16	14.135
1951.41	14.1266
1951.65	15.0774
1951.9	13.1554
1952.15	15.0693
1952.39	14.1109
1952.64	13.1545
1952.89	12.1996
1953.14	13.1643
1953.38	13.1708
1953.63	15.0936
1953.88	15.0969
1954.12	16.0595
1954.37	17.0229
1954.62	17.0256
1954.86	17.0279
1955.11	17.0294
1955.36	14.1469
1955.6	17.0306
1955.85	16.0688
1956.1	14.144
1956.34	14.1411
1956.59	16.061
1956.84	15.0983
1957.08	15.0953
1957.33	17.0132
1957.58	12.2082
1957.82	14.1257
1958.07	14.1224
1958.31	15.0792
1958.56	15.0765
1958.81	16.9943
1959.05	15.075
1959.3	16.9945
1959.55	14.1151
1959.79	14.115
1960.04	16.0347
1960.29	12.1949
1960.53	14.1146
1960.78	14.1144
1961.03	14.1148
1961.27	15.076
1961.52	15.0762
1961.77	16.0351
1962.01	14.1134
1962.26	14.1127
1962.5	14.1117
1962.75	14.1117
1963	13.1526
1963.24	15.0757
1963.49	14.1176
1963.74	16.0416
1963.98	16.0433
1964.23	15.0824
1964.48	15.0815
1964.72	13.159
1964.97	16.0432
1965.21	16.0429
1965.46	13.1587
1965.71	14.1187
1965.95	15.0776
1966.2	15.0738
1966.44	16.0298
1966.69	15.0634
1966.94	12.1776
1967.18	15.0539
1967.43	16.0102
1967.68	14.0881
1967.92	16.0037
1968.17	10.2448
1968.41	15.9986
1968.66	15.0372
1968.91	15.0358
1969.15	14.0777
1969.4	16.9561
1969.64	12.1591
1969.89	15.0359
1970.14	14.0743
1970.38	16.948
1970.63	14.067
1970.87	15.0227
1971.12	14.0618
1971.37	15.9771
1971.61	15.9761
1971.86	15.9757
1972.1	14.0586
1972.35	16.9353
1972.6	12.143
1972.84	15.98
1973.09	15.0222
1973.33	15.0228
1973.58	15.0229
1973.82	15.0226
1974.07	17.8995
1974.32	13.102
1974.56	12.1411
1974.81	15.0159
1975.05	14.0538
1975.3	15.0096
1975.55	16.9242
1975.79	14.0464
1976.04	15.9621
1976.28	12.1277
1976.53	15.003
1976.77	15.0023
1977.02	12.1266
1977.26	15.96
1977.51	15.9571
1977.76	12.1203
1978	13.076
1978.25	14.9904
1978.49	14.0294
1978.74	15.9432
1978.98	14.026
1979.23	15.9404
1979.48	14.0233
1979.72	16.8925
1979.97	14.0169
1980.21	14.9696
1980.46	14.0077
1980.7	13.0479
1980.95	16.8727
1981.19	13.0446
1981.44	13.0425
1981.69	16.8659
1981.93	13.0386
1982.18	15.9033
1982.42	16.8544
1982.67	16.8527
1982.91	13.0294
1983.16	15.8974
1983.4	13.9872
1983.65	13.0325
1983.89	15.901
1984.14	14.9434
1984.38	17.8126
1984.63	13.9829
1984.88	17.8009
1985.12	13.9724
1985.37	16.8312
1985.61	14.9131
1985.86	15.8546
1986.1	16.7971
1986.35	15.8342
1986.59	12.9689
1986.84	13.9166
1987.08	12.9618
1987.33	15.8165
1987.57	13.9145
1987.82	16.7774
1988.06	15.8279
1988.31	14.8787
1988.55	14.8831
1988.8	14.8722
1989.04	13.943
1989.29	13.9767
1989.53	15.7759
1989.78	14.832
1990.02	15.7396
1990.27	14.797
1990.52	16.5
1990.76	15.6725
1991.01	15.7421
1991.25	15.7284
1991.49	14.0395
1991.74	16.47
1991.99	14.8496
1992.23	14.8849
1992.47	14.0349
1992.72	16.5272
1992.97	16.4077
1993.21	14.7192
1993.45	13.1691
1993.7	15.1365
1993.95	16.8371
1994.19	16.7737
1994.43	16.3085
1994.68	13.3892
1994.93	16.1681
1995.17	14.3817
1995.41	16.3084
1995.66	15.7605
1995.9	14.3622
1996.15	15.5523
1996.39	15.4749
1996.64	12.9689
1996.88	13.6967
1997.13	14.728
1997.37	14.208
1997.62	13.3775
1997.86	14.2401
1998.11	15.5457
1998.35	14.9625
1998.6	15.5204
1998.84	15.5732
1999.09	14.5681
1999.33	14.5585
1999.57	13.4898
1999.82	16.2352
2000.06	14.3548
2000.31	15.3852
2000.55	15.346
2000.8	16.2947
2001.04	13.9278
2001.29	15.7014
2001.53	14.9276
2001.78	16.2329
2002.02	14.4167
2002.27	14.7252
2002.51	15.2054
2002.75	14.7557
2003	14.0632
2003.24	15.0978
2003.49	15.8107
2003.73	15.0787
2003.98	15.5766
2004.22	15.6338
2004.47	14.8232
2004.71	16.7776
2004.95	15.7068
2005.2	14.5495
2005.44	14.484
2005.69	15.2078
2005.93	15.828
2006.18	16.0833
2006.42	16.2722
2006.66	14.1767
2006.91	14.8485
2007.15	14.1874
2007.4	14.1249
2007.64	14.9589
2007.89	14.5735
2008.13	15.3771
2008.38	15.8241
2008.62	16.1507
2008.86	15.8485
2009.11	14.4337
2009.35	14.2882
2009.6	15.7891
2009.84	15.9856
2010.08	14.8922
2010.33	13.6061
2010.57	12.1914
2010.82	13.82
2011.06	15.3281
2011.3	15.2068
2011.55	16.18
2011.79	15.1774
2012.04	14.5192
2012.18	16.7495
2012.43	18.6286
2012.68	13.9379
2012.93	14.8784
2013.17	12.9998
2013.42	14.8781
2013.67	15.8302
2013.91	17.7127
2014.16	13.9523
2014.41	16.7693
2014.66	17.7049
2014.9	15.821
2015.15	13.9372
2015.4	15.8082
2015.64	13.9259
2015.89	14.8585
2016.14	14.8525
2016.38	16.7209
2016.63	14.8433
2016.88	15.7779
2017.13	15.7761
2017.37	14.839
2017.62	17.6479
2017.87	12.0278
2018.11	12.9646
2018.36	14.8386
2018.61	12.9653
2018.86	12.028
2019.1	16.7094
2019.35	13.8978
2019.6	13.8951
2019.84	13.8916
2020.09	12.9518
2020.34	14.8198
2020.58	14.8165
2020.83	12.9428
2021.08	16.6795
2021.32	14.8065
2021.57	17.6053
2021.82	14.7966
2022.06	12.9238
2022.31	14.7866
2022.56	14.782
2022.8	15.7108
2023.05	14.7726
2023.3	16.6382
2023.54	14.7777
2023.79	14.7862
2024.04	12.9285
2024.28	14.8093
2024.53	15.7533
2024.78	15.7525
2025.02	13.8732
2025.27	16.6635
2025.52	11.9627
2025.76	17.5873
2026.01	13.9028
2026.26	14.8183
2026.5	15.7659
2026.75	14.8064
2027	12.9216
2027.24	16.6368
2027.49	14.7708
2027.74	15.6884
2027.98	12.9012
2028.23	15.7096
2028.48	14.7738
2028.72	15.7068
2028.97	14.7734
2029.22	17.5774
2029.46	13.8483
2029.71	19.4571
2029.96	15.7263
2030.2	15.7304
2030.45	12.929
2030.69	16.6725
2030.94	16.6767
2031.19	16.6678
2031.43	16.658
2031.68	14.7731
2031.93	15.6999
2032.17	16.64
2032.42	11.9774
2032.66	15.7196
2032.91	16.6659
2033.16	14.8043
2033.4	15.7409
2033.65	11.9922
2033.9	18.5349
2034.14	14.7999
2034.39	15.7347
2034.63	13.8638
2034.88	14.7973
2035.13	14.7953
2035.37	17.5971
2035.62	12.9215
2035.87	15.7224
2036.11	14.7855
2036.36	14.7828
2036.6	18.5157
2036.85	14.7768
2037.1	14.7725
2037.34	14.7682
2037.59	14.7642
2037.83	14.7604
2038.08	14.7571
2038.33	14.7543
2038.57	14.7527
2038.82	15.6839
2039.06	15.6818
2039.31	12.8836
2039.56	13.8128
2039.8	16.6061
2040.05	11.9474
2040.3	16.6069
2040.54	14.7468
2040.79	13.8199
2041.03	17.5565
2041.28	15.6939
2041.52	13.8274
2041.77	14.757
2042.02	16.6153
2042.26	11.0121
2042.51	17.548
2042.75	14.7587
2043	14.7761
2043.25	18.5426
2043.49	15.7281
2043.74	16.646
2043.98	13.8328
2044.23	16.6319
2044.47	13.8283
2044.72	15.683
2044.97	14.7459
2045.21	17.5426
2045.46	14.7465
2045.7	11.0179
2045.95	13.8161
2046.19	18.4827
2046.44	13.822
2046.69	14.7588
2046.93	15.6973
2047.18	14.7679
2047.42	14.7718
2047.67	12.9059
2047.91	14.775
2048.16	12.9057
2048.41	14.7712
2048.65	17.5682
2048.9	14.766
2049.14	15.6999
2049.39	17.5696
2049.63	14.7686
2049.88	16.6382
2050.12	16.6406
2050.37	17.578
2050.62	15.7129
2050.86	16.6551
2051.11	14.788
2051.35	15.7253
2051.6	14.7904
2051.84	13.8545
2052.09	12.9183
2052.33	14.7882
2052.58	15.7194
2052.82	15.7173
2053.07	14.7815
2053.31	15.7148
2053.56	14.7781
2053.8	17.581
2054.05	13.8418
2054.3	16.6465
2054.54	16.6475
2054.79	14.7795
2055.03	14.7816
2055.28	16.6539
2055.52	14.787
2055.77	15.7259
2056.01	13.8573
2056.26	17.6037
2056.5	14.7963
2056.75	16.6692
2056.99	15.7336
2057.24	15.7315
2057.48	13.8572
2057.73	16.6625
2057.97	15.7282
2058.22	14.7943
2058.46	15.732
2058.71	13.8601
2058.95	14.7965
2059.2	18.542
2059.45	15.734
2059.69	14.799
2059.94	14.8008
2060.18	16.6769
2060.43	15.7426
2060.67	18.5559
2060.92	13.8719
2061.16	17.6221
2061.4	16.686
2061.65	15.7501
2061.9	16.6899
2062.14	17.6312
2062.39	16.6983
2062.63	14.826
2062.88	15.7682
2063.12	14.8324
2063.37	14.8344
2063.61	18.5912
2063.86	16.7144
2064.1	16.7164
2064.34	14.839
2064.59	18.5985
2064.83	15.7826
2065.08	16.7244
2065.32	16.7261
2065.57	15.7872
2065.81	12.0288
2066.06	16.7297
2066.3	14.8474
2066.55	15.783
2066.79	12.9582
2067.04	16.7117
2067.28	14.8344
2067.53	15.7794
2067.77	12.967
2068.02	13.914
2068.26	18.617
2068.51	15.7905
2068.75	15.805
2069	17.6974
2069.24	17.6964
2069.48	15.8116
2069.73	13.9277
2069.97	17.6925
2070.22	15.8091
2070.46	15.8082
2070.71	15.8085
2070.95	14.8674
2071.2	16.7513
2071.44	17.6946
2071.69	17.6976
2071.93	15.8177
2072.18	15.8229
2072.42	17.7154
2072.66	13.9509
2072.91	14.8998
2073.15	14.9027
2073.4	19.6232
2073.64	13.9596
2073.89	15.8461
2074.13	15.8428
2074.38	16.7827
2074.62	15.8318
2074.87	16.7723
2075.11	14.8876
2075.35	17.7206
2075.6	13.0051
2075.84	16.78
2076.09	14.8949
2076.33	15.8415
2076.58	16.7937
2076.82	13.9634
2077.06	14.9104
2077.31	13.9678
2077.55	15.8596
2077.8	17.7499
2078.04	15.8581
2078.29	15.8567
2078.53	14.9112
2078.77	17.7455
2079.02	13.9652
2079.26	17.7456
2079.51	18.6917
2079.75	16.8027
2080	17.748
2080.24	19.6376
2080.48	13.9668
2080.73	13.9661
2080.97	13.9658
2081.22	15.8559
2081.46	16.8004
2081.7	14.9105
2081.95	15.8559
2082.19	13.0209
2082.44	14.9106
2082.68	16.8006
2082.93	17.7463
2083.17	14.9146
2083.41	12.0823
2083.66	15.8687
2083.9	15.8701
2084.14	11.1414
2084.39	15.8742
2084.63	17.7687
2084.88	15.8759
2085.12	16.8224
2085.36	15.8762
2085.61	12.0909
2085.85	13.9844
2086.1	16.8246
2086.34	18.7202
2086.58	13.9889
2086.83	14.9394
2087.07	18.73
2087.32	16.8362
2087.56	14.9425
2087.8	15.8912
2088.05	13.05
2088.29	15.8943
2088.54	15.8959
2088.78	14.9515
2089.02	14.9557
2089.27	14.9603
2089.51	18.7606
2089.75	14.9699
2090	15.9235
2090.24	15.9273
2090.48	16.8812
2090.73	15.935
2090.97	14.9877
2091.22	17.8424
2091.46	16.8928
2091.7	16.8927
2091.95	14.9904
2092.19	14.0385
2092.43	14.9867
2092.68	13.0831
2092.92	14.9814
2093.17	17.8297
2093.41	14.9781
2093.65	16.8773
2093.9	14.9766
2094.14	18.7739
2094.38	16.8708
2094.63	15.9177
2094.87	14.0173
2095.11	15.915
2095.36	14.965
2095.6	14.0133
2095.84	16.8605
2096.09	14.9618
2096.33	16.8588
2096.57	14.9598
2096.82	16.8573
2097.06	15.9083
2097.3	18.7557
2097.55	13.062
2097.79	15.9104
2098.03	14.9648
2098.28	14.9676
2098.52	17.8187
2098.76	20.6692
2099.01	15.92
2099.25	19.7186
2099.5	16.8692
2099.74	16.8682
2099.98	15.9159
2100.22	17.8112
2100.47	14.9608
2100.71	15.9096
2100.95	14.01
2101.2	16.8577
2101.44	16.8588
2101.68	18.7602
2101.93	16.8636
2102.17	16.8658
2102.41	16.8685
2102.66	14.9718
2102.9	17.8258
2103.14	14.9762
2103.39	13.0765
2103.63	14.0277
2103.87	15.9294
2104.12	14.9799
2104.36	15.9313
2104.6	15.9295
2104.85	14.9758
2105.09	18.7731
2105.33	17.8176
2105.57	15.9132
2105.82	17.8085
2106.06	15.9077
2106.3	14.9585
2106.55	18.7607
2106.79	15.9152
2107.03	16.8652
2107.27	15.9151
2107.52	15.9149
2107.76	16.8646
2108	15.9145
2108.25	14.0143
2108.49	14.9632
2108.73	14.0112
2108.98	15.9089
2109.22	14.9581
2109.46	15.9074
2109.7	17.808
2109.95	15.9101
2110.19	18.7616
2110.43	16.8654
2110.68	16.869
2110.92	16.8706
2111.16	16.8697
2111.4	15.9176
2111.65	16.8673
2111.89	15.9175
2112.13	16.8682
2112.38	14.9665
2112.62	19.7165
2112.86	17.8143
2113.1	16.8626
2113.35	15.9093
2113.59	17.8055
2113.83	14.9544
2114.07	15.9031
2114.32	15.9023
2114.56	17.8018
2114.8	11.1533
2115.04	15.8985
2115.29	13.9972
2115.53	16.8405
2115.77	14.9379
2116.01	17.7797
2116.26	17.7758
2116.5	17.7718
2116.74	13.9764
2116.99	15.8691
2117.23	18.7093
2117.47	16.8129
2117.71	15.8655
2117.96	16.8155
2118.2	14.9214
2118.44	15.8724
2118.68	13.0313
2118.92	16.8279
2119.17	15.8826
2119.41	16.8343
2119.65	18.7348
2119.9	12.0932
2120.14	13.9929
2120.38	15.8926
2120.62	16.8426
2120.86	18.7399
2121.11	16.8393
2121.35	16.8363
2121.59	17.7808
2121.83	13.9799
2122.08	18.7131
2122.32	15.8617
2122.56	14.9088
2122.8	13.9571
2123.04	15.8462
2123.29	15.8418
2123.53	18.6769
2123.77	16.7808
2124.01	12.9937
2124.26	14.8819
2124.5	16.7714
2124.74	14.8793
2124.98	17.7146
2125.22	14.8766
2125.47	15.8206
2125.71	17.7109
2125.95	16.7656
2126.19	17.7101
2126.44	14.873
2126.68	16.762
2126.92	13.9259
2127.16	16.7601
2127.4	16.7589
2127.65	14.8677
2127.89	16.7557
2128.13	15.8088
2128.37	16.7509
2128.61	12.9704
2128.86	13.9126
2129.1	14.8552
2129.34	16.7416
2129.58	12.9627
2129.82	17.6785
2130.06	16.7329
2130.31	18.6196
2130.55	14.8456
2130.79	16.7334
2131.03	16.7334
2131.27	16.7338
2131.52	17.6781
2131.76	17.6775
2132	13.9019
2132.24	14.845
2132.48	16.7314
2132.73	14.8425
2132.97	15.7833
2133.21	18.6079
2133.45	18.602
2133.69	16.7134
2133.94	16.7136
2134.18	16.7143
2134.42	15.7716
2134.66	16.7159
2134.9	17.6623
2135.14	14.8323
2135.39	13.8852
2135.63	16.7097
2135.87	13.8836
2136.11	14.831
2136.35	14.8344
2136.59	12.9424
2136.84	16.7065
2137.08	15.761
2137.32	16.7006
2137.56	17.6403
2137.8	10.1027
2138.04	13.8691
2138.28	15.7514
2138.53	11.9841
2138.77	14.8067
2139.01	13.8617
2139.25	13.8601
2139.49	12.9186
2139.74	17.628
2139.98	17.6307
2140.22	17.6437
2140.46	15.7549
2140.7	15.7181
2140.94	15.7133
2141.18	15.7167
2141.43	13.8413
2141.67	16.6673
2141.91	13.8487
2142.15	15.722
2142.39	15.7219
2142.63	14.7824
2142.87	15.7218
2143.12	16.6604
2143.36	14.7787
2143.6	15.7173
2143.84	14.7759
2144.08	12.8946
2144.32	16.6514
2144.56	16.649
2144.8	13.8283
2145.05	15.7054
2145.29	16.6427
2145.53	14.7622
2145.77	13.8211
2146.01	13.8188
2146.25	15.6932
2146.49	16.6279
2146.73	17.5589
2146.98	16.6167
2147.22	16.612
2147.46	16.6083
2147.7	16.6063
2147.94	13.7938
2148.18	15.6693
2148.42	14.7343
2148.66	14.7356
2148.9	15.6756
2149.15	13.8007
2149.39	15.6788
2149.63	16.6141
2149.87	14.7361
2150.11	18.4834
2150.35	14.7305
2150.59	14.729
2150.83	12.8531
2151.07	14.725
2151.31	13.7845
2151.56	15.6527
2151.8	17.5181
2152.04	13.768
2152.28	14.6968
2152.52	16.5619
2152.76	13.7525
2153	14.6832
2153.24	17.4831
2153.48	16.5467
2153.72	14.6775
2153.97	14.6769
2154.21	17.4791
2154.45	14.6775
2154.69	14.6793
2154.93	15.6163
2155.17	14.6841
2155.41	13.7499
2155.65	14.6843
2155.89	17.4876
2156.13	16.5513
2156.37	12.8111
2156.61	12.8089
2156.86	14.6745
2157.1	16.5385
2157.34	15.6004
2157.58	12.7964
2157.82	17.4601
2158.06	13.7251
2158.3	16.5236
2158.54	16.5219
2158.78	15.5871
2159.02	14.6533
2159.26	15.586
2159.5	13.72
2159.74	16.5184
2159.98	12.7855
2160.22	14.649
2160.47	13.7146
2160.71	15.578
2160.95	13.7113
2161.19	15.5741
2161.43	16.5029
2161.67	12.7708
2161.91	16.4952
2162.15	18.3587
2162.39	16.497
2162.63	13.7015
2162.87	14.6333
2163.11	18.3608
2163.35	14.6316
2163.59	13.6981
2163.83	12.7643
2164.07	15.5557
2164.31	16.4843
2164.55	13.6875
2164.79	14.6139
2165.03	15.5372
2165.27	17.3896
2165.51	15.5269
2165.76	15.5263
2166	16.4566
2166.24	16.4585
2166.48	17.3916
2166.72	15.5357
2166.96	15.5408
2167.2	14.6156
2167.44	16.4813
2167.68	14.6201
2167.92	16.4816
2168.16	14.6162
2168.4	14.6145
2168.64	14.6088
2168.88	16.4586
2169.12	17.3815
2169.36	17.3778
2169.6	15.5161
2169.84	14.5846
2170.08	14.5839
2170.32	18.2998
2170.56	14.583
2170.8	16.4421
2171.04	15.5147
2171.28	15.516
2171.52	15.5166
2171.76	16.4461
2172	15.5164
2172.24	18.3041
2172.48	14.5854
2172.72	13.655
2172.96	13.6543
2173.2	15.5118
2173.44	16.4396
2173.68	16.4367
2173.92	15.5065
2174.16	14.5774
2174.4	16.4355
2174.64	15.5067
2174.88	17.3639
2175.12	14.5776
2175.36	14.5762
2175.6	14.5721
2175.84	17.3541
2176.08	17.3534
2176.32	13.6401
2176.56	18.2826
2176.8	15.4971
2177.04	16.4254
2177.28	17.3536
2177.52	12.7105
2177.76	15.4948
2178	15.4936
2178.24	14.5647
2178.48	16.4202
2178.72	16.4181
2178.96	13.6317
2179.2	13.6309
2179.44	15.4847
2179.68	15.483
2179.92	13.626
2180.16	13.6232
2180.4	16.4021
2180.64	15.4699
2180.88	15.4664
2181.12	15.4638
2181.35	15.4612
2181.59	17.3133
2181.83	16.387
2182.07	13.6085
2182.31	16.3896
2182.55	17.3174
2182.79	17.3193
2183.03	14.5407
2183.27	15.4706
2183.51	15.473
2183.75	14.5494
2183.99	17.3376
2184.23	17.3426
2184.47	13.6333
2184.71	17.3512
2184.95	15.4946
2185.19	16.4216
2185.43	17.3472
2185.67	17.3436
2185.91	17.3397
2186.15	12.6956
2186.38	19.186
2186.62	16.3973
2186.86	16.3923
2187.1	17.317
2187.34	17.3159
2187.58	17.3162
2187.82	15.4631
2188.06	14.5373
2188.3	17.3185
2188.54	17.3194
2188.78	15.466
2189.02	13.6125
2189.26	15.4684
2189.5	14.542
2189.74	14.5431
2189.97	16.4008
2190.21	17.3316
2190.45	16.4061
2190.69	14.5529
2190.93	16.4161
2191.17	13.6365
2191.41	19.2179
2191.65	18.2916
2191.89	15.5019
2192.13	14.5703
2192.37	16.4275
2192.61	13.637
2192.85	14.563
2193.08	18.2741
2193.32	16.4106
2193.56	14.5486
2193.8	17.3288
2194.04	16.3974
2194.28	15.4669
2194.52	17.3194
2194.76	12.6815
2195	18.2471
2195.24	17.321
2195.47	14.5413
2195.71	14.5449
2195.95	16.4058
2196.19	17.34
2196.43	18.2739
2196.67	16.4211
2196.91	13.6376
2197.15	15.5039
2197.39	13.651
2197.63	16.4503
2197.86	16.4569
2198.1	17.3934
2198.34	16.4656
2198.58	15.5279
2198.82	16.443
2199.06	17.3378
2199.3	15.4569
2199.54	15.4646
2199.78	15.4913
2200.01	14.5743
2200.25	18.2899
2200.49	14.5667
2200.73	16.4359
2200.97	12.7596
2201.21	15.5404
2201.45	14.606
2201.69	19.2722
2201.92	18.3273
2202.16	19.2418
2202.4	16.435
2202.64	14.5655
2202.88	17.3522
2203.12	14.563
2203.36	14.5661
2203.59	16.4271
2203.83	16.4203
2204.07	13.632
2204.31	16.4234
2204.55	14.5662
2204.79	15.4993
2205.03	12.7112
2205.27	17.3669
2205.5	17.3703
2205.74	18.3043
2205.98	17.3757
2206.22	15.515
2206.46	15.5158
2206.7	15.5158
2206.93	16.4465
2207.17	17.3781
2207.41	15.5173
2207.65	12.7246
2207.89	16.4535
2208.13	16.456
2208.37	15.5263
2208.6	16.461
2208.84	14.5995
2209.08	17.4005
2209.32	15.5374
2209.56	16.4714
2209.8	16.4702
2210.03	16.4684
2210.27	16.4666
2210.51	17.3966
2210.75	17.3931
2210.99	14.5967
2211.23	13.6668
2211.47	16.4708
2211.7	16.4775
2211.94	16.4791
2212.18	17.4139
2212.42	19.2821
2212.66	16.482
2212.89	17.416
2213.13	12.7476
2213.37	15.5482
2213.61	13.6804
2213.85	11.8124
2214.09	15.5461
2214.32	15.5459
2214.56	17.4135
2214.8	16.4805
2215.04	16.4804
2215.28	15.5464
2215.51	13.6795
2215.75	15.5482
2215.99	16.4842
2216.23	14.6187
2216.47	15.5556
2216.71	14.6229
2216.94	17.428
2217.18	13.6913
2217.42	15.5601
2217.66	15.5592
2217.9	17.4276
2218.13	13.688
2218.37	15.5532
2218.61	18.3508
2218.85	14.6114
2219.08	16.4757
2219.32	16.4734
2219.56	15.5393
2219.8	13.6731
2220.04	14.6086
2220.27	14.6106
2220.51	17.4148
2220.75	15.5504
2220.99	15.5548
2221.23	12.7551
2221.46	17.4339
2221.7	15.5676
2221.94	16.5064
2222.18	12.767
2222.42	15.5778
2222.65	15.5821
2222.89	16.522
2223.13	14.652
2223.37	15.5919
2223.6	15.5943
2223.84	18.409
2224.08	14.6629
2224.32	14.6651
2224.55	15.6045
2224.79	13.7299
2225.03	13.7295
2225.27	14.666
2225.5	18.4153
2225.74	13.7261
2225.98	15.6003
2226.22	15.5993
2226.46	17.474
2226.69	15.6014
2226.93	17.4811
2227.17	19.3615
2227.41	14.6734
2227.64	14.6761
2227.88	14.679
2228.12	15.6209
2228.36	15.6244
2228.59	13.7493
2228.83	16.5705
2229.07	16.5737
2229.31	15.6369
2229.54	17.5201
2229.78	16.5829
2230.02	13.7645
2230.26	17.5295
2230.49	15.6509
2230.73	16.5948
2230.97	13.7735
2231.21	14.7162
2231.44	11.8917
2231.68	13.7729
2231.92	17.5354
2232.16	14.7095
2232.39	13.7637
2232.63	16.581
2232.87	13.7599
2233.11	14.7008
2233.34	16.5824
2233.58	16.5832
2233.82	16.5837
2234.05	15.6439
2234.29	16.5882
2234.53	14.7095
2234.77	15.6563
2235	13.7791
2235.24	13.7842
2235.48	15.6729
2235.72	14.7342
2235.95	15.6815
2236.19	13.8003
2236.43	14.7448
2236.66	15.6868
2236.9	15.6846
2237.14	14.7373
2237.37	15.6761
2237.61	14.7315
2237.85	18.5092
2238.09	16.6299
2238.32	14.7438
2238.56	17.5754
2238.8	16.633
2239.04	14.7465
2239.27	16.6353
2239.51	14.7491
2239.75	16.6389
2239.98	15.6952
2240.22	15.6945
2240.46	15.6924
2240.69	15.6898
2240.93	15.6884
2241.17	15.6878
2241.4	15.6882
2241.64	18.522
2241.88	16.639
2242.11	15.701
2242.35	13.8169
2242.59	16.6555
2242.83	15.7133
2243.06	19.4986
2243.3	16.6653
2243.54	14.7763
2243.77	13.8317
2244.01	15.7259
2244.25	13.8356
2244.48	15.7297
2244.72	14.7839
2244.96	13.8371
2245.19	16.6755
2245.43	12.8889
2245.67	14.7806
2245.91	16.6722
2246.14	16.6711
2246.38	14.778
2246.61	13.8339
2246.85	15.7285
2247.09	16.6748
2247.32	13.8335
2247.56	16.6693
2247.8	16.6658
2248.03	14.7701
2248.27	14.7672
2248.51	13.8195
2248.74	12.8731
2248.98	15.7098
2249.22	12.8747
2249.45	12.8765
2249.69	13.8249
2249.93	15.7216
2250.16	13.8363
2250.4	13.8417
2250.64	14.793
2250.87	16.6918
2251.11	13.8513
2251.35	16.6979
2251.58	16.7001
2251.82	15.7522
2252.06	14.8025
2252.29	13.8548
2252.53	14.803
2252.77	14.8034
2253	11.9591
2253.24	14.8062
2253.48	13.8603
2253.71	15.7602
2253.95	13.8647
2254.18	16.7143
2254.42	13.869
2254.66	13.8711
2254.89	15.7716
2255.13	12.9236
2255.37	13.8737
2255.6	14.8242
2255.84	16.7251
2256.08	17.6773
2256.31	14.8295
2256.55	15.7811
2256.78	13.8817
2257.02	13.8832
2257.26	12.934
2257.49	15.787
2257.73	14.8377
2257.96	15.7907
2258.2	13.8932
2258.44	14.8474
2258.67	13.8967
2258.91	12.9459
2259.15	15.8016
2259.38	14.8512
2259.62	12.9495
2259.85	16.7602
2260.09	14.8593
2260.33	14.8631
2260.56	14.8676
2260.8	14.8726
2261.03	17.739
2261.27	14.8839
2261.51	12.9805
2261.74	15.8478
2261.98	12.9872
2262.21	13.9447
2262.45	13.9471
2262.69	14.9027
2262.92	14.9032
2263.16	15.8572
2263.39	15.8536
2263.63	14.895
2263.87	17.7548
2264.1	15.8421
2264.34	12.9768
2264.57	14.8828
2264.81	14.8804
2265.05	15.8306
2265.28	12.9672
2265.52	17.7336
2265.75	14.8735
2265.99	14.8754
2266.22	12.0168
2266.46	15.8364
2266.7	14.8864
2266.93	14.8907
2267.17	12.0307
2267.4	11.079
2267.64	13.9477
2267.87	13.9493
2268.11	14.9081
2268.35	14.9107
2268.58	13.9563
2268.82	13.9581
2269.05	13.9607
2269.29	13.962
2269.53	14.9189
2269.76	13.9627
2270	14.9201
2270.23	13.964
2270.47	11.094
2270.7	14.9223
2270.94	14.923
2271.18	13.9665
2271.41	13.9671
2271.65	13.0105
2271.88	13.0111
2272.12	13.9692
2272.35	13.9699
2272.59	15.8856
2272.82	13.0126
2273.06	13.972
2273.3	15.8908
2273.53	14.9366
2273.77	12.065
2274	13.0258
2274.24	14.9459
2274.47	14.9507
2274.71	13.0374
2274.94	15.9218
2275.18	14.9684
2275.41	12.0895
2275.65	15.932
2275.88	15.9321
2276.12	15.9314
2276.36	13.0492
2276.59	15.9274
2276.83	14.9603
2277.06	16.8748
2277.3	15.9109
2277.53	14.948
2277.77	13.9861
2278	14.9426
2278.24	15.8997
2278.47	14.939
2278.71	14.9374
2278.94	13.9804
2279.18	13.9813
2279.41	13.9831
2279.65	13.0268
2279.89	13.9889
2280.12	13.0326
2280.36	13.0362
2280.59	14.9614
2280.83	15.9288
2281.06	14.0136
2281.3	12.0972
2281.53	14.0238
2281.77	13.0635
2282	14.0284
2282.24	14.0315
2282.47	14.9948
2282.71	14.9952
2282.94	13.0676
2283.18	12.1005
2283.41	14.0236
2283.65	15.9483
2283.88	14.9887
2284.12	15.9581
2284.35	13.0756
2284.59	14.0405
2284.82	14.0419
2285.06	13.0823
2285.29	15.008
2285.53	15.0056
2285.76	16.9294
2286	15.9633
2286.23	14.0331
2286.47	15.9522
2286.7	12.0988
2286.94	12.0936
2287.17	14.976
2287.41	11.129
2287.64	16.8969
2287.88	14.013
2288.11	14.015
2288.35	14.0185
2288.58	14.9852
2288.82	13.0639
2289.05	14.0285
2289.28	11.1428
2289.52	14.0334
2289.75	15.9629
2289.99	14.0397
2290.22	14.042
2290.46	14.044
2290.69	14.0455
2290.93	13.0824
2291.16	14.045
2291.4	12.1159
2291.63	13.0774
2291.87	15.9648
2292.1	14.036
2292.34	13.0708
2292.57	13.0688
2292.81	13.0668
2293.04	15.9533
2293.28	15.9495
2293.51	12.0943
2293.74	13.0555
2293.98	14.0186
2294.21	14.0205
2294.45	14.023
2294.68	14.026
2294.92	14.0298
2295.15	12.1079
2295.39	15.0011
2295.62	15.0031
2295.86	12.1143
2296.09	15.0097
2296.32	13.0842
2296.56	15.0154
2296.79	14.0522
2297.03	14.0518
2297.26	15.0165
2297.5	14.0513
2297.73	14.0528
2297.97	14.0551
2298.2	14.0568
2298.43	15.0235
2298.67	15.0244
2298.9	14.0593
2299.14	15.024
2299.37	16.9529
2299.61	15.0214
2299.84	14.0565
2300.07	15.9863
2300.31	12.1249
2300.54	15.0198
2300.78	15.0199
2301.01	15.0213
2301.25	11.1623
2301.48	16.9571
2301.71	14.062
2301.95	14.0639
2302.18	12.1345
2302.42	13.1018
2302.65	14.0685
2302.89	14.0695
2303.12	14.0712
2303.35	14.0728
2303.59	13.1068
2303.82	14.0735
2304.05	13.1066
2304.29	13.106
2304.52	14.0711
2304.76	14.0692
2304.99	15.0343
2305.23	14.0666
2305.46	14.0653
2305.69	14.0651
2305.93	13.0994
2306.16	13.1013
2306.4	14.0699
2306.63	15.04
2306.86	11.1765
2307.1	14.0806
2307.33	14.0818
2307.57	15.0495
2307.8	15.0489
2308.03	14.0799
2308.27	15.0436
2308.5	14.0683
2308.74	14.059
2308.97	14.0539
2309.2	15.0155
2309.44	13.0828
2309.67	14.0453
2309.91	13.0784
2310.14	15.0078
2310.37	12.1145
2310.61	13.0833
2310.84	12.1226
2311.07	15.024
2311.31	15.0284
2311.54	14.0663
2311.78	14.0714
2312.01	14.0761
2312.24	13.1109
2312.48	12.1401
2312.71	14.0708
2312.94	15.0346
2313.18	13.0974
2313.41	14.056
2313.65	12.1204
2313.88	15.0153
2314.11	15.0148
2314.35	13.0842
2314.58	13.0848
2314.81	14.0541
2315.05	13.0904
2315.28	14.0516
2315.51	15.9804
2315.75	14.0471
2315.98	10.1832
2316.22	14.0422
2316.45	13.0749
2316.68	15.0032
2316.92	14.0371
2317.15	15.9668
2317.38	13.0723
2317.62	15.9669
2317.85	14.0382
2318.08	13.075
2318.32	14.0424
2318.55	13.0793
2318.78	13.082
2319.02	15.9838
2319.25	13.0896
2319.48	13.0929
2319.72	15.9943
2319.95	14.06
2320.19	15.994
2320.42	14.0614
2320.65	15.9959
2320.89	17.9308
2321.12	13.0962
2321.35	16.9634
2321.58	13.0948
2321.82	16.9581
2322.05	17.9191
2322.28	15.9804
2322.52	15.0107
2322.75	15.0076
2322.98	14.039
2323.22	15.9664
2323.45	15.9628
2323.68	16.924
2323.92	15.9555
2324.15	16.9163
2324.38	16.9123
2324.62	15.9456
2324.85	17.8705
2325.08	20.7597
2325.32	20.7606
2325.55	21.7245
2325.78	22.6888
2326.02	22.6841
2326.25	26.5336
2326.48	31.3426
2326.71	36.1554
2326.95	38.08
2327.18	52.534
2327.41	58.3094
2327.65	90.0876
2327.88	91.0424
2328.11	81.4092
2328.35	62.1535
2328.58	39.0454
2328.81	35.1983
2329.05	27.4978
2329.28	26.5266
2329.51	23.6317
2329.75	24.5912
2329.98	23.6247
2330.21	17.8447
2330.44	18.805
2330.68	16.8776
2330.91	16.8758
2331.14	15.911
2331.38	14.9459
2331.61	14.9418
2331.84	14.9394
2332.07	13.976
2332.31	14.9371
2332.54	13.0128
2332.77	13.9748
2333	13.0139
2333.24	14.9367
2333.47	13.9734
2333.7	13.9723
2333.94	14.933
2334.17	13.0093
2334.4	13.9699
2334.63	15.892
2334.87	13.9678
2335.1	12.0442
2335.33	12.0435
2335.56	13.0039
2335.8	13.9644
2336.03	12.0424
2336.26	14.9262
2336.5	14.926
2336.73	13.003
2336.96	14.924
2337.19	15.8829
2337.43	14.9192
2337.66	12.9952
2337.89	12.0316
2338.12	12.9882
2338.36	13.9437
2338.59	14.8977
2338.82	14.8933
2339.05	12.0132
2339.29	14.8877
2339.52	13.9265
2339.75	14.8834
2339.98	12.0065
2340.22	12.0061
2340.45	12.0061
2340.68	13.9225
2340.91	14.8803
2341.15	14.8803
2341.38	11.0467
2341.61	12.9643
2341.84	16.7982
2342.08	13.9213
2342.31	12.0026
2342.54	14.8755
2342.77	12.9552
2343.01	12.9527
2343.24	14.8655
2343.47	13.9066
2343.7	12.948
2343.93	16.7775
2344.17	14.8609
2344.4	11.9873
2344.63	14.8591
2344.86	13.9018
2345.1	13.9026
2345.33	13.9041
2345.56	11.032
2345.79	16.7779
2346.03	13.9033
2346.26	11.9859
2346.49	12.9376
2346.72	15.8017
2346.95	12.9251
2347.19	12.9172
2347.42	11.9526
2347.65	12.8903
2347.88	14.7656
2348.12	14.7899
2348.35	12.9282
2348.58	15.8133
2348.81	10.0474
2349.04	14.8079
2349.28	15.7638
2349.51	10.9927
2349.74	13.8476
2349.97	13.8346
2350.2	16.6819
2350.44	10.9701
2350.67	16.6847
2350.9	10.9666
2351.13	12.8716
2351.36	14.7757
2351.6	12.874
2351.83	14.7827
2352.06	14.782
2352.29	11.9224
2352.52	12.8739
2352.76	12.8725
2352.99	14.7759
2353.22	13.8208
2353.45	13.8161
2353.68	13.8093
2353.92	13.8039
2354.15	11.8988
2354.38	12.8474
2354.61	11.8944
2354.84	14.7443
2355.07	12.8411
2355.31	15.6907
2355.54	12.8383
2355.77	11.8853
2356	13.7839
2356.23	12.8328
2356.46	15.6816
2356.7	12.8301
2356.93	12.8277
2357.16	9.97647
2357.39	13.7708
2357.62	13.7674
2357.86	12.8152
2358.09	11.8635
2358.32	13.757
2358.55	13.7534
2358.78	13.7497
2359.01	13.7459
2359.25	12.7945
2359.48	13.738
2359.71	12.7879
2359.94	10.8917
2360.17	14.6756
2360.4	12.7804
2360.63	15.6175
2360.87	15.6156
2361.1	13.7215
2361.33	13.7193
2361.56	13.717
2361.79	14.6604
2362.02	14.6587
2362.26	13.7104
2362.49	13.7074
2362.72	13.7007
2362.95	17.4688
2363.18	14.6292
2363.41	12.74
2363.64	14.6263
2363.88	12.74
2364.11	13.6895
2364.34	13.6976
2364.57	12.7585
2364.8	13.7021
