#Acq. time (s)=	60
#Accumulations=	2
#Range (cm-¹)=	100...4000
#Windows=	1
#Auto scanning=	Off
#Autofocus=	Off
#Macrospot=	Off
#AutoExposure=	Off
#Spike filter=	Multiple accum.
#Delay time (s)=	2
#Binning=	1
#Readout mode=	Signal
#DeNoise=	Off
#ICS correction=	On
#Dark correction=	Off
#Inst. Process=	Off
#Detector Gain=	Best Dynamic
#Detector ADC=	50 kHz HS
#Detector temperature (°C)=	-60.09
#Instrument=	LabRAM HR Evol
#Detector=	SIN-EM FIVIS
#Objective=	x100_VIS
#Grating=	150 (500nm)
#ND Filter=	100%
#Laser=	633nm_Edge
#Hole=	49.98
#Temperature=	0
#Range=	Visible
#StageXY=	75x50mm Scan+
#StageZ=	Z motor
#X (µm)=	0
#Y (µm)=	0
#Z (µm)=	-290.2
#Full time(mm:ss)=	2:04
#Project=	21_11_04
#Sample=	BU19w
#Site=	
#Title=	BU19w-E-FF11-FI05-V_150 (500nm)_633nm_Edge_100%_x100_VIS_H50um_60sX2
#Remark=	
#Date=	04.11.2021 16:47
#Acquired=	04.11.2021 16:47:03
102.881	223.573
106.139	197.919
109.397	211.381
112.653	211.487
115.908	190.572
119.161	200.192
122.414	198.355
125.664	180.249
128.914	192.744
132.162	187.045
135.409	191.856
138.654	174.633
141.898	188.033
145.14	187.098
148.383	187.116
151.622	206.29
154.861	194.856
158.098	233.219
161.335	214.128
164.569	211.318
167.801	175.896
171.034	177.835
174.264	171.123
177.494	178.761
180.721	172.961
183.949	177.661
187.173	169.89
190.396	169.753
193.62	169.616
196.84	166.63
200.061	159.868
203.279	162.722
206.496	168.432
209.712	151.223
212.926	160.73
216.139	172.146
219.352	179.738
222.562	191.128
225.772	226.302
228.979	259.456
232.185	260.238
235.392	234.425
238.595	211.499
241.797	197.151
244.999	199.029
248.199	215.143
251.397	188.489
254.595	198.863
257.791	187.422
260.985	202.563
264.178	201.576
267.371	193.96
270.561	207.224
273.75	230.928
276.939	241.361
280.125	247.032
283.31	235.61
286.494	198.587
289.678	189.047
292.859	179.494
296.039	165.215
299.217	185.022
302.396	194.398
305.572	188.628
308.746	202.715
311.919	237.577
315.093	263.916
318.263	295.901
321.433	305.273
324.601	274.094
327.768	254.239
330.935	221.205
334.099	202.32
337.262	190.036
340.423	198.502
343.584	198.476
346.743	207.854
349.902	210.634
353.058	210.563
356.213	200.115
359.367	198.14
362.52	190.514
365.671	199.818
368.821	179.98
371.971	174.254
375.119	168.524
378.265	169.376
381.41	158.034
384.553	160.804
387.696	159.886
390.837	169.332
393.976	170.376
397.116	160.18
400.253	158.494
403.389	152.074
406.524	153.177
409.657	158.999
412.789	170.471
415.92	167.742
419.05	169.759
422.178	182.135
425.305	182.124
428.431	197.087
431.555	187.419
434.678	191.919
437.8	211.466
440.921	204.623
444.04	182.75
447.158	183.432
450.275	201.893
453.391	209.092
456.505	199.483
459.618	180.604
462.73	172.068
465.84	159.867
468.949	160.725
472.057	161.612
475.164	148.569
478.27	156.977
481.374	167.238
484.477	169.108
487.579	163.525
490.679	163.539
493.778	176.611
496.876	187.81
499.973	189.7
503.068	179.493
506.162	181.403
509.255	179.587
512.346	175.922
515.436	171.327
518.525	163.955
521.613	164.087
524.7	178.273
527.785	176.586
530.869	173.05
533.952	177.045
537.033	170.707
540.113	171.847
543.192	159.762
546.27	157.999
549.347	164.656
552.423	157.175
555.497	162.899
558.568	157.219
561.64	154.296
564.711	158.893
567.78	148.369
570.848	148.181
573.915	152.658
576.979	168.35
580.043	160.584
583.107	155.689
586.169	174.169
589.228	173.985
592.287	189.717
595.345	185.888
598.402	192.378
601.458	192.454
604.511	199.121
607.565	194.61
610.617	180.783
613.667	195.008
616.716	185.922
619.764	176.812
622.811	165.821
625.856	172.704
628.9	164.433
631.944	157.008
634.986	176.863
638.026	154.202
641.066	170.152
644.104	162.452
647.14	184.909
650.177	177.241
653.211	157.312
656.244	164.605
659.276	171.878
662.308	157.613
665.336	157.414
668.365	160.953
671.393	147.782
674.418	158.063
677.443	147.814
680.467	142.211
683.489	147.855
686.511	136.734
689.53	157.404
692.549	151.967
695.567	147.46
698.582	135.439
701.598	144.964
704.611	140.41
707.624	149.924
710.635	132.137
713.646	148.069
716.655	139.562
719.662	134.816
722.669	141.362
725.674	150.674
728.679	143.042
731.681	133.542
734.683	136.231
737.683	150.139
740.683	135.054
743.681	129.34
746.678	138.586
749.673	139.434
752.669	148.719
755.661	152.403
758.654	154.304
761.645	146.027
764.635	137.79
767.623	151.081
770.611	140.055
773.597	146.828
776.582	153.599
779.565	148.125
782.549	161.432
785.53	157.774
788.511	145.613
791.489	153.222
794.466	150.431
797.444	162.702
800.419	143.808
803.394	151.292
806.366	152.151
809.339	135.115
812.309	143.472
815.278	154.609
818.247	143.172
821.214	140.191
824.18	148.448
827.145	137.971
830.108	148.117
833.072	138.73
836.033	147.149
838.992	143.48
841.952	151.109
844.909	145.619
847.865	143.881
850.822	149.67
853.776	150.788
856.728	153.803
859.681	156.838
862.631	147.621
865.58	157.271
868.528	158.432
871.476	154.825
874.422	169.164
877.366	146.497
880.311	158.892
883.253	154.194
886.194	161.799
889.134	150.397
892.074	171.23
895.012	154.102
897.948	145.466
900.883	162.35
903.818	142.298
906.751	144.012
909.683	149.478
912.614	159.642
915.543	160.381
918.473	151.793
921.4	149.833
924.326	159.204
927.251	149.828
930.174	163.084
933.098	163.183
936.019	165.252
938.94	171.188
941.859	172.443
944.777	183.175
947.693	197.772
950.61	203.873
953.525	194.735
956.438	192.213
959.35	202.058
962.261	199.462
965.171	200.633
968.08	231.515
970.988	253.761
973.894	257.727
976.801	267.356
979.705	288.37
982.608	306.417
985.51	273.606
988.411	259.976
991.311	243.484
994.209	234.654
997.107	230.633
1000	225.694
1002.9	225.554
1005.79	214.021
1008.68	221.611
1011.58	235.041
1014.47	233.255
1017.36	237.175
1020.25	238.259
1023.13	218.397
1026.02	204.296
1028.9	199.76
1031.79	179.873
1034.67	188.778
1037.55	189.07
1040.43	184.546
1043.31	181.932
1046.19	182.224
1049.07	191.177
1051.94	183.635
1054.82	171.205
1057.69	182.017
1060.56	177.256
1063.44	170.504
1066.31	161.73
1069.17	173.356
1072.04	161.679
1074.91	172.316
1077.77	163.514
1080.64	180.895
1083.5	182.748
1086.37	214.64
1089.23	218.455
1092.09	226.138
1094.95	223.168
1097.8	231.8
1100.66	203.667
1103.52	187.187
1106.37	189.196
1109.22	179.54
1112.08	195.15
1114.93	187.689
1117.78	175.385
1120.63	170.77
1123.48	179.733
1126.32	175.05
1129.17	183.084
1132.01	203.845
1134.86	187.463
1137.7	201.409
1140.54	228.167
1143.38	218.591
1146.22	240.374
1149.06	216.951
1151.89	226.915
1154.73	193.48
1157.56	187.55
1160.4	166.808
1163.23	160.755
1166.06	163.548
1168.89	151.622
1171.72	150.496
1174.55	150.345
1177.38	149.207
1180.2	145.165
1183.03	146.04
1185.85	147.953
1188.67	158.696
1191.49	149.922
1194.31	141.211
1197.13	142.282
1199.95	134.6
1202.77	143.628
1205.58	138.957
1208.4	144.137
1211.21	142.433
1214.02	131.862
1216.84	140.076
1219.65	138.42
1222.46	129.802
1225.27	139.09
1228.07	128.425
1230.88	142.732
1233.68	126.959
1236.49	128.195
1239.29	140.48
1242.09	140.647
1244.89	138.756
1247.69	134.805
1250.49	137.877
1253.29	130.842
1256.08	129.819
1258.88	135.827
1261.67	138.762
1264.47	136.648
1267.26	134.545
1270.05	146.521
1272.84	177.559
1275.63	167.322
1278.42	140.03
1281.2	133.859
1283.99	136.736
1286.77	140.628
1289.56	129.53
1292.34	140.46
1295.12	120.434
1297.9	141.408
1300.68	127.416
1303.46	128.457
1306.23	140.544
1309.01	138.678
1311.78	125.841
1314.56	138.089
1317.33	123.223
1320.1	126.459
1322.87	132.748
1325.64	123.907
1328.41	126.185
1331.18	133.55
1333.94	126.672
1336.71	136.065
1339.47	134.244
1342.24	124.195
1345	132.517
1347.76	132.648
1350.52	135.848
1353.28	135.961
1356.04	145.293
1358.79	133.039
1361.55	134.111
1364.3	136.183
1367.06	130.007
1369.81	135.124
1372.56	144.343
1375.31	173.079
1378.06	213.099
1380.81	165.821
1383.56	140.119
1386.3	126.744
1389.05	129.792
1391.79	132.867
1394.53	127.76
1397.28	136.074
1400.02	138.229
1402.76	123.925
1405.5	129.166
1408.23	133.397
1410.97	134.552
1413.71	124.369
1416.44	126.576
1419.17	130.856
1421.91	127.905
1424.64	122.884
1427.37	124.077
1430.1	133.598
1432.83	129.605
1435.55	142.277
1438.28	127.845
1441.01	122.768
1443.73	142.81
1446.45	127.267
1449.17	117.946
1451.89	121.17
1454.62	124.379
1457.33	129.665
1460.05	124.434
1462.77	129.685
1465.48	124.423
1468.2	130.703
1470.91	128.585
1473.63	130.673
1476.34	124.38
1479.05	123.355
1481.76	144.383
1484.47	126.571
1487.17	136.083
1489.88	135.109
1492.59	126.786
1495.29	126.896
1497.99	127.01
1500.7	134.526
1503.4	120.941
1506.1	121.084
1508.8	124.422
1511.5	140.498
1514.19	140.709
1516.89	136.678
1519.59	125.186
1522.28	132.866
1524.97	135.242
1527.67	129.047
1530.36	138.933
1533.05	113.406
1535.74	120.068
1538.42	138.572
1541.11	135.523
1543.8	132.419
1546.48	126.002
1549.16	128.189
1551.85	131.417
1554.53	133.51
1557.21	133.413
1559.89	130.102
1562.57	138.675
1565.25	132.134
1567.93	146.08
1570.6	128.761
1573.28	140.541
1575.95	129.72
1578.62	148.01
1581.29	143.707
1583.97	128.647
1586.64	137.283
1589.3	133.008
1591.97	125.516
1594.64	136.357
1597.3	131.053
1599.97	135.462
1602.63	120.455
1605.3	137.876
1607.96	153.201
1610.62	130.648
1613.28	137.379
1615.94	127.836
1618.59	138.982
1621.25	135.975
1623.91	147.176
1626.56	143.069
1629.21	144.435
1631.87	132.592
1634.52	141.616
1637.17	132.977
1639.82	137.472
1642.47	133.146
1645.12	134.361
1647.76	131.136
1650.41	140.074
1653.05	140.149
1655.7	133.554
1658.34	124.717
1660.98	132.499
1663.62	138.063
1666.26	132.526
1668.9	131.421
1671.54	134.75
1674.18	142.514
1676.81	138.061
1679.45	143.598
1682.08	142.452
1684.71	143.497
1687.34	146.753
1689.98	133.413
1692.61	153.309
1695.23	147.776
1697.86	130.109
1700.49	126.901
1703.12	140.562
1705.74	147.583
1708.36	138.975
1710.99	127.707
1713.61	135.458
1716.23	138.915
1718.85	139.155
1721.47	131.479
1724.09	131.562
1726.7	136.173
1729.32	135.194
1731.94	135.335
1734.55	133.223
1737.16	135.602
1739.77	148.123
1742.39	136.989
1745	141.635
1747.61	134.973
1750.21	135.066
1752.82	136.279
1755.43	138.613
1758.03	143.187
1760.64	136.419
1763.24	140.97
1765.84	125.145
1768.44	126.311
1771.05	146.747
1773.64	138.86
1776.24	138.923
1778.84	149.221
1781.44	139.111
1784.03	132.405
1786.63	129.11
1789.22	139.5
1791.81	143.075
1794.41	139.813
1797	127.41
1799.59	139.026
1802.18	133.487
1804.76	146.295
1807.35	141.889
1809.94	140.896
1812.52	145.652
1815.11	148.113
1817.69	137.893
1820.27	134.572
1822.85	143.973
1825.43	147.61
1828.01	133.871
1830.59	137.515
1833.17	141.164
1835.74	143.677
1838.32	135.68
1840.89	138.141
1843.47	134.765
1846.04	138.385
1848.61	129.145
1851.18	136.27
1853.75	141.025
1856.32	146.984
1858.89	141.246
1861.45	139.037
1864.02	128.601
1866.58	133.447
1869.15	137.108
1871.71	143.107
1874.27	134.953
1876.83	138.582
1879.39	143.384
1881.95	145.833
1884.51	136.453
1887.07	144.793
1889.63	147.185
1892.18	137.732
1894.74	140.099
1897.29	144.846
1899.84	134.248
1902.39	141.446
1904.94	134.473
1907.49	142.906
1910.04	131.214
1912.59	136.172
1915.14	138.789
1917.68	150.933
1920.23	139.058
1922.77	146.324
1925.32	151.251
1927.86	144.218
1930.4	131.179
1932.94	133.701
1935.48	144.619
1938.02	139.929
1940.56	140.028
1943.09	134.102
1945.63	135.377
1948.16	149.891
1950.7	136.696
1953.23	148.777
1955.76	139.167
1958.29	135.572
1960.82	137.998
1963.35	138.005
1965.88	142.828
1968.41	148.833
1970.93	135.542
1973.46	146.342
1975.98	128.24
1978.51	136.632
1981.03	140.203
1983.55	143.773
1986.07	141.333
1988.59	136.494
1991.11	144.886
1993.63	137.653
1996.15	142.45
1998.66	148.459
2001.18	146.063
2003.69	142.476
2006.2	152.135
2008.72	143.76
2011.23	145.023
2013.74	135.45
2016.25	148.755
2018.76	141.566
2021.27	141.61
2023.77	148.916
2026.28	136.942
2028.78	149.113
2031.29	149.238
2033.79	140.914
2036.29	149.523
2038.79	143.609
2041.3	152.244
2043.79	147.544
2046.29	141.626
2048.79	162.474
2051.29	150.467
2053.78	143.254
2056.28	154.374
2058.77	149.659
2061.27	129.034
2063.76	157.34
2066.25	150.167
2068.74	155.237
2071.23	150.486
2073.72	154.336
2076.21	138.49
2078.69	148.482
2081.18	149.853
2083.66	132.696
2086.15	152.556
2088.63	155.122
2091.11	147.826
2093.59	147.968
2096.07	145.657
2098.55	156.994
2101.03	143.513
2103.51	141.206
2105.99	133.917
2108.46	145.328
2110.94	151.784
2113.41	158.273
2115.89	147.241
2118.36	151.236
2120.83	150.211
2123.3	151.695
2125.77	156.96
2128.24	152.132
2130.71	148.544
2133.17	148.733
2135.64	155.248
2138.11	137.663
2140.57	150.516
2143.03	154.494
2145.49	139.373
2147.96	152.235
2150.42	149.797
2152.88	152.448
2155.34	133.389
2157.79	143.673
2160.25	148.843
2162.71	148.89
2165.16	151.478
2167.62	139.989
2170.07	148.967
2172.52	140.068
2174.97	142.682
2177.43	152.967
2179.88	160.664
2182.32	155.549
2184.77	164.491
2187.22	152.968
2189.67	154.266
2192.11	158.144
2194.56	156.907
2197	150.57
2199.44	154.505
2201.89	150.763
2204.33	153.452
2206.77	154.873
2209.21	166.606
2211.64	155.194
2214.08	147.629
2216.52	146.516
2218.95	157.041
2221.39	139.123
2223.82	138.005
2226.26	148.56
2228.69	150.048
2231.12	161.946
2233.55	153.035
2235.98	140.188
2238.41	154.728
2240.84	148.383
2243.26	153.808
2245.69	154.007
2248.12	151.58
2250.54	154.399
2252.96	155.904
2255.39	148.192
2257.81	147.067
2260.23	144.615
2262.65	154.044
2265.07	164.797
2267.49	155.68
2269.9	157.138
2272.32	159.91
2274.74	162.67
2277.15	154.794
2279.57	146.893
2281.98	148.274
2284.39	150.966
2286.8	153.643
2289.21	153.666
2291.62	145.701
2294.03	157.693
2296.44	156.392
2298.84	151.122
2301.25	165.838
2303.66	168.598
2306.06	152.719
2308.46	164.866
2310.87	157.015
2313.27	155.845
2315.67	168.082
2318.07	172.322
2320.47	164.483
2322.87	145.865
2325.26	147.406
2327.66	155.695
2330.06	161.31
2332.45	146.681
2334.85	146.906
2337.24	159.341
2339.63	162.308
2342.02	157.138
2344.41	165.586
2346.8	164.536
2349.19	156.618
2351.58	154.149
2353.97	155.771
2356.35	146.371
2358.74	149.32
2361.12	152.213
2363.51	148.234
2365.89	166.344
2368.27	162.379
2370.65	172.233
2373.03	162.713
2375.41	161.489
2377.79	151.938
2380.17	152.056
2382.55	159.108
2384.92	148.065
2387.3	149.522
2389.67	157.923
2392.05	160.737
2394.42	156.587
2396.79	160.764
2399.16	151.018
2401.53	167.723
2403.9	169.096
2406.27	160.73
2408.64	160.759
2411.01	169.225
2413.37	156.857
2415.74	152.965
2418.1	167.414
2420.47	159.345
2422.83	155.305
2425.19	165.234
2427.55	156.965
2429.91	159.983
2432.27	158.785
2434.63	153.361
2436.99	166.338
2439.34	162.336
2441.7	151.218
2444.05	165.662
2446.41	164.486
2448.76	163.308
2451.11	162.127
2453.47	162.362
2455.82	159.731
2458.17	159.966
2460.51	161.634
2462.86	153.237
2465.21	156.335
2467.56	156.548
2469.9	174.091
2472.25	161.29
2474.59	155.702
2476.94	164.612
2479.28	160.472
2481.62	166.488
2483.96	163.774
2486.3	147.916
2488.64	167.034
2490.98	175.965
2493.32	152.754
2495.65	183.65
2497.99	164.792
2500.32	176.681
2502.66	178.312
2504.99	160.841
2507.32	172.734
2509.66	158.152
2511.99	161.206
2514.32	170.147
2516.65	173.199
2518.98	163
2521.3	158.705
2523.63	161.788
2525.96	178.172
2528.28	167.95
2530.61	169.558
2532.93	171.187
2535.25	152.061
2537.57	162.605
2539.89	159.796
2542.22	165.912
2544.53	170.553
2546.85	157.326
2549.17	164.963
2551.49	160.662
2553.8	166.821
2556.12	172.969
2558.43	173.122
2560.75	176.305
2563.06	182.507
2565.37	187.244
2567.68	173.925
2569.99	189.232
2572.3	190.992
2574.61	192.747
2576.92	180.87
2579.23	184.096
2581.53	182.758
2583.84	172.268
2586.14	187.568
2588.45	173.996
2590.75	157.321
2593.05	163.483
2595.35	169.679
2597.66	171.346
2599.96	165.377
2602.26	163.961
2604.55	162.536
2606.85	173.318
2609.15	168.833
2611.44	173.481
2613.74	173.548
2616.03	162.908
2618.33	173.698
2620.62	179.895
2622.91	149.344
2625.2	184.674
2627.49	174.047
2629.78	168.049
2632.07	175.904
2634.36	162.265
2636.64	168.65
2638.93	172.006
2641.22	179.997
2643.5	171
2645.78	169.737
2648.07	160.686
2650.35	165.597
2652.63	193.891
2654.91	167.605
2657.19	175.561
2659.47	181.958
2661.75	174.284
2664.03	165.016
2666.3	172.936
2668.58	177.778
2670.85	166.963
2673.13	181.288
2675.4	172.134
2677.67	170.924
2679.95	184.007
2682.22	168.608
2684.49	176.923
2686.76	167.785
2689.03	172.94
2691.29	147.724
2693.56	176.802
2695.83	180.132
2698.09	177.102
2700.36	183.721
2702.62	172.67
2704.89	176.051
2707.15	184.265
2709.41	163.488
2711.67	178.136
2713.93	186.368
2716.19	173.671
2718.45	181.926
2720.7	183.721
2722.96	161.204
2725.22	174.289
2727.47	179.27
2729.73	172.877
2731.98	166.445
2734.23	173.019
2736.49	173.082
2738.74	195.893
2740.99	181.359
2743.24	183.096
2745.49	188.108
2747.73	173.588
2749.98	181.915
2752.23	175.675
2754.47	180.821
2756.72	158.076
2758.96	169.689
2761.21	178.005
2763.45	166.662
2765.69	175.043
2767.93	171.935
2770.17	185.257
2772.41	188.74
2774.65	180.707
2776.89	175.989
2779.13	181.195
2781.36	161.611
2783.6	188.446
2785.84	167.146
2788.07	179.087
2790.3	176.04
2792.54	176.317
2794.77	181.606
2797	188.555
2799.23	185.447
2801.46	182.311
2803.69	185.88
2805.92	182.705
2808.14	172.771
2810.37	157.748
2812.59	181.531
2814.82	181.666
2817.04	178.416
2819.27	180.245
2821.49	171.919
2823.71	175.455
2825.93	182.392
2828.15	177.445
2830.37	184.379
2832.59	181.114
2834.81	189.747
2837.03	183.069
2839.24	176.384
2841.46	185.039
2843.67	178.353
2845.89	169.97
2848.1	183.801
2850.31	170.29
2852.53	163.627
2854.74	175.838
2856.95	186.367
2859.16	174.557
2861.37	179.958
2863.57	185.394
2865.78	182.23
2867.99	192.898
2870.19	177.603
2872.4	191.757
2874.6	183.364
2876.81	192.359
2879.01	187.444
2881.21	179.032
2883.41	195.097
2885.61	183.183
2887.81	174.724
2890.01	185.576
2892.21	168.266
2894.41	179.133
2896.6	174.159
2898.8	176.26
2901	169.482
2903.19	208.86
2905.38	187.816
2907.58	168.486
2909.77	168.73
2911.96	181.444
2914.15	183.436
2916.34	185.426
2918.53	182.061
2920.72	175.103
2922.91	180.717
2925.09	173.761
2927.28	174.012
2929.47	181.49
2931.65	179.955
2933.83	192.868
2936.02	182.217
2938.2	182.403
2940.38	191.654
2942.56	184.562
2944.74	177.444
2946.92	152.068
2949.1	195.912
2951.28	197.882
2953.46	174.298
2955.63	183.554
2957.81	178.197
2959.98	181.983
2962.16	191.273
2964.33	173.104
2966.5	191.587
2968.68	177.079
2970.85	175.405
2973.02	197.63
2975.19	170.215
2977.36	196.161
2979.52	187.126
2981.69	189.165
2983.86	193.081
2986.03	189.62
2988.19	171.344
2990.36	190.126
2992.52	195.971
2994.68	181.362
2996.85	164.865
2999.01	193.108
3001.17	185.943
3003.33	184.382
3005.49	190.323
3007.65	190.643
3009.8	196.601
3011.96	196.891
3014.12	189.668
3016.27	197.563
3018.43	186.559
3020.58	196.387
3022.74	189.119
3024.89	185.606
3027.04	172.519
3029.19	186.104
3031.34	211.178
3033.49	190.364
3035.64	186.719
3037.79	200.288
3039.94	190.922
3042.09	193.041
3044.23	185.529
3046.38	197.238
3048.52	205.112
3050.67	184.082
3052.81	188.095
3054.95	190.198
3057.09	196.173
3059.24	192.478
3061.38	188.774
3063.51	196.691
3065.65	204.624
3067.79	204.802
3069.93	189.437
3072.07	181.825
3074.2	211.187
3076.34	203.59
3078.47	213.531
3080.61	209.826
3082.74	196.344
3084.87	208.295
3087	192.871
3089.14	214.691
3091.27	211.07
3093.39	205.491
3095.52	194.009
3097.65	200.245
3099.78	214.402
3101.91	218.723
3104.03	207.215
3106.16	197.667
3108.28	190.079
3110.41	196.435
3112.53	198.826
3114.65	209.22
3116.77	203.614
3118.89	204.015
3121.01	212.498
3123.13	216.989
3125.25	205.328
3127.37	197.684
3129.49	202.214
3131.61	212.9
3133.72	197.082
3135.84	205.748
3137.95	206.235
3140.06	208.757
3142.18	198.905
3144.29	222.037
3146.4	222.48
3148.51	206.327
3150.62	235.78
3152.73	213.261
3154.84	213.586
3156.95	218.073
3159.06	230.933
3161.16	218.718
3163.27	227.431
3165.37	202.558
3167.48	215.435
3169.58	230.433
3171.69	205.488
3173.79	231.08
3175.89	229.207
3177.99	214.613
3180.09	229.597
3182.19	219.174
3184.29	234.152
3186.39	225.816
3188.49	232.269
3190.58	196.343
3192.68	219.872
3194.77	217.938
3196.87	224.564
3198.96	216.353
3201.06	218.882
3203.15	214.988
3205.24	206.806
3207.33	211.516
3209.42	220.545
3211.51	197.277
3213.6	221.457
3215.69	226.275
3217.78	228.927
3219.86	233.731
3221.95	240.735
3224.04	221.568
3226.12	235.143
3228.2	229.036
3230.29	218.495
3232.37	221.128
3234.45	221.518
3236.53	213.072
3238.61	197.985
3240.7	205.034
3242.77	212.115
3244.85	212.601
3246.93	199.627
3249.01	217.885
3251.08	211.495
3253.16	211.796
3255.23	214.288
3257.31	212.284
3259.38	223.871
3261.46	217.48
3263.53	211.093
3265.6	218.311
3267.67	207.635
3269.74	201.15
3271.81	213.039
3273.88	222.518
3275.95	215.877
3278.02	190.949
3280.08	193.432
3282.15	205.086
3284.21	209.883
3286.28	210.094
3288.34	214.898
3290.41	203.6
3292.47	196.876
3294.53	199.353
3296.59	211.058
3298.65	206.633
3300.71	202.243
3302.77	200.124
3304.83	200.321
3306.89	219.064
3308.95	216.951
3311	217.145
3313.06	217.324
3315.11	201.246
3317.17	227.039
3319.22	210.954
3321.27	218.18
3323.33	232.467
3325.38	214.038
3327.43	214.326
3329.48	212.264
3331.53	205.575
3333.58	208.307
3335.63	194.526
3337.67	206.681
3339.72	197.504
3341.77	204.845
3343.81	207.427
3345.86	191.028
3347.9	205.421
3349.95	219.876
3351.99	224.829
3354.03	203.588
3356.07	194.278
3358.11	215.976
3360.15	199.492
3362.19	216.468
3364.23	211.913
3366.27	214.53
3368.31	212.358
3370.34	229.403
3372.38	198.367
3374.42	205.759
3376.45	213.143
3378.48	222.936
3380.52	203.797
3382.55	223.24
3384.58	206.479
3386.61	218.688
3388.64	221.234
3390.68	211.673
3392.7	211.785
3394.73	209.497
3396.76	229.041
3398.79	217.086
3400.82	224.512
3402.84	231.91
3404.87	219.868
3406.89	200.532
3408.92	217.651
3410.94	222.595
3412.96	237.284
3414.98	210.595
3417	244.781
3419.03	240.004
3421.05	249.839
3423.06	252.359
3425.08	259.768
3427.1	255.011
3429.12	220.968
3431.14	218.66
3433.15	228.585
3435.17	206.737
3437.18	219.15
3439.2	199.738
3441.21	217.089
3443.22	217.301
3445.23	205.256
3447.25	217.826
3449.26	208.241
3451.27	208.5
3453.28	196.433
3455.28	196.728
3457.29	216.885
3459.3	199.878
3461.31	220.127
3463.31	213.04
3465.32	203.433
3467.32	221.296
3469.33	206.643
3471.33	199.457
3473.33	192.156
3475.34	197.47
3477.34	195.252
3479.34	218.257
3481.34	203.421
3483.34	208.779
3485.34	198.941
3487.33	209.371
3489.33	214.74
3491.33	215.033
3493.32	210.218
3495.32	215.572
3497.32	208.153
3499.31	200.704
3501.3	208.58
3503.3	239.493
3505.29	221.75
3507.28	206.508
3509.27	242.539
3511.26	206.679
3513.25	222.157
3515.24	217.088
3517.23	212.012
3519.22	199.22
3521.2	194.133
3523.19	204.478
3525.18	209.7
3527.16	196.915
3529.15	189.233
3531.13	204.782
3533.11	212.677
3535.1	207.716
3537.08	169.198
3539.06	203.03
3541.04	203.246
3543.02	203.439
3545	193.239
3546.98	206.373
3548.96	172.75
3550.93	201.436
3552.91	196.25
3554.89	193.712
3556.86	204.212
3558.84	191.313
3560.81	214.878
3562.78	194.182
3564.76	199.556
3566.73	204.965
3568.7	197.369
3570.67	197.569
3572.64	205.629
3574.61	205.859
3576.58	195.606
3578.55	198.495
3580.52	206.675
3582.48	209.618
3584.45	209.932
3586.41	202.311
3588.38	205.256
3590.35	210.86
3592.31	208.509
3594.27	192.851
3596.23	185.141
3598.2	198.737
3600.16	212.344
3602.12	185.87
3604.08	191.458
3606.04	186.319
3608	178.472
3609.95	192.086
3611.91	176.145
3613.87	203.26
3615.83	184.588
3617.78	192.86
3619.74	184.924
3621.69	182.335
3623.64	193.216
3625.6	190.575
3627.55	187.933
3629.5	190.69
3631.45	174.487
3633.4	209.697
3635.35	179.99
3637.3	177.364
3639.25	191.023
3641.2	193.897
3643.15	166.939
3645.09	177.972
3647.04	194.512
3648.98	200.001
3650.93	178.319
3652.87	175.699
3654.82	181.231
3656.76	184.041
3658.7	186.849
3660.64	195.115
3662.58	178.802
3664.53	187.07
3666.47	162.574
3668.4	206.402
3670.34	170.945
3672.28	190.183
3674.22	187.575
3676.16	179.503
3678.09	176.924
3680.03	188.087
3681.96	174.555
3683.9	158.259
3685.83	177.771
3687.76	175.259
3689.69	161.687
3691.63	195.134
3693.56	184.305
3695.49	176.2
3697.42	173.662
3699.35	185.024
3701.28	171.348
3703.2	179.922
3705.13	185.756
3707.06	191.613
3708.98	166.669
3710.91	161.287
3712.83	172.742
3714.76	189.827
3716.68	181.596
3718.6	178.971
3720.53	162.226
3722.45	179.328
3724.37	171.012
3726.29	193.789
3728.21	188.295
3730.13	171.456
3732.05	185.806
3733.97	174.626
3735.88	166.267
3737.8	174.954
3739.72	158.024
3741.63	166.702
3743.55	178.245
3745.46	178.381
3747.38	169.94
3749.29	181.482
3751.2	178.724
3753.11	193.116
3755.02	181.748
3756.93	167.495
3758.84	170.407
3760.75	190.501
3762.66	176.22
3764.57	173.39
3766.48	170.563
3768.39	176.354
3770.29	173.555
3772.2	190.852
3774.1	182.322
3776.01	170.91
3777.91	188.24
3779.81	176.85
3781.72	179.848
3783.62	174.229
3785.52	177.249
3787.42	174.496
3789.32	174.613
3791.22	183.396
3793.12	171.98
3795.02	177.922
3796.92	183.89
3798.81	172.479
3800.71	172.658
3802.61	175.747
3804.5	167.218
3806.4	167.412
3808.29	179.266
3810.18	164.874
3812.08	182.572
3813.97	165.212
3815.86	171.23
3817.75	186.05
3819.64	168.633
3821.53	154.11
3823.42	165.996
3825.31	169.061
3827.2	180.966
3829.09	166.395
3830.97	160.657
3832.86	184.417
3834.75	175.726
3836.63	167.009
3838.52	178.977
3840.4	173.195
3842.28	167.48
3844.17	191.328
3846.05	173.622
3847.93	173.675
3849.81	164.826
3851.69	167.855
3853.57	176.803
3855.45	179.822
3857.33	159.031
3859.21	164.972
3861.08	182.827
3862.96	162.054
3864.84	153.237
3866.71	156.374
3868.59	153.597
3870.46	171.67
3872.34	162.759
3874.21	174.749
3876.08	165.841
3877.95	174.859
3879.82	174.914
3881.69	166.001
3883.56	166.066
3885.44	172.126
3887.3	166.219
3889.17	163.308
3891.04	175.394
3892.91	187.52
3894.77	166.682
3896.64	157.804
3898.51	163.94
3900.37	164.07
3902.23	164.198
3904.1	158.281
3905.96	161.416
3907.82	167.559
3909.69	152.574
3911.55	158.754
3913.41	167.967
3915.27	149.945
3917.13	177.385
3918.99	156.331
3920.84	159.561
3922.7	162.801
3924.56	181.27
3926.42	169.271
3928.27	160.291
3930.13	160.455
3931.98	145.305
3933.84	169.906
3935.69	157.776
3937.54	173.214
3939.4	164.152
3941.25	167.375
3943.1	167.555
3944.95	170.797
3946.8	161.718
3948.65	164.948
3950.5	168.163
3952.35	177.548
3954.19	156.037
3956.04	149.956
3957.89	168.601
3959.73	156.291
3961.58	168.737
3963.42	159.51
3965.27	175.05
3967.11	153.395
3968.96	159.609
3970.8	144.131
3972.64	172.057
3974.48	165.887
3976.32	169.015
3978.16	165.932
3980	169.036
3981.84	169.025
3983.68	162.814
3985.52	150.408
3987.36	159.704
3989.19	162.805
3991.03	147.317
3992.86	162.86
3994.7	172.217
3996.53	150.558
3998.37	153.737
