#Acq. time (s)=	30
#Accumulations=	2
#Range (cm-¹)=	1200...2365
#Windows=	3
#Auto scanning=	Off
#Autofocus=	Off
#Macrospot=	Off
#AutoExposure=	Off
#Spike filter=	Multiple accum.
#Delay time (s)=	2
#Binning=	1
#Readout mode=	Signal
#DeNoise=	Off
#ICS correction=	On
#Dark correction=	Off
#Inst. Process=	Off
#Detector Gain=	Best Dynamic
#Detector ADC=	50 kHz HS
#Detector temperature (°C)=	-60.28
#Instrument=	LabRAM HR Evol
#Detector=	SIN-EM FIVIS
#Objective=	x100_VIS_LWD
#Grating=	1800 (450-850nm)
#ND Filter=	100%
#Laser=	532nm_Edge
#Hole=	100.021
#Temperature=	0
#Range=	Visible
#StageXY=	75x50mm Scan+
#StageZ=	Z motor
#X (µm)=	0
#Y (µm)=	0
#Z (µm)=	-66.9
#Full time(mm:ss)=	3:24
#Project=	21_11_26
#Sample=	BU19(2)w
#Site=	
#Title=	BU19(2)w-A-FF1-FI07-V_1800 (450-850nm)_532nm_Edge_100%_x100_VIS_LWD_H100um_30sX2
#Remark=	
#Date=	26.11.2021 16:46
#Acquired=	26.11.2021 16:46:02
1202.72	87.6466
1203	94.2345
1203.28	91.0332
1203.56	99.5918
1203.84	100.591
1204.11	87.6375
1204.39	87.6025
1204.67	91.9059
1204.95	88.6906
1205.23	89.7477
1205.5	86.4892
1205.78	99.3416
1206.06	84.2648
1206.34	83.1506
1206.61	93.8364
1206.89	81.9991
1207.17	84.1027
1207.45	85.1405
1207.73	86.1889
1208	85.0968
1208.28	88.2935
1208.56	93.6257
1208.84	83.968
1209.11	82.8748
1209.39	88.1991
1209.67	81.7726
1209.95	83.9069
1210.23	88.1747
1210.5	81.7431
1210.78	77.4349
1211.06	85.9468
1211.34	82.7156
1211.61	84.8179
1211.89	83.725
1212.17	77.2919
1212.45	82.5917
1212.72	82.5685
1213	78.282
1213.28	79.3229
1213.56	77.1765
1213.83	76.1012
1214.11	77.1488
1214.39	83.5393
1214.67	81.4123
1214.94	84.6067
1215.22	80.3466
1215.5	77.1489
1215.78	79.2733
1216.05	79.2661
1216.33	84.566
1216.61	78.1522
1216.89	75.991
1217.16	79.1488
1217.44	78.0611
1217.72	81.2248
1218	78.0146
1218.27	79.0575
1218.55	87.5312
1218.83	81.1443
1219.1	73.7058
1219.38	80.0665
1219.66	69.4482
1219.94	80.0474
1220.21	77.9111
1220.49	82.1504
1220.77	77.9073
1221.04	73.6599
1221.32	73.6517
1221.6	73.6378
1221.88	74.6839
1222.15	86.3192
1222.43	64.0377
1222.71	75.6555
1222.98	74.5585
1223.26	76.6381
1223.54	77.6598
1223.81	73.399
1224.09	77.5988
1224.37	71.2335
1224.65	72.2711
1224.92	74.368
1225.2	78.5796
1225.48	78.5765
1225.76	74.3626
1226.03	76.4814
1226.31	73.3227
1226.59	73.3177
1226.86	78.5907
1227.14	77.5195
1227.42	79.6162
1227.69	75.3548
1227.97	67.9045
1228.25	79.4483
1228.52	79.4022
1228.8	79.326
1229.08	72.9596
1229.35	67.6992
1229.63	69.9726
1229.91	79.6211
1230.18	72.163
1230.46	75.2548
1230.74	76.2805
1231.01	77.3414
1231.29	76.2424
1231.57	79.2437
1231.84	75.054
1232.12	78.2043
1232.4	76.0992
1232.67	76.0893
1232.95	75.0361
1233.23	77.1322
1233.5	72.922
1233.78	75.0202
1234.06	73.973
1234.33	76.0801
1234.61	71.8842
1234.89	70.843
1235.16	72.9561
1235.44	74.0123
1235.71	75.0695
1235.99	79.2834
1236.27	80.3405
1236.54	69.8243
1236.82	66.661
1237.1	78.2119
1237.37	75.0414
1237.65	77.1163
1237.93	76.0377
1238.2	83.3583
1238.48	72.8334
1238.76	79.1005
1239.03	70.6879
1239.31	80.1118
1239.58	70.6644
1239.86	72.7528
1240.14	76.9402
1240.41	76.9369
1240.69	76.9357
1240.97	76.9371
1241.24	76.9403
1241.52	74.8458
1241.79	70.6454
1242.07	72.7278
1242.35	74.8145
1242.62	75.863
1242.9	67.483
1243.18	74.8288
1243.45	82.1759
1243.73	61.2088
1244	77.9808
1244.28	77.9853
1244.56	79.0319
1244.83	73.7846
1245.11	75.8729
1245.39	77.9515
1245.66	81.0741
1245.94	89.4237
1246.21	72.6418
1246.49	76.818
1246.76	73.6709
1247.04	82.0444
1247.32	76.8084
1247.59	76.8011
1247.87	70.5192
1248.14	85.1616
1248.42	85.1292
1248.7	76.7447
1248.97	86.1528
1249.25	72.5605
1249.52	76.7491
1249.8	85.1105
1250.08	76.7398
1250.35	86.153
1250.63	86.1341
1250.9	74.6116
1251.18	85.0458
1251.45	77.7135
1251.73	75.6096
1252.01	73.5065
1252.28	79.7588
1252.56	82.8759
1252.83	76.5955
1253.11	83.8852
1253.39	84.912
1253.66	82.8158
1253.94	82.8154
1254.21	81.7842
1254.49	81.7989
1254.76	80.7718
1255.04	88.0872
1255.31	78.6888
1255.59	84.9599
1255.87	80.782
1256.14	89.131
1256.42	79.7359
1256.69	83.9188
1256.97	86.0193
1257.24	86.0228
1257.52	93.329
1257.79	98.5366
1258.07	95.3943
1258.35	105.828
1258.62	103.73
1258.9	96.4099
1259.17	96.3864
1259.45	96.3833
1259.72	97.4375
1260	98.495
1260.27	96.4461
1260.55	101.641
1260.82	107.879
1261.1	119.318
1261.37	126.591
1261.65	126.57
1261.92	129.716
1262.2	142.361
1262.48	155.093
1262.75	167.744
1263.02	167.469
1263.3	186.044
1263.58	198.471
1263.85	189.271
1264.13	195.682
1264.4	169.727
1264.68	162.489
1264.95	148.796
1265.23	133.082
1265.5	118.448
1265.78	111.122
1266.05	103.787
1266.33	103.786
1266.6	101.703
1266.88	100.67
1267.15	93.3716
1267.43	93.3925
1267.7	94.4626
1267.98	91.3511
1268.25	90.334
1268.53	84.0919
1268.8	94.5947
1269.08	105.088
1269.35	92.5319
1269.63	90.4472
1269.9	96.7275
1270.18	93.5629
1270.45	94.5807
1270.73	92.4659
1271	90.3494
1271.28	87.1934
1271.55	97.6515
1271.83	88.2208
1272.1	96.598
1272.38	93.4797
1272.65	95.5993
1272.93	93.5406
1273.2	89.3737
1273.47	97.7797
1273.75	89.4198
1274.03	95.7333
1274.3	95.758
1274.57	93.6753
1274.85	91.5811
1275.12	99.9679
1275.4	96.8209
1275.67	95.7818
1275.95	104.19
1276.22	95.813
1276.5	100.034
1276.77	104.251
1277.05	102.17
1277.32	103.234
1277.6	109.561
1277.87	116.942
1278.14	110.664
1278.42	111.737
1278.69	123.322
1278.97	124.408
1279.24	130.739
1279.52	136.019
1279.79	145.479
1280.07	160.192
1280.34	180.156
1280.61	207.492
1280.89	244.321
1281.16	301.145
1281.44	379.079
1281.71	482.34
1281.99	639.246
1282.26	817.122
1282.53	1085.64
1282.81	1362.65
1283.08	1639.27
1283.36	1918.34
1283.63	2117.44
1283.91	2055.72
1284.18	1869.68
1284.45	1457.49
1284.73	1041.19
1285	729.477
1285.28	510.291
1285.55	372.074
1285.83	295.089
1286.1	239.292
1286.37	187.742
1286.65	158.254
1286.92	154.012
1287.2	146.639
1287.47	137.154
1287.75	121.344
1288.02	122.374
1288.29	126.57
1288.57	93.945
1288.84	111.838
1289.12	110.792
1289.39	101.335
1289.66	110.828
1289.94	96.1055
1290.21	90.8588
1290.49	103.515
1290.76	97.1933
1291.03	97.1821
1291.31	94.0164
1291.58	87.6949
1291.86	94.0127
1292.13	91.9022
1292.4	90.8492
1292.68	88.7479
1292.95	98.221
1293.22	81.3628
1293.5	87.6853
1293.77	84.5528
1294.05	84.5871
1294.32	94.1121
1294.59	84.6318
1294.87	92.0132
1295.14	90.9516
1295.42	88.8581
1295.69	93.1155
1295.96	86.8317
1296.24	82.6675
1296.51	81.6444
1296.79	83.7664
1297.06	82.711
1297.33	85.8722
1297.61	83.7433
1297.88	77.3866
1298.15	81.5934
1298.43	84.7393
1298.7	90.0293
1298.97	76.293
1299.25	82.615
1299.52	88.9376
1299.79	79.4226
1300.07	78.3656
1300.34	73.1001
1300.62	76.2745
1300.89	78.3878
1301.16	80.4953
1301.44	74.1568
1301.71	82.6068
1301.98	77.34
1302.25	77.3515
1302.53	74.1887
1302.8	75.2466
1303.08	76.3013
1303.35	80.5208
1303.62	80.5113
1303.9	75.2165
1304.17	68.8777
1304.44	76.2702
1304.72	73.102
1304.99	78.3801
1305.26	77.3141
1305.54	76.2443
1305.81	81.5033
1306.08	74.0984
1306.35	79.3542
1306.63	66.6815
1306.9	76.1665
1307.18	70.8926
1307.45	73.0077
1307.72	68.7903
1308	67.734
1308.27	74.0612
1308.54	67.7359
1308.81	71.9501
1309.09	73.0082
1309.36	70.9092
1309.63	65.6432
1309.91	70.9284
1310.18	66.713
1310.45	64.6
1310.73	64.5952
1311	73.0368
1311.27	73.0393
1311.55	76.2088
1311.82	78.3225
1312.09	63.5512
1312.37	72.0071
1312.64	66.7378
1312.91	73.0774
1313.18	67.7942
1313.46	67.7828
1313.73	63.5571
1314	67.7731
1314.28	69.8785
1314.55	67.7668
1314.82	68.8258
1315.09	65.6649
1315.37	66.7283
1315.64	70.9595
1315.91	62.5195
1316.18	67.8083
1316.46	72.0295
1316.73	68.856
1317	72.0207
1317.28	67.7938
1317.55	70.9613
1317.82	67.8022
1318.09	67.8083
1318.37	66.7556
1318.64	72.0398
1318.91	61.4763
1319.18	73.0971
1319.46	65.6992
1319.73	69.9216
1320	68.8621
1320.28	70.979
1320.55	62.5276
1320.82	70.9747
1321.09	70.9638
1321.37	69.8913
1321.64	69.8709
1321.91	68.7928
1322.18	73.0006
1322.46	66.6498
1322.73	64.5306
1323	70.8487
1323.27	63.4563
1323.55	66.6062
1323.82	70.8308
1324.09	69.7789
1324.36	66.6161
1324.64	66.6134
1324.91	65.5593
1325.18	67.6657
1325.45	63.4514
1325.73	69.7598
1326	68.674
1326.27	59.1555
1326.54	65.4271
1326.81	62.251
1327.09	71.7138
1327.36	65.4229
1327.63	67.5715
1327.9	66.5414
1328.18	71.8332
1328.45	73.9689
1328.72	69.7786
1328.99	63.4703
1329.27	69.8061
1329.54	63.4672
1329.81	71.9137
1330.08	65.5799
1330.35	67.6837
1330.63	63.4551
1330.9	72.9343
1331.17	64.4814
1331.44	64.4615
1331.71	66.5431
1331.99	73.8856
1332.26	70.701
1332.53	68.5755
1332.8	62.2408
1333.07	69.5817
1333.35	66.4017
1333.62	72.6862
1333.89	63.206
1334.16	69.4904
1334.43	66.3197
1334.71	67.3515
1334.98	63.1355
1335.25	63.1216
1335.52	69.4045
1335.79	67.2925
1336.07	66.2311
1336.34	68.3168
1336.61	65.1602
1336.88	65.1507
1337.15	67.2391
1337.43	57.7979
1337.7	66.1776
1337.97	70.3618
1338.24	67.2003
1338.51	71.3743
1338.78	62.984
1339.06	66.1145
1339.33	64.0125
1339.6	65.0569
1339.87	66.1058
1340.14	67.156
1340.42	67.1568
1340.69	62.9697
1340.96	73.4439
1341.23	72.3945
1341.5	69.2489
1341.77	60.8662
1342.04	63.9998
1342.32	70.27
1342.59	58.7411
1342.86	67.0957
1343.13	56.6165
1343.4	67.0675
1343.67	72.2911
1343.95	66.0129
1344.22	68.1033
1344.49	68.1039
1344.76	62.874
1345.03	62.8675
1345.3	65.9933
1345.58	62.8417
1345.85	76.4065
1346.12	66.9836
1346.39	65.9157
1346.66	62.7505
1346.93	63.7733
1347.2	63.7534
1347.47	68.9475
1347.75	67.885
1348.02	64.7445
1348.29	65.7778
1348.56	67.8558
1348.83	68.8924
1349.1	64.7128
1349.37	73.0346
1349.65	62.6034
1349.92	69.8812
1350.19	67.7854
1350.46	57.3621
1350.73	66.7187
1351	72.9454
1351.27	63.563
1351.54	67.7126
1351.81	72.8942
1352.09	62.4894
1352.36	65.6072
1352.63	66.6541
1352.9	70.8285
1353.17	66.6875
1353.44	67.7381
1353.71	68.8364
1353.98	68.8999
1354.25	63.6267
1354.53	70.8104
1354.8	68.6592
1355.07	69.7052
1355.34	66.593
1355.61	64.4914
1355.88	69.6718
1356.15	74.8894
1356.42	64.5045
1356.69	71.7615
1356.96	69.6764
1357.24	67.5924
1357.51	71.7391
1357.78	74.8441
1358.05	76.9082
1358.32	69.628
1358.59	73.7661
1358.86	74.7905
1359.13	72.6997
1359.4	67.4986
1359.67	67.4882
1359.94	71.6268
1360.22	73.6811
1360.49	73.6585
1360.76	67.4205
1361.03	74.6586
1361.3	72.5803
1361.57	77.7576
1361.84	71.5391
1362.11	70.4986
1362.38	76.7032
1362.65	75.6589
1362.92	71.5091
1363.19	73.5767
1363.46	81.8642
1363.73	78.7707
1364	79.8157
1364.28	78.7891
1364.55	82.931
1364.82	88.1038
1365.09	90.1652
1365.36	80.8288
1365.63	76.6689
1365.9	76.65
1366.17	83.8756
1366.44	76.614
1366.71	73.4923
1366.98	79.6746
1367.25	77.579
1367.52	80.6668
1367.79	81.6916
1368.06	89.9703
1368.33	86.8756
1368.6	112.723
1368.87	139.608
1369.15	166.495
1369.41	164.441
1369.68	137.567
1369.95	106.534
1370.23	96.1834
1370.5	92.0372
1370.77	85.8123
1371.04	82.7008
1371.31	87.8502
1371.58	85.7595
1371.85	80.5681
1372.12	88.7918
1372.39	83.599
1372.66	84.6004
1372.93	83.5463
1373.2	84.5622
1373.47	79.3968
1373.74	82.4779
1374.01	75.2554
1374.28	84.5218
1374.55	90.697
1374.82	94.8114
1375.09	85.5318
1375.36	91.7006
1375.63	90.6735
1375.9	98.9259
1376.17	87.5908
1376.44	83.4742
1376.71	94.782
1376.98	91.6689
1377.25	93.6966
1377.52	92.6282
1377.79	93.6682
1378.06	94.7209
1378.33	96.8174
1378.6	90.683
1378.87	102.072
1379.14	107.243
1379.41	112.394
1379.68	106.193
1379.95	110.3
1380.22	106.155
1380.49	108.169
1380.76	109.11
1381.03	116.26
1381.3	111.074
1381.57	127.549
1381.84	129.572
1382.11	139.789
1382.38	140.747
1382.65	145.822
1382.92	139.609
1383.19	166.234
1383.46	168.238
1383.73	188.7
1384	197.894
1384.27	242.975
1384.54	273.74
1384.81	326.056
1385.08	379.442
1385.34	501.617
1385.61	652.665
1385.88	914.591
1386.15	1319.32
1386.42	1975.65
1386.69	2955.86
1386.96	3999.74
1387.23	4603.64
1387.5	4427.57
1387.77	3384.46
1388.04	2228.29
1388.31	1381.78
1388.58	842.107
1388.85	561.585
1389.12	405.279
1389.39	313.129
1389.66	255.654
1389.93	216.661
1390.2	192.977
1390.46	183.595
1390.73	164.045
1391	152.759
1391.27	132.198
1391.54	140.385
1391.81	131.148
1392.08	112.676
1392.35	112.646
1392.62	115.693
1392.89	106.458
1393.16	111.561
1393.43	110.524
1393.7	103.348
1393.97	99.244
1394.23	105.376
1394.5	93.0881
1394.77	93.0817
1395.04	97.1702
1395.31	94.1102
1395.58	89.008
1395.85	89.018
1396.12	82.8798
1396.39	87.9947
1396.66	95.1515
1396.93	94.1163
1397.2	83.8707
1397.46	87.9468
1397.73	80.7695
1398	93.035
1398.27	98.1476
1398.54	82.8104
1398.81	85.8887
1399.08	87.9403
1399.35	80.7824
1399.62	87.9588
1399.89	83.8742
1400.16	78.764
1400.42	88.9979
1400.69	84.9152
1400.96	79.8165
1401.23	76.7532
1401.5	71.6298
1401.77	83.9274
1402.04	82.9021
1402.31	81.9052
1402.58	80.9261
1402.84	85.0779
1403.11	85.115
1403.38	89.2476
1403.65	86.1809
1403.92	89.2612
1404.19	88.2159
1404.46	89.1916
1404.73	85.1002
1404.99	90.2219
1405.26	99.443
1405.53	100.451
1405.8	107.61
1406.07	114.767
1406.34	118.849
1406.61	126.011
1406.87	140.35
1407.14	156.756
1407.41	164.967
1407.68	198.811
1407.95	209.075
1408.22	243.947
1408.49	265.493
1408.76	275.763
1409.02	286.038
1409.29	239.913
1409.56	214.292
1409.83	181.484
1410.1	153.797
1410.37	132.255
1410.63	114.793
1410.9	106.559
1411.17	95.2499
1411.44	87.029
1411.71	79.8411
1411.98	83.9281
1412.25	77.7779
1412.51	75.7392
1412.78	77.8104
1413.05	74.782
1413.32	67.6837
1413.59	65.6699
1413.86	67.6721
1414.12	66.5569
1414.39	68.6223
1414.66	65.5893
1414.93	65.6195
1415.2	64.5881
1415.47	69.7233
1415.73	64.5898
1416	66.6447
1416.27	63.5693
1416.54	65.6285
1416.81	65.6345
1417.07	64.6139
1417.34	61.5394
1417.61	59.4916
1417.88	65.6624
1418.15	58.4729
1418.42	62.5839
1418.68	57.448
1418.95	62.5886
1419.22	60.5336
1419.49	62.5898
1419.76	64.6379
1420.02	62.5705
1420.29	59.4758
1420.56	63.5724
1420.83	58.4248
1421.1	63.5448
1421.36	59.4268
1421.63	62.5001
1421.9	57.3712
1422.17	62.5196
1422.44	62.5402
1422.7	58.4514
1422.97	60.5384
1423.24	64.7054
1423.51	57.5541
1423.77	57.4171
1424.04	62.4222
1424.31	65.5151
1424.58	62.3779
1424.85	56.2308
1425.11	64.4452
1425.38	62.4385
1425.65	59.3691
1425.92	56.2837
1426.19	62.4581
1426.45	65.5306
1426.72	62.4416
1426.99	50.1203
1427.26	62.4073
1427.52	58.2893
1427.79	58.265
1428.06	58.2454
1428.33	47.9962
1428.59	55.1597
1428.86	52.0883
1429.13	55.1628
1429.4	53.1189
1429.67	55.173
1429.93	57.2298
1430.2	57.2417
1430.47	50.0827
1430.74	57.2684
1431	53.184
1431.27	56.2845
1431.54	55.2773
1431.81	56.3128
1432.07	56.3126
1432.34	49.1184
1432.61	47.0543
1432.87	55.2532
1433.14	55.2358
1433.41	48.0387
1433.68	57.2401
1433.95	54.144
1434.21	52.0821
1434.48	51.0524
1434.75	54.1491
1435.01	52.1108
1435.28	50.063
1435.55	52.1123
1435.82	50.0612
1436.08	52.1078
1436.35	54.1533
1436.62	48.0018
1436.89	47.9968
1437.15	49.016
1437.42	52.0841
1437.69	53.1064
1437.95	53.1
1438.22	55.1451
1438.49	51.0508
1438.76	44.9122
1439.02	53.1113
1439.29	50.0391
1439.56	51.0659
1439.82	46.9746
1440.09	48.0098
1440.36	46.9977
1440.63	55.206
1440.89	51.1072
1441.16	50.0821
1441.43	52.1356
1441.69	47.0039
1441.96	53.1472
1442.23	48.0161
1442.49	48.0255
1442.76	60.3316
1443.03	51.1124
1443.3	55.2076
1443.56	52.1215
1443.83	45.9622
1444.1	53.133
1444.36	57.2309
1444.63	53.1334
1444.9	52.1228
1445.16	52.1351
1445.43	45.9952
1445.7	48.0427
1445.97	45.9859
1446.23	48.0331
1446.5	51.1056
1446.77	50.0756
1447.03	46.9945
1447.3	49.0413
1447.57	48.0104
1447.83	44.9279
1448.1	44.9228
1448.37	47.9976
1448.63	46.9801
1448.9	44.9391
1449.17	48.0183
1449.43	50.0685
1449.7	46.987
1449.97	43.9039
1450.23	46.972
1450.5	44.9135
1450.77	49.0093
1451.03	51.0549
1451.3	47.9756
1451.57	52.0702
1451.83	50.015
1452.1	45.911
1452.37	50.0052
1452.63	42.8309
1452.9	46.9291
1453.17	43.8571
1453.43	44.8863
1453.7	42.8405
1453.97	44.8899
1454.23	44.8862
1454.5	43.8585
1454.77	51.0309
1455.03	47.9564
1455.3	46.9297
1455.56	45.9014
1455.83	47.9512
1456.1	36.6857
1456.36	44.8882
1456.63	45.9125
1456.9	48.9827
1457.16	44.875
1457.43	42.8181
1457.7	49.9856
1457.96	49.9818
1458.23	46.9061
1458.49	45.8814
1458.76	46.9064
1459.03	47.933
1459.29	40.7631
1459.56	41.7885
1459.82	43.838
1460.09	43.8358
1460.36	45.8813
1460.62	42.8042
1460.89	39.7269
1461.16	44.8432
1461.42	42.7886
1461.69	46.8784
1461.95	38.6802
1462.22	40.7204
1462.49	43.7828
1462.75	45.8199
1463.02	44.7862
1463.28	40.6838
1463.55	38.6281
1463.82	42.7089
1464.08	42.7068
1464.35	39.6516
1464.61	45.8085
1464.88	48.895
1465.15	44.8214
1465.41	43.763
1465.68	40.618
1465.94	37.5222
1466.21	44.6612
1466.48	43.6537
1466.74	43.6489
1467.01	40.5681
1467.27	38.5218
1467.54	43.6261
1467.8	42.6025
1468.07	45.6591
1468.34	37.4959
1468.6	36.4745
1468.87	43.6133
1469.13	40.5502
1469.4	44.625
1469.67	39.5201
1469.93	41.5509
1470.2	43.5791
1470.46	43.5701
1470.73	42.5445
1470.99	36.4254
1471.26	41.5162
1471.53	34.3789
1471.79	40.4824
1472.06	42.5129
1472.32	48.6189
1472.59	39.4521
1472.85	38.4321
1473.12	43.5213
1473.39	45.5536
1473.65	43.5103
1473.92	43.5031
1474.18	39.4263
1474.45	43.4933
1474.71	45.5279
1474.98	44.5136
1475.24	38.4091
1475.51	36.3732
1475.78	38.407
1476.04	45.5268
1476.31	35.3442
1476.57	43.4799
1476.84	42.458
1477.1	38.3815
1477.37	42.4428
1477.63	39.3876
1477.9	42.4364
1478.16	36.333
1478.43	36.3281
1478.69	44.4533
1478.96	42.4131
1479.22	40.3734
1479.49	43.4143
1479.76	42.3894
1480.02	36.2849
1480.29	37.292
1480.55	38.293
1480.82	36.2513
1481.08	39.2876
1481.35	42.3271
1481.61	43.3336
1481.88	36.2351
1482.14	38.2697
1482.41	40.3059
1482.67	38.2834
1482.94	42.3498
1483.2	41.3337
1483.47	37.2766
1483.73	45.4021
1484	44.3861
1484.26	43.3685
1484.53	41.3201
1484.79	38.2527
1485.06	42.2644
1485.32	35.1217
1485.59	42.1848
1485.85	43.162
1486.12	38.1966
1486.38	38.2068
1486.65	42.2759
1486.91	40.2046
1487.18	46.3041
1487.44	40.2302
1487.71	40.2174
1487.97	35.143
1488.24	41.2138
1488.5	43.2315
1488.77	37.1471
1489.03	38.1494
1489.3	38.1415
1489.56	40.1601
1489.83	39.1442
1490.09	41.1641
1490.36	39.1398
1490.62	46.2201
1490.89	42.1676
1491.15	43.1698
1491.42	37.0937
1491.68	41.1336
1491.95	40.12
1492.21	40.1191
1492.48	41.1313
1492.74	38.0961
1493	39.1044
1493.27	41.1242
1493.53	34.0469
1493.8	39.0981
1494.06	39.0958
1494.33	46.1715
1494.59	39.0976
1494.86	43.1442
1495.12	44.1527
1495.39	41.1125
1495.65	37.0575
1495.92	36.0332
1496.18	43.091
1496.45	41.0629
1496.71	41.0565
1496.97	39.0319
1497.24	43.0629
1497.5	41.0432
1497.77	39.0236
1498.03	37.0022
1498.3	41.0374
1498.56	44.0646
1498.82	40.028
1499.09	41.0379
1499.35	40.0297
1499.62	40.0316
1499.88	39.025
1500.15	40.0373
1500.41	39.0284
1500.68	40.037
1500.94	39.0253
1501.2	44.071
1501.47	43.0561
1501.73	42.0378
1502	43.0436
1502.26	40.0142
1502.52	35.9755
1502.79	43.0343
1503.05	42.0155
1503.32	43.015
1503.58	40.9923
1503.85	41.9924
1504.11	37.9583
1504.37	34.9361
1504.64	43.0045
1504.9	43.0041
1505.17	38.9678
1505.43	38.963
1505.7	37.9481
1505.96	40.9602
1506.22	43.9673
1506.49	41.9487
1506.75	41.9466
1507.02	45.9776
1507.28	40.9456
1507.54	37.9235
1507.81	34.9014
1508.07	38.9311
1508.34	41.9506
1508.6	39.9324
1508.86	39.9325
1509.13	38.9256
1509.39	39.9332
1509.66	41.9471
1509.92	40.9386
1510.18	46.989
1510.45	38.9288
1510.71	41.9435
1510.98	34.8825
1511.24	39.9096
1511.5	44.9322
1511.77	41.8936
1512.03	41.8707
1512.29	42.8534
1512.56	38.8113
1512.82	41.8078
1513.08	34.7658
1513.35	38.7734
1513.61	39.769
1513.88	38.7612
1514.14	39.7737
1514.4	35.7708
1514.67	38.7873
1514.93	40.7909
1515.2	38.7724
1515.46	40.769
1515.72	36.7431
1515.99	38.7378
1516.25	41.7347
1516.51	34.7048
1516.78	40.7174
1517.04	38.708
1517.3	34.694
1517.57	40.7081
1517.83	39.7055
1518.09	38.7049
1518.36	37.7085
1518.62	36.7069
1518.88	38.7149
1519.15	36.7103
1519.41	37.716
1519.67	39.7248
1519.94	38.7228
1520.2	37.7179
1520.47	39.7201
1520.73	37.7103
1520.99	38.715
1521.26	42.7313
1521.52	38.721
1521.78	34.708
1522.05	40.7261
1522.31	33.6987
1522.57	41.7196
1522.84	37.7016
1523.1	39.7028
1523.36	35.6843
1523.62	35.6727
1523.89	39.666
1524.15	42.6601
1524.41	37.6422
1524.68	38.6362
1524.94	40.6319
1525.2	44.6416
1525.47	39.6357
1525.73	35.6304
1525.99	33.6317
1526.26	41.6521
1526.52	37.6542
1526.78	47.6845
1527.05	41.6733
1527.31	40.6692
1527.57	36.6537
1527.84	34.6462
1528.1	37.6488
1528.36	33.6369
1528.63	35.6359
1528.89	38.6367
1529.15	39.6341
1529.41	40.633
1529.68	39.6299
1529.94	35.6203
1530.2	39.6194
1530.47	39.6169
1530.73	37.6169
1530.99	41.6307
1531.25	35.6274
1531.52	33.6281
1531.78	35.6323
1532.04	35.6292
1532.31	35.6294
1532.57	37.6277
1532.83	33.6235
1533.09	37.6409
1533.36	37.6539
1533.62	44.6857
1533.88	38.6729
1534.15	38.6754
1534.41	44.6932
1534.67	36.6652
1534.94	33.6525
1535.2	38.6628
1535.46	30.6359
1535.72	34.6398
1535.99	37.6279
1536.25	36.6138
1536.51	38.6079
1536.77	39.595
1537.04	39.5793
1537.3	39.5654
1537.56	40.5596
1537.82	41.5496
1538.09	38.5486
1538.35	38.5399
1538.61	37.5272
1538.87	39.5219
1539.14	40.5168
1539.4	38.5277
1539.66	43.5512
1539.92	35.5739
1540.19	37.5946
1540.45	34.604
1540.71	38.6285
1540.97	36.6331
1541.24	38.6422
1541.5	38.6252
1541.76	34.613
1542.02	42.6197
1542.29	39.6026
1542.55	40.5934
1542.81	40.5824
1543.07	37.5687
1543.34	38.5603
1543.6	40.5513
1543.86	35.5353
1544.12	38.5225
1544.39	36.5233
1544.65	40.5254
1544.91	39.5329
1545.17	35.5418
1545.43	37.5507
1545.7	35.5627
1545.96	39.5757
1546.22	37.577
1546.48	36.5788
1546.74	42.5859
1547.01	38.5804
1547.27	37.5823
1547.53	32.5764
1547.79	36.5875
1548.06	35.5768
1548.32	37.5598
1548.58	34.5551
1548.84	38.5617
1549.1	36.5692
1549.37	41.538
1549.63	37.4948
1549.89	35.4866
1550.15	42.5066
1550.42	36.5441
1550.68	38.6049
1550.94	41.6584
1551.2	38.6848
1551.46	42.6736
1551.73	39.6649
1551.99	36.6443
1552.25	38.6391
1552.51	41.668
1552.77	39.6758
1553.03	41.6785
1553.3	38.6535
1553.56	35.6142
1553.82	40.6234
1554.08	35.6039
1554.34	41.613
1554.61	40.5977
1554.87	44.5921
1555.13	40.5678
1555.39	41.5636
1555.65	39.5566
1555.91	37.5522
1556.18	40.5592
1556.44	42.5625
1556.7	39.5503
1556.96	37.5467
1557.22	39.5519
1557.48	37.55
1557.75	42.5589
1558.01	39.5506
1558.27	36.5378
1558.53	35.524
1558.79	38.5172
1559.06	34.5006
1559.32	35.4894
1559.58	35.479
1559.84	38.47
1560.1	39.4621
1560.36	35.4574
1560.63	40.4502
1560.89	39.4467
1561.15	34.4469
1561.41	37.4438
1561.67	34.4475
1561.93	35.4528
1562.19	41.4611
1562.46	35.472
1562.72	43.4728
1562.98	39.4695
1563.24	47.4657
1563.5	35.4664
1563.76	38.4621
1564.02	37.4591
1564.29	41.4728
1564.55	40.4878
1564.81	43.4945
1565.07	41.4893
1565.33	39.4645
1565.59	37.3965
1565.85	37.3035
1566.11	42.2285
1566.38	38.4092
1566.64	38.4555
1566.9	35.4362
1567.16	33.4138
1567.42	37.4396
1567.68	36.4722
1567.94	38.4635
1568.2	37.4357
1568.47	43.438
1568.73	35.4443
1568.99	41.4459
1569.25	33.4422
1569.51	42.4244
1569.77	39.4165
1570.03	40.4153
1570.29	39.4185
1570.55	33.4222
1570.82	40.4179
1571.08	38.4175
1571.34	39.4144
1571.6	39.41
1571.86	35.4065
1572.12	38.3961
1572.38	40.3919
1572.64	38.3884
1572.9	35.3842
1573.17	36.3766
1573.43	40.3638
1573.69	32.3712
1573.95	34.3617
1574.21	37.3558
1574.47	37.3619
1574.73	32.3778
1574.99	41.3729
1575.25	34.3904
1575.51	41.3922
1575.78	33.4044
1576.04	37.4028
1576.3	38.3986
1576.56	33.4007
1576.82	37.3927
1577.08	45.3709
1577.34	35.3676
1577.6	39.3463
1577.86	39.3316
1578.12	39.3181
1578.38	39.3054
1578.64	36.3062
1578.9	37.3002
1579.17	41.2867
1579.43	37.298
1579.69	42.2822
1579.95	38.2959
1580.21	36.3066
1580.47	39.3001
1580.73	37.3056
1580.99	39.2976
1581.25	35.304
1581.51	38.2882
1581.77	38.2823
1582.03	34.2873
1582.29	43.2464
1582.55	37.2646
1582.81	37.2611
1583.07	40.2458
1583.33	39.2466
1583.59	40.2407
1583.85	37.2507
1584.11	38.2421
1584.38	39.2371
1584.64	35.2557
1584.9	39.2417
1585.16	40.2387
1585.42	39.2414
1585.68	39.2384
1585.94	37.2445
1586.2	38.236
1586.46	42.209
1586.72	32.2429
1586.98	36.2174
1587.24	39.1971
1587.5	39.1921
1587.76	36.203
1588.02	36.2003
1588.28	33.2151
1588.54	33.217
1588.8	40.1859
1589.06	43.1769
1589.32	31.237
1589.58	47.1684
1589.84	42.1941
1590.1	38.2123
1590.36	45.1808
1590.62	38.2137
1590.88	35.23
1591.14	39.2162
1591.4	39.2143
1591.66	35.2297
1591.92	40.2056
1592.18	38.2091
1592.44	37.2041
1592.7	40.1768
1592.96	34.1968
1593.22	42.149
1593.48	36.1659
1593.74	39.1325
1594	44.0834
1594.26	41.0909
1594.52	37.1115
1594.78	38.1039
1595.04	35.1277
1595.3	39.1084
1595.56	40.1066
1595.82	39.1122
1596.08	39.0932
1596.34	37.1052
1596.6	35.1179
1596.86	42.07
1597.12	40.0843
1597.38	39.093
1597.64	37.1089
1597.9	37.1113
1598.16	32.1422
1598.42	44.0588
1598.68	41.0704
1598.94	36.0936
1599.2	37.0765
1599.46	36.0761
1599.72	42.0231
1599.98	44.9916
1600.24	41.015
1600.5	41.9992
1600.76	37.0318
1601.02	39.996
1601.28	38.9914
1601.54	38.9774
1601.8	40.9446
1602.06	44.8934
1602.32	37.9531
1602.58	34.9753
1602.84	37.9356
1603.1	34.9573
1603.36	37.916
1603.62	32.9633
1603.88	37.9023
1604.14	38.887
1604.4	33.9417
1604.66	37.8964
1604.92	35.9192
1605.17	39.8739
1605.43	39.874
1605.69	38.8858
1605.95	42.8439
1606.21	33.947
1606.47	41.864
1606.73	31.976
1606.99	40.883
1607.25	35.9631
1607.51	36.9758
1607.77	38.879
1608.03	42.7151
1608.29	37.9288
1608.55	37.9809
1608.81	36.3151
1609.07	40.9162
1609.32	39.7703
1609.58	37.8167
1609.84	42.3146
1610.1	40.9356
1610.36	39.7889
1610.62	38.6157
1610.88	40.5209
1611.14	41.0814
1611.4	39.7655
1611.66	37.7582
1611.92	38.2061
1612.18	40.1935
1612.44	35.3478
1612.69	33.9531
1612.95	40.2626
1613.21	36.3583
1613.47	37.164
1613.73	37.8313
1613.99	38.6664
1614.25	36.8987
1614.51	36.6129
1614.77	38.1327
1615.03	36.9277
1615.29	36.8997
1615.54	35.6652
1615.8	35.6867
1616.06	38.8341
1616.32	37.5193
1616.58	40.3611
1616.84	41.261
1617.1	38.8655
1617.36	38.4393
1617.62	39.0203
1617.88	37.1957
1618.13	38.2183
1618.39	36.8762
1618.65	38.3205
1618.91	40.1182
1619.17	40.3482
1619.43	38.5837
1619.69	34.5688
1619.95	39.7732
1620.2	37.7099
1620.46	36.0285
1620.72	41.5833
1620.98	39.1716
1621.24	36.1717
1621.5	38.7066
1621.76	36.3551
1622.02	37.4524
1622.27	39.4391
1622.53	40.6928
1622.79	39.5876
1623.05	38.505
1623.31	40.3205
1623.57	38.5281
1623.83	39.0566
1624.09	38.6725
1624.34	38.7652
1624.6	39.4687
1624.86	37.585
1625.12	38.4707
1625.38	38.1943
1625.64	40.8339
1625.9	39.9571
1626.15	37.5283
1626.41	36.792
1626.67	41.0906
1626.93	42.7042
1627.19	40.3549
1627.45	38.6186
1627.7	37.1191
1627.96	36.7043
1628.22	37.0504
1628.48	38.7768
1628.74	38.016
1629	37.6724
1629.26	38.4056
1629.51	38.9588
1629.77	42.4303
1630.03	38.162
1630.29	35.0022
1630.55	40.7341
1630.81	41.5825
1631.06	37.6703
1631.32	38.9017
1631.53	35.0317
1631.79	36.0211
1632.05	41.9388
1632.31	38.0028
1632.57	41.9418
1632.84	38.0093
1633.1	39.9998
1633.36	41.9564
1633.62	37.9924
1633.88	39.9577
1634.14	42.9186
1634.4	40.9532
1634.66	36.0259
1634.93	41.94
1635.19	37.01
1635.45	36.0219
1635.71	43.9034
1635.97	40.9423
1636.23	37.9809
1636.49	39.9458
1636.75	38.9547
1637.02	37.9633
1637.28	38.9412
1637.54	37.9484
1637.8	39.9131
1638.06	42.8645
1638.32	40.8906
1638.58	35.9634
1638.84	34.9753
1639.1	41.8651
1639.37	37.9268
1639.63	36.941
1639.89	40.8771
1640.15	37.9224
1640.41	39.8886
1640.67	40.8731
1640.93	40.8798
1641.19	40.8843
1641.46	38.9154
1641.72	36.9424
1641.98	37.9219
1642.24	38.9027
1642.5	35.9464
1642.76	39.8813
1643.02	38.8942
1643.28	40.8605
1643.54	38.8899
1643.8	35.935
1644.06	40.852
1644.33	43.7988
1644.59	39.8552
1644.85	34.9299
1645.11	31.9764
1645.37	40.8325
1645.63	40.8369
1645.89	36.9026
1646.15	38.8703
1646.41	38.8654
1646.67	34.9242
1646.93	39.8384
1647.19	37.8674
1647.46	39.8297
1647.72	34.9067
1647.98	42.7699
1648.24	39.8178
1648.5	39.8183
1648.76	36.8732
1649.02	37.8631
1649.28	38.8652
1649.54	34.9337
1649.8	40.8354
1650.06	38.8612
1650.32	44.7658
1650.58	38.8703
1650.85	42.818
1651.11	40.8547
1651.37	36.9205
1651.63	37.9096
1651.89	38.8961
1652.15	38.8953
1652.41	38.8943
1652.67	39.8804
1652.93	41.8462
1653.19	40.8548
1653.45	34.9402
1653.71	38.8802
1653.97	35.9251
1654.23	40.8546
1654.49	38.8853
1654.75	39.8713
1655.01	37.9018
1655.27	34.9484
1655.53	36.9262
1655.8	39.8944
1656.06	35.9613
1656.32	36.9556
1656.57	38.9343
1656.84	40.9109
1657.1	43.8731
1657.36	40.9096
1657.62	38.931
1657.88	36.9518
1658.14	39.909
1658.4	40.8917
1658.66	37.9263
1658.92	32.0007
1659.18	41.859
1659.44	38.893
1659.7	40.8585
1659.96	38.8795
1660.22	34.927
1660.48	36.9005
1660.74	35.9182
1661	39.8672
1661.26	40.8595
1661.52	36.9201
1661.78	39.8867
1662.04	34.955
1662.3	39.8911
1662.56	37.882
1662.82	38.9398
1663.08	38.979
1663.34	38.9567
1663.6	36.9747
1663.86	40.9164
1664.12	32.9442
1664.38	37.9125
1664.64	39.8952
1664.9	40.885
1665.16	37.9407
1665.42	37.9473
1665.68	33.9577
1665.94	37.8695
1666.2	36.9765
1666.46	35.9945
1666.72	35.9897
1666.98	36.9262
1667.24	35.8273
1667.5	38.8924
1667.76	41.8439
1668.02	35.9151
1668.28	42.8174
1668.54	37.8765
1668.8	41.8226
1669.06	36.9052
1669.32	37.9124
1669.58	38.9032
1669.84	34.952
1670.1	40.879
1670.36	36.923
1670.62	39.885
1670.88	43.8574
1671.14	35.9625
1671.4	36.9463
1671.66	37.9307
1671.92	39.9047
1672.18	37.9286
1672.44	38.9193
1672.69	36.9425
1672.95	36.9413
1673.21	37.9286
1673.47	40.8942
1673.73	38.9177
1673.99	37.9307
1674.25	41.8887
1674.51	34.9709
1674.77	35.9632
1675.03	36.9559
1675.29	40.9193
1675.55	33.9978
1675.81	36.9685
1676.07	36.968
1676.33	41.9145
1676.59	40.9252
1676.85	33.9983
1677.11	33.9981
1677.37	35.976
1677.63	37.9523
1677.89	39.927
1678.14	35.9625
1678.4	38.9223
1678.66	41.88
1678.92	37.9159
1679.18	33.9547
1679.44	41.8585
1679.7	38.8883
1679.96	36.9064
1680.22	32.9482
1680.48	37.886
1680.74	38.8692
1681	33.9239
1681.26	37.8717
1681.52	38.8567
1681.78	39.8429
1682.03	38.8535
1682.29	39.8403
1682.55	38.8517
1682.81	38.8514
1683.07	39.8366
1683.33	33.9071
1683.59	40.8207
1683.85	37.856
1684.11	35.8781
1684.37	31.9236
1684.63	34.8806
1684.89	36.8517
1685.14	39.8112
1685.4	38.8213
1685.66	41.7819
1685.92	35.8559
1686.18	38.8174
1686.44	35.8547
1686.7	41.782
1686.96	39.8138
1687.22	34.8774
1687.48	38.8287
1687.73	34.8733
1687.99	38.8191
1688.25	39.8012
1688.51	37.8213
1688.77	41.7658
1689.03	36.8223
1689.29	36.8134
1689.55	39.7668
1689.81	35.8119
1690.06	37.7769
1690.32	39.74
1690.58	38.7501
1690.84	40.7309
1691.1	38.7618
1691.36	35.8041
1691.62	41.7253
1691.88	38.7681
1692.13	39.7573
1692.39	41.7302
1692.65	37.7792
1692.91	35.7991
1693.17	32.8315
1693.43	38.7411
1693.69	38.7296
1693.95	38.717
1694.2	36.737
1694.46	37.7141
1694.72	38.6904
1694.98	41.6388
1695.24	41.6371
1695.5	36.713
1695.76	37.699
1696.01	36.7149
1696.27	34.7458
1696.53	43.6181
1696.79	37.708
1697.05	38.6921
1697.31	43.6145
1697.57	32.7678
1697.82	36.6983
1698.08	41.6111
1698.34	32.7407
1698.6	38.64
1698.86	38.6326
1699.12	41.5784
1699.38	34.6865
1699.63	38.6203
1699.89	37.6373
1700.15	30.7484
1700.41	34.6839
1700.67	34.6765
1700.92	38.609
1701.18	33.6874
1701.44	40.5703
1701.7	37.6147
1701.96	41.5414
1702.22	35.6325
1702.47	37.5912
1702.73	40.5314
1702.99	37.5747
1703.25	38.5541
1703.51	36.5867
1703.77	35.6006
1704.02	36.5786
1704.28	36.5753
1704.54	37.56
1704.8	40.5117
1705.06	38.5465
1705.32	37.5609
1705.57	34.6098
1705.83	38.5389
1706.09	35.5901
1706.35	34.601
1706.61	34.5926
1706.86	39.4933
1707.12	41.4458
1707.38	38.49
1707.64	36.5181
1707.9	37.4883
1708.16	38.456
1708.41	38.4428
1708.67	41.3698
1708.93	42.3334
1709.19	39.3805
1709.44	34.4746
1709.7	40.3424
1709.96	37.4017
1710.22	40.3367
1710.48	36.4205
1710.73	37.3995
1710.99	39.3596
1711.25	40.3435
1711.51	37.4082
1711.77	37.4104
1712.02	42.3095
1712.28	38.391
1712.54	33.4887
1712.8	33.4783
1713.06	39.3358
1713.31	42.2527
1713.57	38.3232
1713.83	38.3084
1714.09	38.2929
1714.34	39.2617
1714.6	39.2557
1714.86	37.2974
1715.12	41.2009
1715.38	39.2457
1715.63	40.2281
1715.89	41.2129
1716.15	31.4406
1716.41	37.2989
1716.66	42.1767
1716.92	31.4235
1717.18	41.1773
1717.44	42.1378
1717.69	35.2897
1717.95	42.0971
1718.21	39.1536
1718.47	41.0862
1718.72	42.0456
1718.98	38.1401
1719.24	35.2132
1719.5	39.1059
1719.75	38.1307
1720.01	39.101
1720.27	36.1817
1720.53	44.9453
1720.78	43.9662
1721.04	41.0369
1721.3	34.2126
1721.56	39.069
1721.81	39.06
1722.07	43.9127
1722.33	40.0116
1722.59	35.14
1722.84	41.9325
1723.1	41.9215
1723.36	41.9114
1723.62	37.0472
1723.87	38.9839
1724.13	37.0402
1724.39	37.036
1724.64	40.9166
1724.9	37.0258
1725.16	37.9855
1725.42	40.8799
1725.67	34.0759
1725.93	39.8784
1726.19	39.8675
1726.45	37.9235
1726.7	39.8634
1726.96	41.7974
1727.22	40.8211
1727.47	36.9314
1727.73	43.709
1727.99	41.7808
1728.24	39.8396
1728.5	36.9261
1728.76	38.8475
1729.02	43.6272
1729.27	35.8365
1729.53	40.6391
1729.79	37.7651
1730.05	44.5445
1730.3	36.8309
1730.56	41.6356
1730.82	41.6232
1731.07	35.8264
1731.33	34.8991
1731.59	32.9674
1731.84	40.6986
1732.1	36.8308
1732.36	40.6931
1732.61	37.7891
1732.87	41.6486
1733.13	43.5733
1733.39	37.7679
1733.64	39.6865
1733.9	37.7394
1734.16	40.6168
1734.41	40.6034
1734.67	41.5538
1734.93	40.5755
1735.18	41.5247
1735.44	42.4736
1735.7	44.3865
1735.95	43.4134
1736.21	38.5926
1736.47	44.363
1736.72	37.6205
1736.98	35.6898
1737.24	42.4189
1737.49	33.7535
1737.75	38.5573
1738.01	40.4748
1738.26	40.4666
1738.52	42.3798
1738.78	35.6414
1739.03	41.3988
1739.29	40.427
1739.55	37.5328
1739.8	43.2784
1740.06	38.4594
1740.32	40.3605
1740.57	38.4264
1740.83	42.2476
1741.09	42.2362
1741.34	35.5186
1741.6	42.2152
1741.86	40.29
1742.11	40.2822
1742.37	42.1919
1742.63	42.1883
1742.88	40.2691
1743.14	41.2211
1743.4	42.1745
1743.65	42.1723
1743.91	42.167
1744.16	36.416
1744.42	46.9324
1744.68	40.2284
1744.93	41.1809
1745.19	34.4842
1745.45	38.3097
1745.7	40.2217
1745.96	43.0879
1746.22	42.125
1746.47	37.3347
1746.73	37.3239
1746.98	39.2229
1747.24	41.1235
1747.5	44.9312
1747.75	36.3256
1748.01	41.0894
1748.27	38.2199
1748.52	37.2634
1748.78	42.9901
1749.03	42.9908
1749.29	41.0833
1749.55	38.2225
1749.8	40.1375
1750.06	41.0995
1750.32	41.1077
1750.57	35.3827
1750.83	43.9913
1751.08	39.2144
1751.34	42.0858
1751.6	43.0419
1751.85	42.0794
1752.11	35.3769
1752.36	41.0971
1752.62	43.9519
1752.88	42.0316
1753.13	38.2022
1753.39	42.965
1753.64	42.0015
1753.9	38.1767
1754.15	39.1234
1754.41	38.1599
1754.67	40.0575
1754.92	38.1434
1755.18	39.0903
1755.43	39.0847
1755.69	42.8908
1755.95	45.7412
1756.2	41.9197
1756.46	39.0509
1756.71	46.657
1756.97	39.9775
1757.23	39.9637
1757.48	40.9023
1757.74	41.8474
1757.99	38.988
1758.25	39.9405
1758.5	43.757
1758.76	35.1963
1759.02	43.76
1759.27	43.7594
1759.53	44.7106
1759.78	39.002
1760.04	44.71
1760.3	42.8025
1760.55	39.9434
1760.81	42.7926
1761.06	40.884
1761.32	38.9742
1761.57	41.818
1761.83	38.0065
1762.08	38.9514
1762.34	41.799
1762.6	43.6974
1762.85	43.7038
1763.11	42.7568
1763.36	42.7566
1763.62	44.6553
1763.87	37.9999
1764.13	44.6579
1764.38	38.9555
1764.64	41.8161
1764.89	40.8792
1765.15	43.7398
1765.4	44.6964
1765.66	37.084
1765.92	43.7496
1766.17	43.7502
1766.43	43.7492
1766.68	43.7468
1766.94	47.5501
1767.19	45.6419
1767.45	39.9289
1767.7	38.0209
1767.96	40.8696
1768.21	39.9108
1768.47	43.7109
1768.73	37.0466
1768.98	44.6531
1769.24	40.8301
1769.49	44.6078
1769.75	45.5336
1770	43.6178
1770.26	49.3154
1770.51	43.6273
1770.77	47.4374
1771.02	43.637
1771.28	44.5893
1771.53	44.6002
1771.79	45.5661
1772.04	53.178
1772.3	36.0631
1772.55	43.6768
1772.81	42.7334
1773.06	43.6905
1773.32	40.8401
1773.57	51.3125
1773.83	44.6543
1774.08	44.6576
1774.34	46.5641
1774.59	46.5658
1774.85	45.6149
1775.1	42.7637
1775.36	45.623
1775.61	46.5826
1775.87	42.7912
1776.12	49.4736
1776.38	48.5257
1776.63	44.7132
1776.89	43.7568
1777.14	44.7034
1777.4	45.6477
1777.65	45.6417
1777.91	41.8215
1778.16	43.7181
1778.42	47.5186
1778.67	36.0822
1778.93	38.9295
1779.18	38.9182
1779.44	38.9062
1779.69	39.8502
1779.95	39.8485
1780.2	42.7138
1780.46	41.7642
1780.71	43.6698
1780.97	44.6245
1781.22	44.628
1781.47	43.676
1781.73	43.6769
1781.98	40.8234
1782.24	42.7326
1782.49	46.5483
1782.75	33.2211
1783	40.8476
1783.26	42.7573
1783.51	39.9019
1783.77	45.6251
1784.02	40.8637
1784.28	48.4962
1784.53	38.9678
1784.79	44.7
1785.04	42.798
1785.29	41.8465
1785.55	38.9831
1785.8	44.7045
1786.06	39.9289
1786.31	42.7853
1786.57	38.0155
1786.82	38.9717
1787.08	39.9312
1787.33	39.9387
1787.58	42.8127
1787.84	45.693
1788.09	39.0305
1788.35	42.8796
1788.6	40.9923
1788.86	37.1799
1789.11	41.9724
1789.37	41.0237
1789.62	39.1222
1789.87	41.0477
1790.13	35.3016
1790.38	41.0564
1790.64	41.0609
1790.89	34.3495
1791.15	41.0574
1791.4	39.1302
1791.65	38.1473
1791.91	42.9318
1792.16	39.0959
1792.42	40.053
1792.67	39.096
1792.93	40.0549
1793.18	38.1433
1793.43	42.9355
1793.69	40.0616
1793.94	36.2288
1794.2	38.149
1794.45	42.9406
1794.7	37.1895
1794.96	42.9312
1795.21	41.0258
1795.47	41.0568
1795.72	40.1176
1795.97	39.1673
1796.23	35.3325
1796.48	40.139
1796.74	36.3041
1796.99	40.1527
1797.25	37.2775
1797.5	35.3616
1797.75	35.3663
1798.01	38.2539
1798.26	40.18
1798.51	36.3368
1798.77	42.1073
1799.02	37.2988
1799.28	36.3342
1799.53	39.2135
1799.78	37.2837
1800.04	36.3143
1800.29	37.2675
1800.55	38.2219
1800.8	41.0983
1801.05	38.2118
1801.31	37.248
1801.56	35.3247
1801.81	36.2842
1802.07	36.2845
1802.32	37.2465
1802.58	39.1706
1802.83	38.2139
1803.08	36.2973
1803.34	36.3036
1803.59	39.1947
1803.84	37.2774
1804.1	38.2415
1804.35	40.1661
1804.61	39.2084
1804.86	42.101
1805.11	39.2212
1805.37	35.3791
1805.62	38.2751
1805.87	36.3576
1806.13	35.4013
1806.38	40.2234
1806.64	42.1558
1806.89	33.4877
1807.14	37.3446
1807.4	35.4173
1807.65	41.1995
1807.9	37.3434
1808.16	35.4152
1808.41	35.4148
1808.66	31.5591
1808.92	41.1981
1809.17	36.3789
1809.42	39.2713
1809.68	39.2716
1809.93	37.3442
1810.18	37.3447
1810.44	39.2733
1810.69	35.416
1810.94	38.3056
1811.2	36.3745
1811.45	36.3729
1811.7	41.1914
1811.96	39.2617
1812.21	35.4049
1812.46	37.3338
1812.72	36.3726
1812.97	39.2698
1813.22	36.3823
1813.48	36.3865
1813.73	35.423
1813.98	36.3919
1814.24	37.3641
1814.49	33.5116
1814.74	38.3483
1815	34.4961
1815.25	38.3665
1815.5	41.2706
1815.76	42.2395
1816.01	37.4084
1816.26	38.3756
1816.52	35.4769
1816.77	35.4783
1817.02	35.4798
1817.27	41.2767
1817.53	37.4036
1817.78	41.2493
1818.03	36.4055
1818.29	33.5088
1818.54	40.2758
1818.79	35.4544
1819.05	37.3919
1819.3	38.3553
1819.55	35.4577
1819.8	39.3272
1820.06	38.3642
1820.31	36.4331
1820.56	38.3702
1820.82	36.4404
1821.07	35.4762
1821.32	42.2493
1821.58	38.3845
1821.83	39.3572
1822.08	37.4265
1822.33	41.3011
1822.59	37.4323
1822.84	39.3698
1823.09	37.435
1823.34	39.372
1823.6	37.434
1823.85	39.3658
1824.1	37.4249
1824.36	38.3908
1824.61	39.3608
1824.86	36.4592
1825.11	39.3657
1825.37	39.3686
1825.62	42.2769
1825.87	37.4369
1826.12	34.5313
1826.38	34.53
1826.63	37.4351
1826.88	42.2776
1827.14	37.4349
1827.39	40.3421
1827.64	38.4075
1827.89	39.3796
1828.15	31.6313
1828.4	40.3506
1828.65	36.4724
1828.9	36.4678
1829.16	35.4929
1829.41	36.457
1829.66	37.4231
1829.91	36.4521
1830.17	37.4173
1830.42	36.4435
1830.67	38.3748
1830.92	36.4334
1831.18	35.4643
1831.43	39.3402
1831.68	38.3762
1831.93	37.4119
1832.19	29.6665
1832.44	38.3882
1832.69	39.3615
1832.94	36.4611
1833.2	42.2808
1833.45	35.4957
1833.7	40.342
1833.95	36.4671
1834.2	35.4984
1834.46	39.3778
1834.71	37.428
1834.96	36.4384
1835.21	40.2924
1835.47	41.2404
1835.72	35.4218
1835.97	39.2802
1836.22	37.344
1836.48	37.3343
1836.73	34.5724
1836.98	40.3923
1837.23	32.58
1837.48	38.3781
1837.74	39.3181
1837.99	39.2924
1838.24	36.3507
1838.49	36.3273
1838.74	35.3555
1839	39.2851
1839.25	40.2812
1839.5	39.3264
1839.75	39.331
1840	38.3662
1840.26	40.3135
1840.51	40.2752
1840.76	37.3425
1841.01	39.2535
1841.27	37.2991
1841.52	40.1791
1841.77	40.16
1842.02	33.3846
1842.27	38.1967
1842.53	36.2531
1842.78	39.1332
1843.03	36.2452
1843.28	35.276
1843.53	32.385
1843.78	42.9943
1844.04	37.2055
1844.29	34.3069
1844.54	35.2701
1844.79	38.1674
1845.04	36.2378
1845.3	35.2661
1845.55	35.2664
1845.8	35.2656
1846.05	38.1741
1846.3	40.1207
1846.55	34.3408
1846.81	36.297
1847.06	40.1394
1847.31	38.1513
1847.56	32.3082
1847.81	36.1467
1848.07	36.1463
1848.32	37.1267
1848.57	35.2159
1848.82	37.1228
1849.07	31.3349
1849.32	36.149
1849.57	37.1034
1849.83	34.2045
1850.08	37.0789
1850.33	38.0286
1850.58	35.1288
1850.83	36.0785
1851.09	32.2243
1851.34	30.2948
1851.59	37.0116
1851.84	37.9654
1852.09	37.0001
1852.34	32.1961
1852.59	35.0754
1852.84	36.9949
1853.1	37.9539
1853.35	33.1507
1853.6	38.9083
1853.85	36.9828
1854.1	36.9745
1854.35	37.9226
1854.6	33.1127
1854.86	35.0201
1855.11	35.9724
1855.36	38.842
1855.61	32.1204
1855.86	36.8993
1856.11	38.8072
1856.36	32.0975
1856.61	33.0526
1856.87	34.0093
1857.12	34.9658
1857.37	39.752
1857.62	35.9166
1857.87	32.0809
1858.12	35.9057
1858.37	36.8563
1858.63	36.8477
1858.88	32.0536
1859.13	35.8718
1859.38	36.8183
1859.63	32.0267
1859.88	35.8441
1860.13	38.7102
1860.38	33.9292
1860.63	36.7984
1860.89	36.8043
1861.14	36.8097
1861.39	31.0746
1861.64	36.82
1861.89	35.8679
1862.14	34.9118
1862.39	37.7797
1862.64	31.0754
1862.9	30.111
1863.15	34.8845
1863.4	34.875
1863.65	34.8658
1863.9	34.8572
1864.15	32.9382
1864.4	37.7078
1864.65	36.7448
1864.9	37.6921
1865.15	36.7283
1865.4	35.7632
1865.66	42.4314
1865.91	38.6001
1866.16	36.6769
1866.41	29.9879
1866.66	30.9267
1866.91	33.7697
1867.16	38.5144
1867.41	36.5942
1867.66	34.6766
1867.91	31.8123
1868.16	33.7072
1868.41	33.7023
1868.67	33.6988
1868.92	35.5996
1869.17	34.6497
1869.42	33.6976
1869.67	35.5961
1869.92	35.5927
1870.17	37.4906
1870.42	35.5866
1870.67	37.4846
1870.92	36.5316
1871.17	36.5296
1871.42	37.4783
1871.67	33.6732
1871.92	38.4193
1872.17	35.5614
1872.42	37.4559
1872.68	36.5012
1872.93	37.443
1873.18	38.3837
1873.43	38.3773
1873.68	37.4251
1873.93	33.6241
1874.18	35.5164
1874.43	32.6618
1874.68	35.4995
1874.93	34.541
1875.18	37.3757
1875.43	35.4683
1875.68	34.5094
1875.93	36.3906
1876.18	38.2629
1876.43	36.3546
1876.68	30.665
1876.93	37.2783
1877.18	35.3801
1877.43	36.3066
1877.68	38.1729
1877.93	35.2967
1878.18	34.3801
1878.44	33.5572
1878.69	34.4555
1878.93	31.6002
1879.19	38.2176
1879.44	38.2531
1879.69	39.2172
1879.94	39.2041
1880.19	32.563
1880.44	34.4539
1880.69	34.4504
1880.94	33.5102
1881.19	37.2885
1881.44	36.3388
1881.69	36.3225
1881.94	33.4657
1882.19	35.3384
1882.44	36.2631
1882.69	35.2965
1882.94	37.1578
1883.19	35.2593
1883.44	35.2323
1883.69	36.416
1883.94	34.3661
1884.19	38.044
1884.44	34.2761
1884.69	35.2386
1884.94	36.161
1885.19	31.4593
1885.44	34.3047
1885.69	36.1956
1885.94	33.3683
1886.19	33.3838
1886.44	34.3349
1886.69	34.3393
1886.94	34.3347
1887.19	40.9269
1887.44	35.2539
1887.69	36.1881
1887.94	31.4614
1888.19	37.1107
1888.44	39.9274
1888.69	39.9105
1888.94	36.1269
1889.19	34.2305
1889.44	38.9264
1889.69	36.0945
1889.94	37.9748
1890.19	38.9132
1890.44	34.2088
1890.69	37.9821
1890.94	35.1644
1891.19	38.9334
1891.43	34.2215
1891.68	33.2755
1891.94	36.099
1892.18	35.1538
1892.43	33.2675
1892.68	40.7982
1892.93	35.1423
1893.18	38.899
1893.43	40.7658
1893.68	34.1587
1893.93	35.0807
1894.18	37.8949
1894.43	42.6001
1894.68	40.704
1894.93	34.119
1895.18	35.0547
1895.43	35.0546
1895.68	30.3584
1895.93	37.8777
1896.18	36.0016
1896.43	36.0053
1896.68	39.7704
1896.93	36.0162
1897.18	33.2002
1897.42	33.2035
1897.68	37.9087
1897.92	36.9687
1898.17	36.9675
1898.42	37.9048
1898.67	36.9587
1898.92	37.8915
1899.17	34.1211
1899.42	33.1713
1899.67	37.8624
1899.92	37.8573
1900.17	38.7908
1900.42	34.0878
1900.67	35.9643
1900.92	38.7825
1901.16	36.9065
1901.41	35.972
1901.66	31.2793
1901.91	34.1045
1902.16	36.9312
1902.41	37.8794
1902.66	37.8866
1902.91	38.8267
1903.16	37.8817
1903.41	35.0552
1903.66	34.1095
1903.91	43.5084
1904.16	38.8033
1904.41	38.8004
1904.65	36.9177
1904.9	41.6161
1905.15	36.9123
1905.4	36.9097
1905.65	37.8481
1905.9	39.7249
1906.15	35.9536
1906.4	38.7583
1906.65	33.116
1906.9	40.6244
1907.14	43.4365
1907.39	35.92
1907.64	38.7365
1907.89	38.7378
1908.14	37.8026
1908.39	39.6876
1908.64	37.8109
1908.89	37.8121
1909.14	34.9961
1909.39	39.6997
1909.63	36.8868
1909.88	36.8952
1910.13	41.608
1910.38	38.7983
1910.63	41.6345
1910.88	40.7051
1911.13	35.0632
1911.38	35.0677
1911.62	36.0121
1911.87	38.8385
1912.12	34.1273
1912.37	36.0077
1912.62	40.7134
1912.87	36.0023
1913.12	38.8267
1913.37	36.0002
1913.61	37.8842
1913.86	38.8311
1914.11	36.0144
1914.36	37.9101
1914.61	36.0323
1914.86	38.868
1915.11	37.9323
1915.36	37.9388
1915.6	37.9433
1915.85	33.2263
1916.1	34.1681
1916.35	36.9948
1916.6	39.8223
1916.85	36.9854
1917.1	35.09
1917.34	39.7977
1917.59	32.2479
1917.84	37.9001
1918.09	39.7821
1918.34	36.9539
1918.59	36.9581
1918.83	40.7377
1919.08	36.9744
1919.33	31.3227
1919.58	39.8275
1919.83	40.7876
1920.08	37.0224
1920.33	36.0837
1920.57	38.9191
1920.82	37.0238
1921.07	35.1355
1921.32	34.1985
1921.57	38.9335
1921.81	37.993
1922.06	31.3776
1922.31	40.8371
1922.56	38.9446
1922.81	35.1576
1923.06	37.9878
1923.31	31.3632
1923.55	37.9765
1923.8	37.9723
1924.05	38.9129
1924.3	35.1261
1924.55	34.1738
1924.79	36.058
1925.04	35.1108
1925.29	40.7798
1925.54	37.9495
1925.79	37.9566
1926.04	35.1311
1926.28	37.0313
1926.53	39.8777
1926.78	33.2645
1927.03	32.3276
1927.28	37.0668
1927.52	36.1246
1927.77	38.9697
1928.02	35.1852
1928.27	33.2939
1928.52	38.0331
1928.76	38.9822
1929.01	37.0913
1929.26	37.0952
1929.51	36.1524
1929.76	33.3154
1930	36.1698
1930.25	35.2296
1930.5	38.086
1930.75	34.298
1931	37.1543
1931.24	36.2067
1931.49	36.2067
1931.74	37.1523
1931.99	39.0449
1932.24	36.1911
1932.48	37.1339
1932.73	40.9232
1932.98	37.1208
1933.23	37.118
1933.47	34.2662
1933.72	34.2673
1933.97	35.2252
1934.22	37.1404
1934.46	36.2139
1934.71	37.1963
1934.96	38.1791
1935.21	35.3496
1935.46	37.2766
1935.7	37.2941
1935.95	35.3982
1936.2	34.4202
1936.45	37.2749
1936.69	36.3184
1936.94	38.2185
1937.19	29.6352
1937.44	30.5792
1937.68	39.1422
1937.93	41.9891
1938.18	38.1727
1938.43	39.1154
1938.68	34.3555
1938.92	38.1747
1939.17	39.1305
1939.42	34.374
1939.67	33.4263
1939.91	34.3822
1940.16	34.3869
1940.41	40.1042
1940.66	40.1131
1940.9	42.0286
1941.15	27.7468
1941.4	31.5738
1941.64	31.5727
1941.89	41.1093
1942.14	34.4166
1942.39	36.3011
1942.63	34.4062
1942.88	34.441
1943.13	35.403
1943.38	37.3132
1943.62	37.2968
1943.87	34.4166
1944.12	34.4035
1944.37	33.4702
1944.61	34.4311
1944.86	36.3469
1945.11	39.2193
1945.35	36.3624
1945.6	35.4151
1945.85	32.5557
1946.1	31.606
1946.34	30.6549
1946.59	41.1775
1946.84	36.3993
1947.09	38.3133
1947.33	38.3115
1947.58	35.4381
1947.83	36.3896
1948.07	34.4752
1948.32	35.4301
1948.57	34.4725
1948.82	37.3371
1949.06	37.3379
1949.31	39.2565
1949.56	37.3504
1949.8	31.6167
1950.05	38.323
1950.3	35.4604
1950.54	40.2629
1950.79	36.4481
1951.04	36.4602
1951.29	39.3502
1951.53	32.6508
1951.78	34.5817
1952.03	33.6314
1952.27	35.5574
1952.52	41.3235
1952.77	34.6062
1953.01	36.5247
1953.26	39.4121
1953.51	30.7738
1953.76	35.5669
1954	38.4328
1954.25	36.4875
1954.49	32.6295
1954.74	38.3622
1954.99	34.5109
1955.24	37.3788
1955.48	38.3344
1955.73	41.2122
1955.98	38.3475
1956.22	36.4458
1956.47	32.6332
1956.72	32.6416
1956.96	37.4514
1957.21	40.3376
1957.46	36.5045
1957.7	35.5507
1957.95	39.3998
1958.2	37.4826
1958.44	39.4077
1958.69	37.4872
1958.94	36.527
1959.18	37.4841
1959.43	36.5147
1959.68	34.5883
1959.92	36.5076
1960.17	35.5402
1960.42	36.4939
1960.66	40.3288
1960.91	39.3606
1961.16	41.2721
1961.4	38.3841
1961.65	35.4978
1961.9	35.4931
1962.14	38.3723
1962.39	39.3333
1962.63	38.374
1962.88	35.4952
1963.13	34.5359
1963.37	41.2556
1963.62	38.3763
1963.87	39.3366
1964.11	35.4974
1964.36	37.4212
1964.61	36.4641
1964.85	38.3829
1965.1	36.4584
1965.35	36.4582
1965.59	37.4159
1965.84	37.4157
1966.08	35.4979
1966.33	42.2273
1966.58	36.4716
1966.82	40.3226
1967.07	38.4058
1967.32	35.5261
1967.56	39.3688
1967.81	38.4069
1968.05	40.3319
1968.3	37.4485
1968.55	39.3719
1968.79	40.3315
1969.04	40.3267
1969.29	45.124
1969.53	43.1899
1969.78	38.3722
1970.02	37.3984
1970.27	36.4275
1970.52	38.3385
1970.76	38.3319
1971.01	36.405
1971.25	41.1953
1971.5	45.9859
1971.75	40.2252
1971.99	45.0166
1972.24	38.3045
1972.48	39.2665
1972.73	37.3489
1972.98	40.2255
1973.22	45.0172
1973.47	44.0495
1973.71	41.1619
1973.96	43.0706
1974.21	44.0223
1974.45	40.1834
1974.7	43.0563
1974.94	40.1799
1975.19	43.056
1975.44	45.9345
1975.68	44.022
1975.93	42.1101
1976.17	42.1147
1976.42	40.1999
1976.66	42.1199
1976.91	44.9982
1977.16	41.1605
1977.4	44.0358
1977.65	40.1952
1977.89	41.1486
1978.14	44.9767
1978.39	44.0095
1978.63	43.0437
1978.88	41.1209
1979.12	41.1172
1979.37	38.2407
1979.61	43.0334
1979.86	43.0326
1980.1	45.9091
1980.35	41.1159
1980.6	43.0278
1980.84	42.0607
1981.09	43.9688
1981.33	41.0896
1981.58	40.1247
1981.82	38.2035
1982.07	44.9043
1982.31	38.1973
1982.56	45.8566
1982.81	43.933
1983.05	42.9671
1983.3	46.7846
1983.54	43.8989
1983.79	45.8015
1984.03	43.8827
1984.28	45.7916
1984.52	48.6554
1984.77	44.8238
1985.02	48.644
1985.26	46.7225
1985.51	44.7973
1985.75	45.7464
1986	49.5687
1986.24	48.6149
1986.49	49.5767
1986.73	46.7157
1986.98	45.7625
1987.22	40.0225
1987.47	42.8933
1987.71	48.6214
1987.96	47.6502
1988.21	50.4996
1988.45	41.8829
1988.7	53.3199
1988.94	49.4614
1989.19	46.5809
1989.43	52.0738
1989.68	42.9536
1989.92	43.9939
1990.17	47.4102
1990.41	49.7538
1990.66	48.3714
1990.9	48.4711
1991.15	48.5751
1991.39	49.4719
1991.64	49.6737
1991.88	44.4112
1992.13	49.612
1992.37	52.3836
1992.62	48.6603
1992.86	50.7851
1993.11	51.6894
1993.35	52.8221
1993.6	53.1147
1993.84	52.341
1994.09	49.7213
1994.33	48.6464
1994.58	49.5335
1994.82	51.5779
1995.07	47.1111
1995.31	49.2949
1995.56	53.8477
1995.8	51.0419
1996.05	50.4614
1996.29	50.2412
1996.54	51.9768
1996.78	51.6336
1997.03	51.331
1997.27	51.4518
1997.52	52.0567
1997.76	52.3247
1998.01	53.5644
1998.25	52.6796
1998.5	51.3904
1998.74	51.0906
1998.99	54.7564
1999.23	52.0738
1999.48	52.3279
1999.72	55.013
1999.97	53.7965
2000.21	51.1258
2000.46	50.6371
2000.7	52.9436
2000.95	49.9132
2001.19	55.0369
2001.43	53.722
2001.68	52.4516
2001.92	54.0488
2002.17	52.2913
2002.41	52.5475
2002.66	51.9712
2002.9	55.8571
2003.15	53.7658
2003.39	55.9736
2003.64	53.2055
2003.88	55.3124
2004.13	53.8749
2004.37	52.9446
2004.61	51.0973
2004.86	52.317
2005.1	54.0727
2005.35	55.0028
2005.59	55.7533
2005.84	54.9687
2006.08	53.7808
2006.33	54.8349
2006.57	51.4869
2006.81	51.7526
2007.06	52.6988
2007.3	56.2476
2007.55	53.5974
2007.79	53.6264
2008.04	53.376
2008.28	52.3582
2008.53	49.6856
2008.77	55.3685
2009.01	55.8903
2009.26	53.9789
2009.5	56.9994
2009.75	50.84
2009.99	51.5617
2010.24	54.8816
2010.48	55.4009
2010.73	54.0396
2010.97	52.9358
2011.21	52.5941
2011.46	54.6744
2011.7	50.8257
2011.95	57.5362
2012.19	50.4428
2012.43	54.0974
2012.68	55.9757
2012.92	57.8541
2013.17	60.6657
2013.42	50.2928
2013.67	50.2674
2013.91	49.3121
2014.16	55.8731
2014.41	52.09
2014.66	53.9401
2014.9	52.9759
2015.15	49.2148
2015.4	54.8474
2015.64	50.1613
2015.89	50.1694
2016.14	53.9305
2016.39	53.9242
2016.63	53.9374
2016.88	55.8562
2017.13	56.8037
2017.37	51.1607
2017.62	53.0319
2017.87	53.019
2018.11	51.1239
2018.36	52.9814
2018.61	51.0822
2018.86	49.1869
2019.1	54.7949
2019.35	49.1484
2019.6	54.7522
2019.84	55.678
2020.09	46.3026
2020.34	51.9183
2020.58	49.1069
2020.83	45.3578
2021.08	51.9112
2021.33	50.0405
2021.57	46.2965
2021.82	50.9795
2022.07	44.4204
2022.31	47.2254
2022.56	49.091
2022.81	50.9536
2023.05	48.1328
2023.3	46.2473
2023.55	49.0435
2023.8	47.1616
2024.04	49.021
2024.29	47.1401
2024.54	48.9999
2024.78	52.721
2025.03	46.1637
2025.27	46.1479
2025.52	47.0664
2025.77	45.1856
2026.02	41.4411
2026.26	41.4261
2026.51	44.2278
2026.76	47.9759
2027	45.2048
2027.25	46.173
2027.5	49.9528
2027.74	50.9146
2027.99	47.165
2028.23	44.3298
2028.48	49.8932
2028.73	47.8941
2028.98	45.2185
2029.22	47.2581
2029.47	45.2922
2029.72	48.1433
2029.96	41.515
2030.21	45.2048
2030.45	46.0858
2030.7	47.0155
2030.95	48.8406
2031.19	47.0103
2031.44	43.3049
2031.69	45.1639
2031.93	45.1637
2032.18	47.0307
2032.43	43.3104
2032.67	43.3242
2032.92	44.2735
2033.17	44.2876
2033.41	46.1677
2033.66	44.3071
2033.91	44.3197
2034.15	43.3903
2034.4	43.3673
2034.64	42.4036
2034.89	43.2932
2035.14	42.3486
2035.38	43.2993
2035.63	47.048
2035.87	43.3376
2036.12	46.173
2036.37	41.5195
2036.61	46.1937
2036.86	41.4952
2037.11	47.1049
2037.35	47.1158
2037.6	40.5695
2037.84	43.372
2038.09	45.2371
2038.34	46.1658
2038.58	38.6814
2038.83	38.6749
2039.08	45.2088
2039.32	44.2669
2039.57	42.3907
2039.81	45.1846
2040.06	42.373
2040.31	39.5603
2040.55	41.4153
2040.8	42.337
2041.04	43.259
2041.29	45.1146
2041.54	44.1739
2041.78	42.3053
2042.03	46.9632
2042.27	44.1601
2042.52	42.2904
2042.77	42.281
2043.01	37.6187
2043.26	45.0715
2043.5	41.3479
2043.75	45.0867
2044	43.2394
2044.24	42.324
2044.49	43.2629
2044.73	44.1933
2044.98	47.913
2045.23	42.2973
2045.47	45.0535
2045.72	45.1081
2045.96	43.2557
2046.21	43.3166
2046.45	39.6434
2046.7	39.6092
2046.95	46.1092
2047.19	39.5412
2047.44	41.4092
2047.68	35.7976
2047.93	32.9716
2048.17	42.2859
2048.42	41.355
2048.67	43.2211
2048.91	37.6294
2049.16	43.2274
2049.4	37.642
2049.65	38.5824
2049.89	39.5261
2050.14	38.6065
2050.39	41.4178
2050.63	40.495
2050.88	40.5009
2051.12	42.371
2051.37	40.4994
2051.61	41.4247
2051.86	43.2796
2052.11	40.4775
2052.35	36.7429
2052.6	38.6158
2052.84	36.7491
2053.09	42.3574
2053.33	41.4295
2053.58	37.6996
2053.82	38.6435
2054.07	39.5964
2054.31	36.7975
2054.56	36.8019
2054.8	48.0281
2055.05	36.8013
2055.3	42.4113
2055.54	41.4725
2055.79	39.5919
2056.03	34.912
2056.28	40.5196
2056.52	40.5152
2056.77	37.7061
2057.01	37.7031
2057.26	41.4413
2057.5	43.3123
2057.75	37.7062
2058	36.7754
2058.24	41.4561
2058.49	38.6562
2058.73	38.6652
2058.98	42.4163
2059.22	38.6811
2059.47	35.8784
2059.71	38.6886
2059.96	43.3712
2060.2	43.3716
2060.45	35.877
2060.69	39.6149
2060.94	39.6102
2061.18	38.6785
2061.43	43.3642
2061.67	36.8147
2061.92	39.6246
2062.16	35.8799
2062.41	38.6896
2062.65	36.8192
2062.9	40.5686
2063.14	34.9541
2063.39	40.5807
2063.63	41.5241
2063.88	36.8437
2064.12	34.0356
2064.37	42.4737
2064.61	40.602
2064.86	37.7938
2065.1	41.5494
2065.35	38.7451
2065.59	35.0037
2065.84	32.1976
2066.08	38.7756
2066.33	35.0274
2066.57	37.8487
2066.82	39.7279
2067.06	35.036
2067.31	37.8573
2067.55	39.7388
2067.8	39.7436
2068.04	35.9912
2068.29	33.1764
2068.53	39.7586
2068.78	36.0008
2069.02	38.826
2069.27	37.8859
2069.51	31.3002
2069.76	37.8687
2070	35.034
2070.25	38.7841
2070.49	39.7265
2070.73	38.803
2070.98	38.8221
2071.22	36.9605
2071.47	41.6601
2071.71	38.8265
2071.96	36.0463
2072.2	38.8857
2072.45	34.174
2072.69	36.0543
2072.94	37.9359
2073.18	35.1076
2073.43	36.0486
2073.67	33.2217
2073.92	33.2227
2074.16	35.1065
2074.4	38.8745
2074.65	39.8201
2074.89	35.1176
2075.14	41.7216
2075.38	39.8506
2075.63	34.2102
2075.87	32.3409
2076.12	38.9585
2076.36	34.2454
2076.6	37.0778
2076.85	32.3587
2077.09	40.8503
2077.34	36.1227
2077.58	39.8881
2077.83	39.8693
2078.07	36.0923
2078.31	34.21
2078.56	36.1035
2078.8	36.1062
2079.05	39.883
2079.29	38.001
2079.54	37.0657
2079.78	39.9156
2080.03	37.0896
2080.27	36.1508
2080.51	32.3767
2080.76	35.2154
2081	38.9955
2081.25	33.3215
2081.49	39.9326
2081.74	37.0965
2081.98	34.2612
2082.22	32.3699
2082.47	34.2616
2082.71	38.9885
2082.96	34.2652
2083.2	37.1005
2083.45	36.1544
2083.69	31.4276
2083.93	32.3708
2084.18	33.3153
2084.42	36.1501
2084.67	36.1492
2084.91	34.2594
2085.15	39.93
2085.4	38.0399
2085.64	35.2043
2085.89	34.2589
2086.13	36.151
2086.37	40.8865
2086.62	35.2252
2086.86	32.3952
2087.11	32.398
2087.35	36.1858
2087.59	34.2988
2087.84	34.3017
2088.08	34.3015
2088.32	33.3552
2088.57	29.5699
2088.81	33.3566
2089.06	32.4114
2089.3	36.1987
2089.54	30.5235
2089.79	35.2626
2090.03	34.3244
2090.28	36.2216
2090.52	34.3284
2090.76	36.2252
2091.01	38.123
2091.25	35.284
2091.5	35.2874
2091.74	36.2385
2091.98	33.4032
2092.23	35.3091
2092.47	32.474
2092.72	34.3819
2092.96	35.3426
2093.2	35.3516
2093.45	37.2596
2093.69	35.3685
2093.93	38.2276
2094.18	36.334
2094.42	36.3404
2094.66	37.2928
2094.91	36.3415
2095.15	36.3393
2095.39	37.2868
2095.64	39.1811
2095.88	30.6206
2096.13	39.1674
2096.37	37.2623
2096.61	33.4591
2096.86	33.4574
2097.1	35.3554
2097.34	35.3501
2097.59	36.2923
2097.83	32.4868
2098.07	34.3824
2098.32	37.2279
2098.56	32.4793
2098.8	34.3724
2099.05	38.1685
2099.29	35.3197
2099.53	34.3681
2099.78	38.1621
2100.02	35.314
2100.27	38.1608
2100.51	34.3654
2100.75	34.3668
2101	33.4205
2101.24	28.681
2101.48	30.5853
2101.73	37.2369
2101.97	33.4395
2102.21	37.2383
2102.45	34.3875
2102.7	29.6382
2102.94	37.234
2103.18	38.1771
2103.43	32.4723
2103.67	35.3162
2103.92	34.3654
2104.16	33.4137
2104.4	31.5154
2104.64	31.5175
2104.89	33.4208
2105.13	36.2742
2105.37	36.2788
2105.62	35.3348
2105.86	38.1927
2106.1	38.1995
2106.35	32.5005
2106.59	36.3055
2106.83	33.4551
2107.08	37.2587
2107.32	28.7048
2107.56	33.4593
2107.8	31.5537
2108.05	33.4482
2108.29	29.6381
2108.53	35.3295
2108.78	34.3697
2109.02	34.362
2109.26	33.4092
2109.51	37.2082
2109.75	37.2172
2109.99	36.2743
2110.23	33.4243
2110.48	35.3239
2110.72	37.2233
2110.96	36.2727
2111.21	34.3723
2111.45	37.2214
2111.69	36.2685
2111.93	31.5141
2112.18	35.3092
2112.42	33.4073
2112.66	32.457
2112.91	35.3088
2113.15	34.3622
2113.39	36.2656
2113.63	39.1246
2113.88	37.2314
2114.12	32.482
2114.36	35.3309
2114.61	34.377
2114.85	36.2764
2115.09	35.3272
2115.33	31.5259
2115.58	30.5733
2115.82	33.4211
2116.06	34.3682
2116.31	34.3648
2116.55	32.4575
2116.79	38.1493
2117.03	33.397
2117.28	36.2436
2117.52	31.4937
2117.76	36.2426
2118	31.4907
2118.25	33.3841
2118.49	33.3781
2118.73	35.2668
2118.97	35.2559
2119.22	34.2989
2119.46	36.1877
2119.7	32.3873
2119.94	35.2238
2120.19	34.2691
2120.43	33.3161
2120.67	33.3139
2120.91	34.2619
2121.16	33.3193
2121.4	33.3219
2121.64	33.3288
2121.88	35.233
2122.13	32.3948
2122.37	33.3497
2122.61	32.4065
2122.85	33.36
2123.1	32.4148
2123.34	36.2151
2123.58	32.4202
2123.82	34.3197
2124.07	34.3165
2124.31	36.2106
2124.55	36.204
2124.79	33.3477
2125.03	33.334
2125.28	34.2657
2125.52	37.0927
2125.76	32.3434
2126	32.333
2126.25	34.2164
2126.49	31.3678
2126.73	30.4145
2126.97	34.1916
2127.21	37.0211
2127.46	32.2849
2127.7	32.2815
2127.94	37.0067
2128.18	35.1131
2128.43	33.2183
2128.67	36.0514
2128.91	33.2152
2129.15	35.1054
2129.39	36.0488
2129.64	36.9905
2129.88	32.262
2130.12	28.4798
2130.36	29.4229
2130.6	34.1454
2130.85	31.3076
2131.09	35.0832
2131.33	34.1337
2131.57	34.1282
2131.81	33.1779
2132.06	33.1728
2132.3	33.169
2132.54	28.4444
2132.78	37.8771
2133.02	35.9822
2133.27	34.091
2133.51	33.1464
2133.75	34.0909
2133.99	35.0354
2134.23	35.0352
2134.48	32.205
2134.72	29.3742
2134.96	36.9229
2135.2	35.9776
2135.44	30.3138
2135.68	35.03
2135.93	36.9131
2136.17	33.1327
2136.41	36.8945
2136.65	30.2832
2136.89	34.049
2137.14	34.0499
2137.38	31.2225
2137.62	34.051
2137.86	34.997
2138.1	33.1178
2138.34	35.0009
2138.59	30.2765
2138.83	32.1548
2139.07	34.0456
2139.31	32.1699
2139.55	35.95
2139.79	34.046
2140.03	31.2052
2140.28	35.9107
2140.52	32.1362
2140.76	34.9576
2141	34.0114
2141.24	34.0082
2141.49	33.0632
2141.73	32.1214
2141.97	33.056
2142.21	40.5791
2142.45	33.0446
2142.69	36.8094
2142.93	35.8745
2143.18	31.1713
2143.42	33.081
2143.66	32.1254
2143.9	32.9845
2144.14	34.8631
2144.38	32.0496
2144.62	34.8808
2144.87	34.8922
2145.11	34.8986
2145.35	33.9379
2145.59	36.7609
2145.83	34.8815
2146.07	34.879
2146.31	34.8756
2146.55	36.7522
2146.8	32.0487
2147.04	37.6852
2147.28	36.7411
2147.52	33.9163
2147.76	30.1529
2148	31.0881
2148.24	33.9024
2148.48	33.8979
2148.73	35.7717
2148.97	32.0104
2149.21	35.7605
2149.45	33.8753
2149.69	31.0513
2149.93	31.0379
2150.17	33.8438
2150.42	35.7092
2150.66	35.7014
2150.9	35.6973
2151.14	35.696
2151.38	35.6985
2151.62	33.8289
2151.86	31.9566
2152.1	31.0232
2152.34	36.6519
2152.58	34.7806
2152.83	31.9613
2153.07	33.8317
2153.31	36.6376
2153.55	34.7562
2153.79	29.1289
2154.03	37.5606
2154.27	32.8685
2154.51	34.7336
2154.75	34.7212
2154.99	30.9616
2155.24	35.6273
2155.48	29.999
2155.72	37.4689
2155.96	32.7836
2156.2	34.6437
2156.44	33.7022
2156.68	30.8956
2156.92	30.8937
2157.16	33.6948
2157.4	37.4309
2157.64	31.8279
2157.89	31.8317
2158.13	32.7716
2158.37	33.711
2158.61	34.6466
2158.85	33.7111
2159.09	32.7744
2159.33	32.771
2159.57	30.8974
2159.81	36.4978
2160.05	32.7533
2160.29	37.4143
2160.53	31.8023
2160.77	36.4621
2161.01	31.788
2161.25	34.5835
2161.5	33.648
2161.74	29.9121
2161.98	33.6406
2162.22	32.7058
2162.46	34.571
2162.7	34.5706
2162.94	33.6366
2163.18	29.9018
2163.42	35.4935
2163.66	31.7587
2163.9	30.8224
2164.14	35.4805
2164.38	31.7466
2164.62	28.9429
2164.86	33.594
2165.11	36.3831
2165.35	37.3158
2165.59	32.6598
2165.83	33.5915
2166.07	35.4552
2166.31	34.5232
2166.55	35.4504
2166.79	33.5827
2167.03	39.1663
2167.27	28.9132
2167.51	33.5644
2167.75	30.7631
2167.99	33.5455
2168.23	27.9472
2168.47	35.3729
2168.71	33.5075
2168.95	32.5765
2169.19	32.5778
2169.43	32.5816
2169.67	34.4478
2169.91	34.4569
2170.15	33.5376
2170.39	30.7571
2170.63	33.5571
2170.87	31.6969
2171.11	33.5566
2171.35	32.6184
2171.59	32.615
2171.83	28.879
2172.07	32.578
2172.31	33.495
2172.56	33.4881
2172.79	33.4818
2173.04	30.6893
2173.28	26.9715
2173.51	31.616
2173.76	33.4731
2174	34.4041
2174.24	37.1958
2174.48	33.4814
2174.72	33.4824
2174.96	32.5528
2175.2	34.4109
2175.44	28.8333
2175.68	30.6896
2175.92	33.4749
2176.16	33.4732
2176.4	33.4709
2176.64	38.1132
2176.88	36.2488
2177.12	33.4592
2177.36	32.5298
2177.6	35.317
2177.84	31.6012
2178.08	36.2447
2178.32	34.3876
2178.55	31.5971
2178.8	35.3027
2179.03	31.5812
2179.28	34.3652
2179.52	33.4377
2179.75	33.4377
2180	37.1515
2180.23	30.6513
2180.47	30.6505
2180.71	28.7921
2180.95	31.575
2181.19	33.4292
2181.43	35.2844
2181.67	31.5686
2181.91	32.4924
2182.15	36.2005
2182.39	38.9821
2182.63	31.5533
2182.87	30.6219
2183.11	36.1849
2183.35	36.1774
2183.59	34.314
2183.83	29.6682
2184.07	33.3688
2184.31	39.8501
2184.55	33.3576
2184.79	33.3556
2185.03	33.3562
2185.27	31.5055
2185.51	33.3609
2185.75	33.3629
2185.99	32.4396
2186.23	33.3716
2186.47	29.6681
2186.7	34.3099
2186.95	32.4638
2187.18	32.473
2187.42	31.5538
2187.66	31.5624
2187.9	38.07
2188.14	32.4987
2188.38	34.3522
2188.62	37.1314
2188.86	29.6967
2189.1	36.187
2189.34	33.394
2189.58	35.2397
2189.82	37.0824
2190.06	29.6546
2190.3	32.4312
2190.54	32.4293
2190.78	35.2105
2191.01	33.3589
2191.25	36.1426
2191.49	35.215
2191.73	35.2165
2191.97	30.5824
2192.21	37.0764
2192.45	33.3693
2192.69	32.444
2192.93	32.4464
2193.17	34.3069
2193.41	33.3844
2193.65	31.5331
2193.89	35.2531
2194.13	32.4814
2194.36	33.4258
2194.6	33.4361
2194.84	29.7229
2195.08	32.5096
2195.32	33.4349
2195.56	33.431
2195.8	34.3545
2196.04	32.4885
2196.28	36.1941
2196.52	29.6815
2196.76	36.1689
2197	34.3036
2197.23	34.2965
2197.47	32.435
2197.71	34.2847
2197.95	34.2844
2198.19	34.2849
2198.43	30.5775
2198.67	32.44
2198.91	30.5915
2199.15	32.4569
2199.38	36.1825
2199.62	30.6186
2199.86	31.5575
2200.1	34.3563
2200.34	40.883
2200.58	33.4596
2200.82	34.4058
2201.06	31.625
2201.3	30.7022
2201.54	35.369
2201.77	34.4223
2202.01	30.6643
2202.25	33.3849
2202.49	33.3368
2202.73	32.4296
2202.97	36.2032
2203.21	35.3008
2203.45	32.5005
2203.68	37.1422
2203.92	36.2434
2204.16	39.1604
2204.4	36.3144
2204.64	32.5814
2204.88	34.4516
2205.12	36.2915
2205.36	31.6032
2205.59	36.2296
2205.83	33.4195
2206.07	33.4139
2206.31	34.3439
2206.55	29.7016
2206.79	33.422
2207.03	32.4796
2207.26	33.4108
2207.5	33.4153
2207.74	33.421
2207.98	31.567
2208.22	31.5733
2208.46	35.3021
2208.7	32.5164
2208.93	33.4528
2209.17	35.3194
2209.41	32.5289
2209.65	29.7366
2209.89	33.4615
2210.13	35.3227
2210.36	33.4609
2210.6	39.0534
2210.84	35.3322
2211.08	34.4057
2211.32	35.3427
2211.56	30.6874
2211.8	34.421
2212.03	30.6983
2212.27	34.4349
2212.51	37.238
2212.75	33.5089
2212.99	34.439
2213.23	35.3678
2213.46	35.364
2213.7	29.7631
2213.94	36.2835
2214.18	30.6909
2214.42	26.9663
2214.66	32.5746
2214.89	34.4534
2215.13	33.5232
2215.37	39.1268
2215.61	31.6602
2215.85	27.9267
2216.08	32.5953
2216.32	32.595
2216.56	29.7931
2216.8	31.6591
2217.04	35.3916
2217.28	34.4562
2217.51	30.7214
2217.75	34.4566
2217.99	34.4577
2218.23	34.4572
2218.47	33.5227
2218.7	32.59
2218.94	30.7252
2219.18	34.4648
2219.42	30.7341
2219.66	31.6736
2219.9	30.7423
2220.13	29.8112
2220.37	33.5522
2220.61	29.8126
2220.85	28.8762
2221.09	31.6783
2221.32	29.8058
2221.56	28.8641
2221.8	28.8559
2222.04	31.6504
2222.27	38.1792
2222.51	29.7726
2222.75	33.5051
2222.99	34.4407
2223.23	31.6442
2223.46	31.6484
2223.7	34.4553
2223.94	26.9893
2224.18	33.5382
2224.42	32.6133
2224.65	29.817
2224.89	31.6946
2225.13	32.6366
2225.37	29.8361
2225.6	30.779
2225.84	32.6598
2226.08	33.6031
2226.32	30.7998
2226.56	33.6166
2226.79	31.7474
2227.03	32.691
2227.27	31.7594
2227.51	35.5144
2227.74	32.7052
2227.98	32.707
2228.22	28.017
2228.46	31.7652
2228.69	28.0119
2228.93	28.9471
2229.17	31.7577
2229.41	35.5055
2229.64	26.1302
2229.88	30.8224
2230.12	29.8921
2230.36	29.8989
2230.6	33.657
2230.83	31.7861
2231.07	28.0374
2231.31	31.7985
2231.55	30.8664
2231.78	30.8734
2232.02	31.8185
2232.26	29.945
2232.5	28.0706
2232.73	31.8362
2232.97	33.7222
2233.21	29.0257
2233.45	28.0898
2233.68	30.9171
2233.92	30.9225
2234.16	32.8088
2234.39	32.8121
2234.63	33.7511
2234.87	35.6303
2235.11	28.0971
2235.34	34.678
2235.58	32.7842
2235.82	30.8947
2236.06	29.0142
2236.29	29.9554
2236.53	31.8376
2236.77	33.72
2237	32.7804
2237.24	28.0786
2237.48	31.8482
2237.72	31.8546
2237.95	29.9835
2238.19	31.8792
2238.43	30.9488
2238.67	30.0144
2238.9	32.8501
2239.14	31.9166
2239.38	28.1543
2239.61	30.9861
2239.85	31.9264
2240.09	31.9217
2240.33	31.9124
2240.56	31.9042
2240.8	32.8427
2241.04	30.9702
2241.27	33.8118
2241.51	30.0396
2241.75	33.8154
2241.99	31.9304
2242.22	30.0445
2242.46	36.6534
2242.7	30.0496
2242.93	30.997
2243.17	31.9413
2243.41	30.0516
2243.64	33.8228
2243.88	29.0985
2244.12	32.8707
2244.36	32.8693
2244.59	28.1514
2244.83	30.043
2245.07	33.828
2245.3	33.8414
2245.54	32.9085
2245.78	31.9706
2246.01	31.9765
2246.25	32.9284
2246.49	34.8262
2246.72	35.7776
2246.96	26.3207
2247.2	36.7321
2247.43	32.0057
2247.67	31.0622
2247.91	31.0631
2248.14	32.0088
2248.38	29.1675
2248.62	32.9507
2248.85	28.2167
2249.09	32.9461
2249.33	32.9438
2249.56	28.2112
2249.8	31.0547
2250.04	34.844
2250.27	30.1109
2250.51	32.9458
2250.75	32.939
2250.98	33.8778
2251.22	32.9236
2251.46	31.9715
2251.69	34.803
2251.93	33.8553
2252.17	33.8562
2252.4	26.2949
2252.64	26.2985
2252.88	29.1412
2253.11	32.935
2253.35	34.8459
2253.59	32.9646
2253.82	28.2369
2254.06	29.1908
2254.3	32.0392
2254.53	31.097
2254.77	29.2045
2255.01	30.1528
2255.24	29.2014
2255.48	29.2024
2255.72	35.8394
2255.95	31.0993
2256.19	31.1002
2256.42	29.2083
2256.66	29.2134
2256.9	30.1668
2257.13	31.1202
2257.37	29.2268
2257.61	33.9776
2257.84	32.0836
2258.08	30.1877
2258.32	30.189
2258.55	30.1899
2258.79	32.0909
2259.02	30.194
2259.26	29.2479
2259.5	31.1521
2259.73	31.1547
2259.97	30.2066
2260.2	33.061
2260.44	25.4599
2260.68	34.0176
2260.91	34.0205
2261.15	29.271
2261.39	27.3775
2261.62	33.0913
2261.86	30.2381
2262.1	30.2395
2262.33	28.3384
2262.57	31.1955
2262.8	33.1032
2263.04	32.1578
2263.28	31.2123
2263.51	35.0303
2263.75	31.2294
2263.98	30.2868
2264.22	31.2519
2264.46	29.3555
2264.69	33.1824
2264.93	30.328
2265.16	35.1089
2265.4	29.3858
2265.64	33.2113
2265.87	33.2121
2266.11	26.5262
2266.34	32.2549
2266.58	32.2474
2266.81	29.3751
2267.05	26.5038
2267.29	33.1779
2267.52	32.2178
2267.76	35.0748
2267.99	29.3455
2268.23	31.246
2268.47	33.1473
2268.7	32.1914
2268.94	32.1921
2269.17	31.2425
2269.41	31.2488
2269.65	32.2108
2269.88	34.1284
2270.12	35.093
2270.35	30.3296
2270.59	33.2049
2270.82	33.2109
2271.06	32.259
2271.3	28.4421
2271.53	24.6225
2271.77	31.3186
2272	30.3663
2272.24	31.3282
2272.47	30.3744
2272.71	33.2447
2272.95	26.5488
2273.18	30.377
2273.42	32.2921
2273.65	33.2503
2273.89	31.3378
2274.12	28.4681
2274.36	29.4262
2274.6	34.2128
2274.83	29.4283
2275.07	24.6433
2275.3	31.3459
2275.54	33.262
2275.77	30.3915
2276.01	31.3475
2276.24	36.1397
2276.48	27.5276
2276.72	34.2405
2276.95	30.4146
2277.18	28.5034
2277.42	29.4681
2277.66	27.5593
2277.89	35.2445
2278.13	33.3384
2278.36	34.3125
2278.6	30.4759
2278.83	35.28
2279.07	29.5173
2279.3	34.318
2279.54	30.4739
2279.78	29.5078
2280.01	30.4539
2280.24	30.4446
2280.48	32.3544
2280.72	29.4694
2280.95	30.4221
2281.19	30.4173
2281.42	27.538
2281.66	31.3681
2281.89	25.6142
2282.13	32.3263
2282.36	29.4525
2282.6	30.4151
2282.83	29.4617
2283.07	30.4275
2283.3	36.1906
2283.54	31.4021
2283.77	30.4541
2284.01	30.4679
2284.24	27.5975
2284.48	31.4558
2284.71	32.4256
2284.95	30.5054
2285.19	30.5121
2285.42	32.4431
2285.65	29.5581
2285.89	33.4082
2286.12	33.4006
2286.36	34.3494
2286.59	29.5389
2286.83	35.312
2287.06	28.5831
2287.3	31.4836
2287.54	28.6069
2287.77	29.5739
2288	31.503
2288.24	35.3651
2288.47	33.4354
2288.71	29.577
2288.94	32.4615
2289.18	31.4923
2289.41	32.4449
2289.65	30.5078
2289.88	33.3827
2290.12	33.3684
2290.35	36.2476
2290.59	28.5529
2290.82	34.3206
2291.06	31.4369
2291.29	36.2487
2291.53	29.5255
2291.76	34.3455
2292	33.3907
2292.23	31.4711
2292.47	31.4762
2292.7	34.3705
2292.94	34.3783
2293.17	34.3856
2293.41	32.4643
2293.64	35.3598
2293.88	29.5807
2294.11	27.6543
2294.34	28.6156
2294.58	28.6117
2294.81	33.4246
2295.05	30.5277
2295.28	34.3759
2295.52	28.5922
2295.75	29.5506
2295.99	29.5461
2296.22	30.5048
2296.46	30.4973
2296.69	28.5601
2296.93	32.4063
2297.16	37.2194
2297.39	31.4506
2297.63	31.456
2297.86	32.4255
2298.1	29.5453
2298.33	33.4083
2298.57	31.4882
2298.8	29.565
2299.04	27.6427
2299.27	30.5419
2299.51	29.5837
2299.74	34.4113
2299.97	31.5204
2300.21	29.5903
2300.44	32.4839
2300.68	36.3413
2300.91	34.4157
2301.15	31.5265
2301.38	30.5651
2301.61	38.2896
2301.85	29.6046
2302.08	31.5354
2302.32	30.5688
2302.55	32.4959
2302.79	33.4584
2303.02	34.424
2303.25	31.5274
2303.49	30.5602
2303.72	31.5243
2303.96	28.6293
2304.19	26.7013
2304.43	28.6362
2304.66	31.5369
2304.89	32.5057
2305.13	26.7153
2305.36	33.4818
2305.6	32.5192
2305.83	29.6219
2306.07	29.624
2306.3	32.5265
2306.53	32.5301
2306.77	31.5646
2307	30.5983
2307.24	30.5975
2307.47	31.5626
2307.7	34.4586
2307.94	28.6558
2308.17	31.5521
2308.41	29.6164
2308.64	35.4101
2308.87	33.4774
2309.11	33.4786
2309.34	27.6853
2309.58	34.4551
2309.81	29.6296
2310.04	30.6057
2310.28	26.7428
2310.51	34.484
2310.75	32.5497
2310.98	27.7115
2311.21	32.5445
2311.45	30.6024
2311.68	28.6513
2311.92	29.5983
2312.15	25.7251
2312.38	33.4407
2312.62	33.4353
2312.85	32.464
2313.08	32.4593
2313.32	30.5286
2313.55	28.6018
2313.79	30.5407
2314.02	32.4836
2314.25	27.6629
2314.49	30.5695
2314.72	32.5117
2314.95	25.7549
2315.19	27.6977
2315.42	30.6045
2315.66	30.5959
2315.89	28.6538
2316.12	33.4815
2316.36	32.5055
2316.59	27.6573
2316.82	31.5118
2317.06	35.3692
2317.29	34.4024
2317.52	31.507
2317.76	29.577
2317.99	34.4142
2318.23	32.4878
2318.46	32.4762
2318.69	34.4017
2318.93	29.569
2319.16	38.2523
2319.39	32.4541
2319.63	32.4489
2319.86	37.2697
2320.09	36.3017
2320.33	33.4066
2320.56	35.3371
2320.79	37.2663
2321.03	32.4442
2321.26	38.24
2321.5	34.3845
2321.73	41.1495
2321.96	34.3977
2322.2	38.2713
2322.43	37.3166
2322.66	34.4261
2322.9	36.3627
2323.13	39.2607
2323.36	37.3286
2323.6	39.2646
2323.83	36.3659
2324.06	43.1368
2324.3	46.0387
2324.53	42.1686
2324.76	46.0339
2325	43.1221
2325.23	47.9402
2325.46	55.6509
2325.7	52.74
2325.93	52.7292
2326.16	61.4073
2326.4	72.012
2326.63	76.8214
2326.86	99.9604
2327.09	122.125
2327.33	171.283
2327.56	241.632
2327.79	288.835
2328.03	319.632
2328.26	311.885
2328.49	243.468
2328.73	192.385
2328.96	146.124
2329.19	111.401
2329.43	84.4007
2329.66	69.9288
2329.89	67.9955
2330.13	50.6558
2330.36	60.2948
2330.59	48.7317
2330.82	46.801
2331.06	42.9441
2331.29	39.0901
2331.52	37.1662
2331.76	37.1713
2331.99	36.2137
2332.22	32.3675
2332.46	32.3581
2332.69	36.2039
2332.92	36.1981
2333.16	35.2298
2333.39	35.2246
2333.62	33.2943
2333.85	26.5522
2334.09	33.2865
2334.32	31.3567
2334.55	32.3131
2334.79	31.3422
2335.02	33.2606
2335.25	34.2183
2335.48	35.1783
2335.72	33.2526
2335.95	36.1385
2336.18	32.2936
2336.41	33.2538
2336.65	32.2882
2336.88	32.2856
2337.11	34.2067
2337.34	30.3591
2337.58	28.4342
2337.81	32.2781
2338.04	31.3135
2338.28	33.2334
2338.51	32.2702
2338.74	34.1904
2338.97	31.3055
2339.21	30.345
2339.44	32.2677
2339.67	32.2671
2339.91	34.188
2340.14	28.4181
2340.37	30.3361
2340.6	36.0954
2340.84	34.1674
2341.07	33.1988
2341.3	32.2288
2341.53	32.2179
2341.77	37.0027
2342	32.1952
2342.23	33.1479
2342.46	30.2651
2342.7	30.26
2342.93	35.0494
2343.16	34.0882
2343.39	33.1285
2343.63	36.0042
2343.86	35.0434
2344.09	33.1245
2344.32	35.0416
2344.56	32.1677
2344.79	33.127
2345.02	35.0428
2345.25	30.2472
2345.49	35.9944
2345.72	34.0714
2345.95	34.0619
2346.18	28.3077
2346.41	30.2173
2346.65	32.1299
2346.88	29.2548
2347.11	33.0831
2347.34	34.0372
2347.58	33.0766
2347.81	34.0329
2348.04	29.2461
2348.27	31.1624
2348.5	33.0809
2348.74	32.1254
2348.97	34.9979
2349.2	34.9941
2349.43	34.0303
2349.67	29.2301
2349.9	34.9568
2350.13	32.0702
2350.36	31.0949
2350.59	31.0715
2350.83	36.7522
2351.06	34.7701
2351.29	34.8251
2351.52	32.0757
2351.75	28.279
2351.99	32.042
2352.22	31.0511
2352.45	30.099
2352.68	32.9661
2352.91	33.8993
2353.15	27.1958
2353.38	30.0333
2353.61	30.9933
2353.84	37.6585
2354.07	31.936
2354.31	28.1261
2354.54	30.9819
2354.77	30.9891
2355	32.9019
2355.23	33.8533
2355.47	30.0393
2355.7	36.7054
2355.93	31.9381
2356.16	30.9813
2356.39	33.8326
2356.63	30.0128
2356.86	32.8529
2357.09	31.8886
2357.32	31.8815
2357.55	35.6792
2357.79	32.8205
2358.02	29.9633
2358.25	29.9585
2358.48	31.8556
2358.71	31.8526
2358.94	33.7454
2359.18	32.7915
2359.41	31.8387
2359.64	29.9365
2359.87	33.7315
2360.1	29.9267
2360.33	31.8186
2360.57	29.9122
2360.8	35.5987
2361.03	34.6411
2361.26	33.6839
2361.49	32.7268
2361.72	27.9776
2361.96	31.7614
2362.19	33.6478
2362.42	29.8484
2362.65	31.7341
2362.88	37.4076
2363.11	27.9327
2363.34	33.6062
2363.58	35.4932
2363.81	32.6497
2364.04	31.6994
2364.27	28.857
2364.5	29.7982
2364.73	35.4678
2364.97	32.6251
