#Acq. time (s)=	30
#Accumulations=	2
#Range (cm-¹)=	1200...2400
#Windows=	4
#Auto scanning=	Off
#Autofocus=	Off
#Macrospot=	Off
#AutoExposure=	Off
#Spike filter=	Multiple accum.
#Delay time (s)=	2
#Binning=	1
#Readout mode=	Signal
#DeNoise=	Off
#ICS correction=	On
#Dark correction=	Off
#Inst. Process=	Off
#Detector Gain=	Best Dynamic
#Detector ADC=	50 kHz HS
#Detector temperature (°C)=	-60.09
#Instrument=	LabRAM HR Evol
#Detector=	SIN-EM FIVIS
#Objective=	x100_VIS
#Grating=	1800 (450-850nm)
#ND Filter=	100%
#Laser=	532nm_Edge
#Hole=	49.98
#Temperature=	0
#Range=	Visible
#StageXY=	75x50mm Scan+
#StageZ=	Z motor
#X (µm)=	0
#Y (µm)=	0
#Z (µm)=	-293.2
#Full time(mm:ss)=	4:21
#Project=	21_11_04
#Sample=	BU19w
#Site=	
#Title=	BU19w-E-FF11b-FI09-V_1800 (450-850nm)_532nm_Edge_100%_x100_VIS_H50um_30sX2
#Remark=	
#Date=	04.11.2021 17:31
#Acquired=	04.11.2021 17:31:01
1200.19	16.7014
1200.46	18.8537
1200.74	18.8443
1201.02	20.9823
1201.3	20.9691
1201.57	22.0345
1201.85	19.8854
1202.13	22.0544
1202.41	19.9394
1202.69	19.9234
1202.96	17.7628
1203.24	18.8199
1203.52	19.8932
1203.8	19.882
1204.08	23.116
1204.35	18.8137
1204.63	20.9583
1204.91	22.0233
1205.19	19.8667
1205.47	20.9301
1205.74	21.9931
1206.02	19.8382
1206.3	19.8289
1206.58	23.0339
1206.85	20.8842
1207.13	19.8087
1207.41	18.7337
1207.69	17.6605
1207.97	19.7964
1208.24	19.7903
1208.52	18.7157
1208.8	20.8501
1209.08	18.7102
1209.36	18.7093
1209.63	17.6378
1209.91	21.9075
1210.19	18.6935
1210.46	17.6188
1210.74	20.8152
1211.02	19.7408
1211.3	21.8677
1211.57	20.7927
1211.85	17.5879
1212.13	17.583
1212.41	19.7084
1212.69	17.5732
1212.96	18.6351
1213.24	20.7615
1213.52	22.8885
1213.79	16.5017
1214.07	18.6315
1214.35	16.5022
1214.63	17.5665
1214.9	18.6304
1215.18	17.5648
1215.46	20.7552
1215.74	22.8771
1216.01	20.7409
1216.29	20.7321
1216.57	16.4735
1216.85	19.6561
1217.12	17.526
1217.4	19.6452
1217.68	19.6408
1217.95	19.6363
1218.23	18.5717
1218.51	20.6924
1218.79	18.5685
1219.06	16.4449
1219.34	22.8066
1219.62	20.6827
1219.89	19.6222
1220.17	19.6215
1220.45	22.8022
1220.73	18.557
1221	19.6143
1221.28	23.8499
1221.56	16.4244
1221.84	18.5359
1222.11	21.7031
1222.39	18.5176
1222.67	20.6249
1222.94	19.5577
1223.22	18.4942
1223.5	24.8256
1223.77	20.5935
1224.05	16.366
1224.33	20.5854
1224.61	20.5836
1224.88	15.3058
1225.16	25.8661
1225.44	19.5335
1225.71	25.8706
1225.99	17.4217
1226.27	21.6427
1226.54	24.8052
1226.82	23.7427
1227.1	26.8897
1227.37	24.7598
1227.65	22.6394
1227.93	22.6231
1228.21	24.7057
1228.48	22.5921
1228.76	22.6133
1229.03	23.7212
1229.31	21.6314
1229.59	21.6108
1229.86	23.7023
1230.14	24.7522
1230.42	23.6957
1230.69	22.6139
1230.97	21.5401
1231.25	21.5421
1231.52	23.6433
1231.8	21.54
1232.08	20.4877
1232.35	22.5882
1232.63	21.5359
1232.91	23.6353
1233.18	22.585
1233.46	21.5361
1233.74	21.5381
1234.01	18.3883
1234.29	23.6461
1234.57	21.5468
1234.84	23.6509
1235.12	21.551
1235.4	21.5534
1235.67	24.7087
1235.95	23.6556
1236.23	22.6011
1236.5	26.8016
1236.78	23.6418
1237.06	23.6335
1237.33	22.575
1237.61	20.4678
1237.88	18.3618
1238.16	23.5999
1238.44	22.546
1238.71	19.397
1238.99	20.4429
1239.27	19.3929
1239.54	20.4401
1239.82	22.536
1240.1	23.5844
1240.37	21.4888
1240.65	21.4901
1240.92	18.3455
1241.2	20.4386
1241.48	23.579
1241.75	20.4337
1242.03	23.5792
1242.3	21.484
1242.58	18.3441
1242.86	22.5384
1243.13	21.4889
1243.41	21.4901
1243.68	21.4916
1243.96	22.5384
1244.24	20.4406
1244.51	19.3899
1244.79	18.3368
1245.06	22.5226
1245.34	22.5134
1245.62	28.7883
1245.89	22.5057
1246.17	23.5507
1246.44	24.5984
1246.72	21.457
1247	23.5483
1247.27	23.5481
1247.55	26.6827
1247.82	20.3963
1248.1	22.4861
1248.38	22.4858
1248.65	22.4877
1248.93	25.6265
1249.2	23.5325
1249.48	20.3947
1249.75	21.4397
1250.03	21.4341
1250.31	24.5647
1250.58	23.5144
1250.86	22.4651
1251.13	22.4613
1251.41	22.4573
1251.69	23.4975
1251.96	22.449
1252.24	22.4447
1252.51	22.44
1252.79	19.3059
1253.06	20.3482
1253.34	23.4803
1253.61	20.3531
1253.89	18.2693
1254.17	26.6254
1254.44	20.3616
1254.72	23.4949
1254.99	22.4518
1255.27	22.4513
1255.54	25.5837
1255.82	26.6295
1256.09	22.4548
1256.37	24.5463
1256.65	25.591
1256.92	27.6775
1257.2	25.5856
1257.47	29.7603
1257.75	28.7138
1258.02	28.7114
1258.3	27.6622
1258.57	27.658
1258.85	26.6157
1259.13	21.3986
1259.4	30.8044
1259.67	25.5851
1259.95	30.7995
1260.23	27.6585
1260.5	27.65
1260.78	31.8169
1261.05	28.6836
1261.33	33.9156
1261.6	36.0392
1261.88	41.3269
1262.15	38.1575
1262.43	47.5012
1262.7	44.3148
1262.98	46.4215
1263.25	47.5057
1263.53	43.3613
1263.8	39.2281
1264.08	40.2608
1264.35	37.1064
1264.63	27.696
1264.9	32.9229
1265.18	26.646
1265.45	28.7334
1265.73	24.5547
1266	30.827
1266.28	27.6964
1266.55	25.6113
1266.83	28.7546
1267.1	27.7167
1267.38	27.725
1267.66	25.6415
1267.93	27.7489
1268.2	24.6135
1268.48	29.8557
1268.75	25.6694
1269.03	26.72
1269.31	28.8105
1269.58	28.8033
1269.85	25.6535
1270.13	24.6015
1270.4	25.6424
1270.68	30.8716
1270.95	29.823
1271.23	23.5424
1271.5	23.546
1271.78	24.5988
1272.05	28.795
1272.33	23.5679
1272.6	26.7169
1272.88	24.6281
1273.15	27.7795
1273.43	23.5926
1273.7	30.9396
1273.98	27.7965
1274.25	26.7479
1274.53	26.7472
1274.8	25.6994
1275.07	28.8502
1275.35	27.8058
1275.62	28.8609
1275.9	25.7181
1276.17	29.9225
1276.45	30.9777
1276.72	27.8326
1277	27.8394
1277.27	29.9478
1277.54	31.0055
1277.82	33.1139
1278.1	34.1732
1278.37	34.1811
1278.64	33.1352
1278.92	36.2934
1279.19	37.3431
1279.47	37.3393
1279.74	42.5945
1280.02	48.9056
1280.29	51.0129
1280.56	63.6448
1280.84	72.0819
1281.11	96.3086
1281.39	124.734
1281.66	166.842
1281.94	221.609
1282.21	311.096
1282.49	382.587
1282.76	423.321
1283.03	462.964
1283.31	438.74
1283.58	366.154
1283.86	301.554
1284.13	189.123
1284.41	144.899
1284.68	101.664
1284.95	74.2373
1285.23	61.5887
1285.5	50.0159
1285.78	52.1312
1286.05	38.4332
1286.32	44.7477
1286.6	37.3767
1286.87	36.3204
1287.15	33.1564
1287.42	34.2034
1287.69	35.2537
1287.97	33.1496
1288.24	32.0982
1288.52	33.1542
1288.79	30.0019
1289.06	27.9014
1289.34	28.9599
1289.61	26.8597
1289.89	28.9703
1290.16	30.0207
1290.43	28.9647
1290.71	27.9106
1290.98	26.8572
1291.26	27.9101
1291.53	25.8023
1291.8	22.6441
1292.08	22.6457
1292.35	31.0676
1292.62	23.6949
1292.9	26.8571
1293.17	25.8159
1293.45	24.7716
1293.72	29.0009
1293.99	22.6719
1294.27	26.8909
1294.54	24.7793
1294.82	24.7879
1295.09	32.1867
1295.36	22.7026
1295.64	24.8324
1295.91	26.9525
1296.18	23.7825
1296.46	21.6686
1296.73	26.9494
1297.01	21.6613
1297.28	24.826
1297.55	22.7078
1297.83	22.7036
1298.1	24.8195
1298.37	21.6476
1298.65	24.8117
1298.92	22.6969
1299.19	25.8608
1299.47	24.8069
1299.74	25.8671
1300.02	23.7571
1300.29	24.8131
1300.56	24.8119
1300.84	22.7001
1301.11	23.7582
1301.38	23.7624
1301.65	21.653
1301.93	22.7107
1302.2	24.8237
1302.47	18.4852
1302.75	21.6523
1303.02	22.7055
1303.29	22.7027
1303.57	24.8143
1303.84	24.8148
1304.12	23.7588
1304.39	23.7575
1304.66	23.7542
1304.94	22.6941
1305.21	24.7997
1305.48	26.904
1305.75	23.7335
1306.03	26.8939
1306.3	24.7832
1306.57	21.6203
1306.85	23.7312
1307.12	22.6768
1307.39	23.7312
1307.67	23.7319
1307.94	23.7319
1308.21	21.6221
1308.49	21.6243
1308.76	22.6826
1309.03	26.9066
1309.31	20.5784
1309.58	22.69
1309.85	24.7995
1310.13	21.6329
1310.4	25.8545
1310.67	21.6345
1310.94	20.5802
1311.22	17.4149
1311.49	22.6951
1311.76	23.7548
1312.04	22.7017
1312.31	23.7587
1312.58	21.6442
1312.85	22.6974
1313.13	24.8081
1313.4	22.6946
1313.67	21.638
1313.95	21.6386
1314.22	21.6403
1314.49	19.5313
1314.76	23.7573
1315.04	20.5922
1315.31	22.7073
1315.58	21.6528
1315.86	22.7077
1316.13	20.5942
1316.4	21.6496
1316.67	21.6493
1316.95	20.5943
1317.22	21.6533
1317.49	17.4298
1317.77	22.7128
1318.04	21.6572
1318.31	25.8834
1318.58	22.7139
1318.86	23.7696
1319.13	23.7687
1319.4	21.6561
1319.67	22.7136
1319.95	21.6569
1320.22	20.5987
1320.49	22.7075
1320.76	25.8697
1321.04	22.6952
1321.31	22.6895
1321.58	21.6292
1321.85	19.5148
1322.13	24.7858
1322.4	21.6187
1322.67	23.7235
1322.94	22.6679
1323.22	21.6155
1323.49	22.6708
1323.76	22.6706
1324.03	23.725
1324.31	23.7246
1324.58	24.7802
1324.85	24.7786
1325.12	22.6621
1325.4	18.4371
1325.67	18.4245
1325.94	24.7286
1326.21	23.6709
1326.48	21.5682
1326.76	21.58
1327.03	21.5909
1327.3	20.5448
1327.57	21.6064
1327.85	20.5606
1328.12	21.6229
1328.39	22.684
1328.66	19.517
1328.93	22.6828
1329.21	22.6835
1329.48	24.7923
1329.75	20.5703
1330.02	25.841
1330.3	22.6722
1330.57	20.5579
1330.84	18.4435
1331.11	17.3821
1331.38	22.6402
1331.66	25.7916
1331.93	21.5746
1332.2	23.672
1332.47	21.5601
1332.74	22.6042
1333.01	19.4439
1333.29	22.5905
1333.56	24.6849
1333.83	20.4778
1334.1	21.5224
1334.37	20.4678
1334.65	21.5133
1334.92	23.6075
1335.19	22.5542
1335.46	19.4039
1335.73	20.4494
1336.01	22.5437
1336.28	20.4439
1336.55	22.5384
1336.82	22.5364
1337.09	22.5346
1337.37	25.6757
1337.64	22.5246
1337.91	19.3784
1338.18	22.5179
1338.45	22.5137
1338.72	19.3711
1339	23.5593
1339.27	24.608
1339.54	26.7036
1339.81	21.4678
1340.08	22.5163
1340.35	23.564
1340.63	22.5158
1340.9	18.326
1341.17	21.4658
1341.44	20.4161
1341.71	24.5996
1341.98	23.5473
1342.26	21.4484
1342.53	22.4894
1342.8	22.4873
1343.07	21.4401
1343.34	17.2563
1343.61	22.4855
1343.88	21.4401
1344.16	21.4396
1344.43	20.3913
1344.7	23.524
1344.97	19.3371
1345.24	23.5108
1345.51	21.4154
1345.79	23.4955
1346.06	22.4408
1346.33	24.5213
1346.6	21.3845
1346.87	19.2924
1347.14	21.3728
1347.41	25.5391
1347.68	22.4094
1347.95	23.4499
1348.23	19.2791
1348.5	22.4017
1348.77	24.4809
1349.04	23.4348
1349.31	21.3478
1349.58	22.3852
1349.86	24.4632
1350.13	25.499
1350.4	22.3712
1350.67	22.3663
1350.94	23.402
1351.21	24.4375
1351.48	21.3167
1351.75	21.3174
1352.02	26.5209
1352.3	22.3665
1352.57	19.2499
1352.84	25.5041
1353.11	25.5282
1353.38	25.533
1353.65	24.4619
1353.92	21.3103
1354.19	18.1819
1354.46	23.3796
1354.73	21.2995
1355.01	17.1363
1355.28	23.3692
1355.55	24.4197
1355.82	25.4526
1356.09	25.4494
1356.36	22.3311
1356.63	21.2907
1356.9	20.2499
1357.17	22.3237
1357.44	22.3201
1357.71	21.2782
1357.99	25.4255
1358.26	21.271
1358.53	21.2661
1358.8	25.4114
1359.07	21.2599
1359.34	22.2942
1359.61	27.4697
1359.88	28.4986
1360.15	25.3826
1360.42	21.2357
1360.69	20.1989
1360.96	25.3781
1361.23	24.3409
1361.5	24.3394
1361.78	27.4427
1362.05	24.3338
1362.32	21.2254
1362.59	24.3316
1362.86	25.3696
1363.13	22.2674
1363.4	26.4128
1363.67	25.3799
1363.94	27.45
1364.21	26.4123
1364.48	24.3376
1364.75	27.4391
1365.02	26.3976
1365.29	29.4963
1365.56	26.3856
1365.83	22.2416
1366.11	25.3388
1366.38	25.331
1366.65	22.2224
1366.92	26.3541
1367.19	25.3196
1367.46	24.2899
1367.73	25.325
1368	28.4278
1368.27	33.5985
1368.54	46.0072
1368.81	47.045
1369.08	40.8418
1369.35	36.701
1369.62	28.4273
1369.89	24.2886
1370.16	24.283
1370.43	27.3793
1370.7	26.3404
1370.97	27.3652
1371.24	24.2586
1371.51	25.281
1371.78	28.3663
1372.05	28.3574
1372.32	23.1962
1372.59	22.1619
1372.86	25.251
1373.13	26.2786
1373.4	29.3675
1373.67	23.183
1373.94	25.242
1374.21	26.2705
1374.48	27.2981
1374.75	25.2363
1375.02	26.2684
1375.29	30.3909
1375.56	28.331
1375.83	27.299
1376.1	30.382
1376.37	28.3144
1376.64	27.2744
1376.91	28.298
1377.18	29.3321
1377.45	30.3707
1377.72	29.3538
1377.99	31.4307
1378.26	32.4742
1378.53	35.5701
1378.8	32.4746
1379.07	32.4703
1379.34	33.4958
1379.61	30.396
1379.88	34.4957
1380.15	32.4156
1380.42	33.4283
1380.69	36.5111
1380.96	32.397
1381.23	36.4982
1381.5	34.4253
1381.77	36.4635
1382.04	35.4229
1382.31	36.4354
1382.58	44.6319
1382.85	44.6182
1383.12	47.6845
1383.39	45.625
1383.66	50.7486
1383.93	64.0793
1384.2	69.2149
1384.47	78.4585
1384.74	104.137
1385.01	139.065
1385.28	166.821
1385.55	250.011
1385.82	353.781
1386.09	540.77
1386.36	811.98
1386.62	1074.86
1386.89	1012.76
1387.16	750.858
1387.43	458.4
1387.7	263.253
1387.97	173.55
1388.24	110.219
1388.51	102.135
1388.78	76.4865
1389.05	66.2356
1389.32	46.7217
1389.59	51.8309
1389.86	47.68
1390.13	43.5869
1390.4	40.4929
1390.67	42.5329
1390.94	38.4325
1391.21	31.2534
1391.47	36.3678
1391.74	34.3102
1392.01	31.2315
1392.28	30.203
1392.55	31.2229
1392.82	33.2668
1393.09	31.2166
1393.36	32.2374
1393.63	28.1416
1393.9	30.1864
1394.17	29.1614
1394.44	28.1375
1394.71	29.1663
1394.97	26.0999
1395.24	26.1028
1395.51	30.1978
1395.78	29.1726
1396.05	27.1227
1396.32	27.1193
1396.59	25.0694
1396.86	26.0872
1397.13	27.1061
1397.4	28.1273
1397.66	26.0822
1397.93	26.0846
1398.2	30.1796
1398.47	26.0891
1398.74	30.1842
1399.01	29.1656
1399.28	27.1218
1399.55	29.1705
1399.82	26.1009
1400.09	24.0583
1400.35	24.0633
1400.62	29.185
1400.89	26.1134
1401.16	23.0431
1401.43	28.1671
1401.7	27.1543
1401.97	28.1954
1402.24	26.1593
1402.5	27.1959
1402.77	28.2295
1403.04	27.2059
1403.31	27.2042
1403.58	27.1946
1403.85	26.1611
1404.12	35.3966
1404.39	27.1861
1404.65	30.2596
1404.92	32.3054
1405.19	32.2997
1405.46	31.269
1405.73	33.315
1406	31.2618
1406.27	34.3358
1406.54	40.4879
1406.8	40.4912
1407.07	50.7462
1407.34	50.7494
1407.61	67.1573
1407.88	68.1867
1408.15	67.1659
1408.42	67.1716
1408.68	63.0753
1408.95	53.8493
1409.22	50.776
1409.49	41.5462
1409.76	33.337
1410.03	34.3552
1410.29	33.3199
1410.56	30.2359
1410.83	30.2298
1411.1	25.1022
1411.37	29.1975
1411.64	25.1006
1411.9	28.1795
1412.17	24.0893
1412.44	23.0857
1412.71	22.0834
1412.98	23.1133
1413.25	23.084
1413.51	22.0442
1413.78	25.1312
1414.05	27.2012
1414.32	22.0729
1414.59	25.1528
1414.86	22.0734
1415.12	17.9669
1415.39	24.1284
1415.66	22.0769
1415.93	26.1869
1416.2	19.0003
1416.47	20.0296
1416.73	22.0867
1417	20.0346
1417.27	24.1466
1417.54	20.0374
1417.81	24.1481
1418.07	22.0946
1418.34	25.1779
1418.61	22.0961
1418.88	21.0678
1419.15	24.1476
1419.41	20.0334
1419.68	21.0569
1419.95	22.0801
1420.22	23.1022
1420.49	22.071
1420.75	18.9882
1421.02	24.1195
1421.29	24.1223
1421.56	20.0239
1421.83	22.0834
1422.09	23.1206
1422.36	21.0777
1422.63	22.1293
1422.9	21.1142
1423.17	21.0183
1423.43	23.0791
1423.7	21.0155
1423.97	20.9951
1424.24	25.1096
1424.5	25.1049
1424.77	20.0098
1425.04	22.0419
1425.31	23.0815
1425.58	22.0561
1425.84	23.0805
1426.11	22.0494
1426.38	21.0187
1426.65	19.9878
1426.91	22.0315
1427.18	18.9484
1427.45	23.0403
1427.72	22.0136
1427.98	19.9653
1428.25	16.8945
1428.52	23.0396
1428.79	24.066
1429.06	19.9723
1429.32	23.049
1429.59	21.0053
1429.86	19.9863
1430.12	23.0653
1430.39	21.023
1430.66	20.007
1430.93	20.0126
1431.2	21.0413
1431.46	18.9875
1431.73	21.0352
1432	21.0306
1432.26	23.0796
1432.53	21.0201
1432.8	12.8125
1433.07	23.0525
1433.33	18.9476
1433.6	19.9683
1433.87	18.9444
1434.14	17.931
1434.4	17.9321
1434.67	22.0317
1434.94	18.9575
1435.21	21.0064
1435.47	18.9561
1435.74	18.955
1436.01	16.9047
1436.28	22.0253
1436.54	23.0477
1436.81	20.9976
1437.08	20.997
1437.34	18.9464
1437.61	20.9945
1437.88	19.9724
1438.15	23.0484
1438.41	21.0012
1438.68	18.9531
1438.95	21.0041
1439.21	21.008
1439.48	17.9381
1439.75	18.9676
1440.01	19.995
1440.28	24.0978
1440.55	22.0477
1440.82	17.9461
1441.08	21.0204
1441.35	23.0681
1441.62	22.0434
1441.88	18.9703
1442.15	18.9722
1442.42	19.9994
1442.69	19.9967
1442.95	22.0442
1443.22	18.966
1443.49	16.9144
1443.75	22.04
1444.02	19.9928
1444.29	16.9216
1444.55	22.0557
1444.82	21.0334
1445.09	20.0058
1445.35	23.0816
1445.62	20.0025
1445.89	22.0524
1446.15	18.974
1446.42	19.9982
1446.69	21.0221
1446.95	16.9184
1447.22	22.0427
1447.49	23.0664
1447.76	19.9922
1448.02	19.9964
1448.29	19.9997
1448.56	20.0005
1448.82	16.923
1449.09	22.049
1449.35	22.046
1449.62	18.9667
1449.89	18.9644
1450.15	18.9629
1450.42	21.0114
1450.69	18.9601
1450.96	19.9833
1451.22	22.0307
1451.49	19.9797
1451.75	16.9048
1452.02	17.9291
1452.29	21.0032
1452.55	21.005
1452.82	16.9084
1453.09	16.9096
1453.35	18.9589
1453.62	17.9329
1453.89	18.9571
1454.15	15.8831
1454.42	19.982
1454.68	19.9811
1454.95	18.9555
1455.22	17.9328
1455.48	17.9356
1455.75	18.9616
1456.02	18.9612
1456.28	19.9838
1456.55	19.9803
1456.82	16.9045
1457.08	17.9278
1457.35	19.9756
1457.61	18.9509
1457.88	16.9024
1458.15	22.0253
1458.41	16.9042
1458.68	21.0031
1458.95	18.9549
1459.21	17.9303
1459.48	18.954
1459.74	18.9528
1460.01	18.9515
1460.28	18.9499
1460.54	17.9235
1460.81	15.8732
1461.08	18.943
1461.34	19.964
1461.61	15.8662
1461.87	19.957
1462.14	20.9762
1462.41	20.9717
1462.67	18.9213
1462.94	17.8944
1463.2	15.8464
1463.47	16.8701
1463.74	16.8777
1464	16.8845
1464.27	18.9378
1464.53	16.8999
1464.8	19.9361
1465.07	16.8471
1465.33	16.8364
1465.6	17.8612
1465.86	18.886
1466.13	18.8805
1466.39	16.8317
1466.66	16.8337
1466.93	21.9348
1467.19	18.8728
1467.46	19.8917
1467.72	16.831
1467.99	18.8709
1468.26	17.8504
1468.52	19.889
1468.79	16.8274
1469.05	18.8648
1469.32	15.802
1469.58	19.8755
1469.85	16.8151
1470.12	14.7751
1470.38	18.8489
1470.65	17.8293
1470.91	20.8817
1471.18	18.841
1471.44	18.839
1471.71	16.8016
1471.97	18.8376
1472.24	19.8554
1472.51	18.8366
1472.77	16.7986
1473.04	20.8675
1473.3	17.8114
1473.57	19.8448
1473.83	19.8439
1474.1	17.809
1474.36	18.8291
1474.63	18.8298
1474.9	15.7764
1475.16	14.7579
1475.43	19.8446
1475.69	17.8068
1475.96	16.7881
1476.22	19.8386
1476.49	15.7662
1476.75	18.815
1477.02	16.7802
1477.29	17.7967
1477.55	19.8301
1477.81	15.7599
1478.08	15.757
1478.34	19.8205
1478.61	18.8012
1478.88	16.7658
1479.14	17.7785
1479.41	16.759
1479.67	19.8011
1479.94	18.7794
1480.2	17.7598
1480.47	15.7276
1480.73	19.7842
1481	18.768
1481.26	18.7703
1481.53	15.7291
1481.79	18.777
1482.06	19.7958
1482.32	20.8131
1482.59	16.7527
1482.85	17.7699
1483.12	17.7707
1483.38	17.7706
1483.65	18.783
1483.92	17.7598
1484.18	17.7469
1484.44	20.7651
1484.71	23.7795
1484.97	21.7422
1485.24	18.7151
1485.5	18.7445
1485.77	19.7645
1486.03	18.7478
1486.3	16.713
1486.56	19.7595
1486.83	19.7592
1487.09	17.7279
1487.36	18.7373
1487.62	18.7346
1487.89	19.7437
1488.15	20.7516
1488.42	17.7109
1488.68	18.72
1488.95	17.7064
1489.21	19.7284
1489.48	19.7275
1489.74	13.6575
1490.01	17.7032
1490.27	17.7006
1490.54	19.7196
1490.8	16.6832
1491.07	19.7151
1491.33	13.6485
1491.6	15.6708
1491.86	17.6931
1492.12	17.6924
1492.39	19.7135
1492.65	20.7242
1492.92	18.7018
1493.18	17.6898
1493.45	17.6895
1493.71	19.7118
1493.98	19.7134
1494.24	14.6593
1494.51	17.6909
1494.77	17.6873
1495.04	18.692
1495.3	16.6657
1495.56	18.6812
1495.83	18.6782
1496.09	17.6663
1496.36	20.692
1496.62	18.6717
1496.89	16.6531
1497.15	19.6804
1497.42	18.6703
1497.68	13.6242
1497.94	19.6796
1498.21	17.6617
1498.47	17.6623
1498.74	18.6726
1499	15.6458
1499.27	17.6662
1499.53	17.6674
1499.8	16.6582
1500.06	17.6675
1500.32	16.6575
1500.59	17.6662
1500.85	16.654
1501.12	18.6702
1501.38	16.651
1501.64	14.6323
1501.91	18.6679
1502.17	21.6921
1502.44	13.6176
1502.7	15.6329
1502.97	17.647
1503.23	21.6781
1503.5	17.6459
1503.76	18.6557
1504.02	19.6648
1504.29	20.6731
1504.55	17.6466
1504.81	17.6446
1505.08	15.6254
1505.34	18.6427
1505.61	15.6161
1505.87	18.6378
1506.13	17.6297
1506.4	17.6319
1506.66	16.6258
1506.93	18.642
1507.19	18.6426
1507.46	17.6343
1507.72	15.6178
1507.98	19.6478
1508.25	16.6256
1508.51	18.6414
1508.77	19.6492
1509.04	15.6182
1509.3	17.6339
1509.57	22.6761
1509.83	16.6278
1510.09	18.64
1510.36	17.6287
1510.62	18.6317
1510.89	17.6192
1511.15	18.6176
1511.41	18.6075
1511.68	18.5985
1511.94	18.5892
1512.21	16.574
1512.47	17.5742
1512.73	18.5744
1513	16.5635
1513.26	15.5594
1513.52	16.5698
1513.79	18.5837
1514.05	19.5881
1514.31	17.5766
1514.58	18.5759
1514.84	16.5638
1515.1	18.5664
1515.37	17.5575
1515.63	13.5404
1515.9	17.5498
1516.16	17.5484
1516.42	16.5443
1516.69	18.5487
1516.95	18.5485
1517.21	20.5544
1517.48	19.5541
1517.74	16.5482
1518	19.558
1518.27	18.5563
1518.53	20.5638
1518.79	17.556
1519.06	18.5605
1519.32	16.5544
1519.58	17.557
1519.85	19.5618
1520.11	20.5644
1520.37	19.5627
1520.64	16.5547
1520.9	17.5593
1521.16	17.5595
1521.43	16.5552
1521.69	17.5569
1521.95	16.5518
1522.22	14.5439
1522.48	18.5537
1522.75	21.5579
1523.01	18.5438
1523.27	20.5413
1523.53	18.5328
1523.8	16.526
1524.06	15.5219
1524.32	19.5263
1524.59	18.5267
1524.85	17.526
1525.11	18.5289
1525.38	16.5284
1525.64	21.5416
1525.9	17.5382
1526.17	17.541
1526.43	17.5418
1526.69	16.5384
1526.95	17.5388
1527.22	15.5333
1527.48	18.5382
1527.74	14.5286
1528.01	19.5362
1528.27	18.5325
1528.53	15.5261
1528.8	22.5371
1529.06	14.5234
1529.32	17.5265
1529.58	18.5259
1529.85	15.5217
1530.11	18.5283
1530.37	17.5304
1530.64	17.5337
1530.9	20.5417
1531.16	18.5375
1531.42	19.539
1531.69	18.5363
1531.95	19.5374
1532.21	20.5428
1532.48	16.5394
1532.74	16.5452
1533	16.5493
1533.27	14.5451
1533.53	17.5553
1533.79	17.5549
1534.05	17.5538
1534.32	17.5523
1534.58	16.5478
1534.84	17.5487
1535.1	18.5458
1535.37	18.5379
1535.63	18.533
1535.89	17.5266
1536.15	17.5204
1536.42	20.5165
1536.68	21.512
1536.94	19.5073
1537.2	20.5051
1537.47	16.5031
1537.73	17.4988
1537.99	15.4954
1538.25	22.4908
1538.52	17.4934
1538.78	16.4999
1539.04	17.5111
1539.31	19.525
1539.57	19.5341
1539.83	17.5382
1540.09	17.5448
1540.36	21.5604
1540.62	18.5498
1540.88	17.5427
1541.14	15.5357
1541.41	14.5296
1541.67	18.5332
1541.93	19.5302
1542.19	15.5203
1542.45	18.52
1542.72	16.5141
1542.98	17.5103
1543.24	17.5041
1543.5	15.5008
1543.77	18.5017
1544.03	16.5033
1544.29	15.5071
1544.55	15.511
1544.81	18.5188
1545.08	16.5222
1545.34	18.5282
1545.6	17.5292
1545.86	19.5331
1546.13	18.5311
1546.39	18.5325
1546.65	17.5327
1546.91	19.5391
1547.17	19.5395
1547.44	17.5284
1547.7	13.5181
1547.96	16.5214
1548.22	18.5292
1548.49	18.5258
1548.75	19.5071
1549.01	17.4931
1549.27	20.4934
1549.53	14.5052
1549.79	23.5389
1550.06	20.56
1550.32	14.5611
1550.58	22.5982
1550.84	17.571
1551.1	18.5754
1551.37	16.5615
1551.63	22.5838
1551.89	17.5741
1552.15	17.577
1552.41	15.5667
1552.68	21.5805
1552.94	18.5601
1553.2	15.5487
1553.46	19.5589
1553.72	16.5459
1553.99	17.5437
1554.25	19.5413
1554.51	14.527
1554.77	17.5308
1555.03	15.5265
1555.3	17.5303
1555.56	19.5353
1555.82	17.5301
1556.08	15.5254
1556.34	21.536
1556.6	15.527
1556.87	19.5349
1557.13	17.5312
1557.39	17.5299
1557.65	18.5267
1557.91	18.5218
1558.17	18.5164
1558.43	16.5093
1558.7	18.505
1558.96	18.5005
1559.22	17.4969
1559.48	20.4931
1559.74	17.4918
1560	14.4919
1560.26	20.487
1560.53	18.4874
1560.79	17.4883
1561.05	16.4908
1561.31	17.4938
1561.57	19.4993
1561.83	18.5027
1562.1	16.5023
1562.36	18.5014
1562.62	17.5008
1562.88	20.5009
1563.14	17.499
1563.4	23.5007
1563.66	17.5071
1563.93	17.5123
1564.19	16.5127
1564.45	18.5106
1564.71	18.4929
1564.97	16.4606
1565.23	18.4149
1565.49	15.441
1565.76	16.4883
1566.02	17.4978
1566.28	22.4831
1566.54	18.4837
1566.8	17.5001
1567.06	22.5114
1567.32	15.501
1567.58	19.4936
1567.84	18.4963
1568.11	17.4986
1568.37	22.4988
1568.63	20.4948
1568.89	19.4888
1569.15	18.4869
1569.41	18.4876
1569.67	17.4893
1569.93	16.4902
1570.19	18.4891
1570.45	19.488
1570.72	16.4889
1570.98	20.4839
1571.24	16.4842
1571.5	18.4802
1571.76	16.4813
1572.02	19.4749
1572.28	15.4773
1572.54	19.4687
1572.8	16.4711
1573.07	19.4627
1573.33	17.465
1573.59	17.4663
1573.85	19.4663
1574.11	17.4738
1574.37	19.4756
1574.63	20.4794
1574.89	18.4855
1575.15	17.4888
1575.41	18.4881
1575.67	18.4872
1575.94	17.4872
1576.2	15.4858
1576.46	18.4768
1576.72	19.4683
1576.98	18.4634
1577.24	18.4572
1577.5	20.4462
1577.76	19.4437
1578.02	15.4531
1578.28	16.4494
1578.54	18.4431
1578.8	18.4431
1579.06	19.4404
1579.32	19.4422
1579.58	19.4445
1579.85	18.4484
1580.11	18.4484
1580.37	17.4501
1580.63	19.4418
1580.89	18.4421
1581.15	16.4458
1581.41	17.4388
1581.67	17.436
1581.93	19.4273
1582.19	18.4297
1582.45	17.4323
1582.71	20.4196
1582.97	18.4271
1583.23	18.426
1583.49	16.4328
1583.75	16.4334
1584.01	17.4307
1584.27	17.4318
1584.53	20.4206
1584.79	15.4395
1585.06	18.427
1585.32	17.4302
1585.58	19.4194
1585.84	13.441
1586.1	17.4196
1586.36	16.4215
1586.62	19.4049
1586.88	18.4079
1587.14	18.4065
1587.4	19.4008
1587.66	20.3964
1587.92	19.4032
1588.18	14.4299
1588.44	16.4224
1588.7	17.4199
1588.96	18.4175
1589.22	17.4232
1589.48	17.4235
1589.74	18.4196
1590	18.4213
1590.26	18.4235
1590.52	22.4078
1590.78	18.4239
1591.04	17.4275
1591.3	18.4221
1591.56	16.4282
1591.82	20.4054
1592.08	21.3945
1592.34	19.4008
1592.6	18.4016
1592.86	18.3948
1593.12	19.381
1593.38	17.387
1593.64	16.3899
1593.9	17.3816
1594.16	20.3621
1594.42	17.385
1594.68	18.3816
1594.94	19.3779
1595.2	20.367
1595.46	18.3748
1595.72	15.3949
1595.98	18.3745
1596.24	18.3748
1596.5	17.3825
1596.76	19.3704
1597.02	20.3658
1597.28	19.3732
1597.54	18.3789
1597.8	18.3767
1598.06	18.3727
1598.32	17.375
1598.58	20.3491
1598.84	19.353
1599.1	20.342
1599.36	21.3307
1599.62	20.3352
1599.88	19.3399
1600.14	17.3527
1600.4	18.3394
1600.66	20.3157
1600.92	19.3183
1601.17	20.3027
1601.43	20.2977
1601.69	19.3037
1601.95	18.3101
1602.21	16.3317
1602.47	20.237
1602.73	19.2388
1602.99	16.3156
1603.25	20.0759
1603.51	17.3017
1603.77	19.1578
1604.03	16.3143
1604.29	17.3703
1604.55	19.2506
1604.81	17.2605
1605.07	18.9977
1605.33	17.3065
1605.59	18.1174
1605.85	18.9771
1606.11	18.3022
1606.37	19.0212
1606.63	18.7316
1606.88	19.5748
1607.14	18.1836
1607.4	18.8893
1607.66	16.945
1607.92	20.6534
1608.18	15.6846
1608.44	17.6086
1608.7	22.3234
1608.96	15.8012
1609.22	18.5498
1609.48	17.0083
1609.74	18.6403
1610	16.9343
1610.26	17.469
1610.51	20.6543
1610.77	18.0353
1611.03	20.4201
1611.29	18.3565
1611.55	19.7589
1611.81	17.5806
1612.07	19.1284
1612.33	17.7962
1612.59	17.4136
1612.85	17.6716
1613.11	18.2209
1613.37	16.8967
1613.62	18.6633
1613.88	17.8144
1614.14	17.9071
1614.4	17.0957
1614.66	20.7365
1614.92	17.3819
1615.18	18.6999
1615.44	17.787
1615.7	18.7147
1615.96	16.7954
1616.21	15.808
1616.47	16.6269
1616.73	18.6897
1616.99	19.2365
1617.25	19.0689
1617.51	18.3449
1617.77	15.5908
1618.03	17.9231
1618.28	16.9021
1618.54	16.7508
1618.8	18.105
1619.06	18.3536
1619.32	19.5932
1619.58	19.5261
1619.84	17.4781
1620.1	17.514
1620.35	17.0827
1620.61	17.5966
1620.87	16.9185
1621.13	17.204
1621.39	16.0198
1621.65	17.9866
1621.91	18.2389
1622.17	18.459
1622.42	18.7863
1622.68	17.7143
1622.94	17.1106
1623.2	17.2592
1623.46	18.6462
1623.72	18.0635
1623.98	16.8426
1624.23	16.0845
1624.49	16.7706
1624.75	17.7863
1625.01	17.9516
1625.27	17.9523
1625.53	17.6006
1625.79	17.5724
1626.04	17.7293
1626.3	16.0589
1626.56	15.2055
1626.82	16.3703
1627.08	14.8931
1627.34	17.1882
1627.59	19.863
1627.85	18.2789
1628.11	17.6501
1628.37	19.2739
1628.63	16.9369
1628.81	16.2589
1629.07	17.2429
1629.33	16.2565
1629.59	15.2706
1629.85	19.2104
1630.12	14.2837
1630.38	17.2365
1630.64	16.2518
1630.9	20.1933
1631.16	16.2561
1631.42	17.2446
1631.68	16.2614
1631.95	18.2323
1632.21	17.2533
1632.47	18.2454
1632.73	13.3079
1632.99	18.229
1633.25	17.2433
1633.51	15.2751
1633.78	15.2773
1634.04	18.235
1634.3	17.2496
1634.56	17.2493
1634.82	18.2342
1635.08	16.2619
1635.34	19.217
1635.6	16.2588
1635.87	19.2126
1636.13	16.2548
1636.39	17.2375
1636.65	19.2042
1636.91	17.2319
1637.17	16.2461
1637.43	16.2453
1637.69	19.1972
1637.95	18.211
1638.21	16.2416
1638.48	15.2574
1638.74	22.1479
1639	15.2574
1639.26	17.226
1639.52	17.2256
1639.78	15.2566
1640.04	17.2269
1640.3	17.2301
1640.57	17.2321
1640.83	15.2628
1641.09	15.2615
1641.35	17.2291
1641.61	18.2125
1641.87	19.1961
1642.13	17.2265
1642.39	18.2102
1642.65	14.2724
1642.91	15.2566
1643.17	17.2244
1643.44	17.2229
1643.7	16.2369
1643.96	14.2662
1644.22	15.2489
1644.48	16.2322
1644.74	18.2025
1645	17.2202
1645.26	17.2219
1645.52	23.1257
1645.78	18.2033
1646.04	16.2335
1646.31	18.1994
1646.57	17.2149
1646.83	18.1961
1647.09	14.2606
1647.35	14.2592
1647.61	16.2264
1647.87	17.2106
1648.13	18.1981
1648.39	18.2019
1648.65	15.2604
1648.91	17.2284
1649.17	17.2272
1649.43	15.2563
1649.69	18.2103
1649.95	16.2483
1650.21	16.2509
1650.47	17.2395
1650.74	16.2575
1651	17.2448
1651.26	16.26
1651.52	17.2454
1651.78	17.2456
1652.04	14.29
1652.3	14.2877
1652.56	18.2273
1652.82	17.2415
1653.08	19.2124
1653.34	17.243
1653.6	17.245
1653.86	18.2315
1654.12	17.2468
1654.38	18.2339
1654.64	20.2082
1654.9	17.255
1655.16	17.2605
1655.42	16.28
1655.68	16.2835
1655.94	17.2729
1656.21	14.3129
1656.47	15.3005
1656.73	12.3386
1656.99	16.2854
1657.25	17.2707
1657.51	15.296
1657.77	19.2418
1658.03	18.2529
1658.29	16.2773
1658.55	18.2476
1658.81	16.2725
1659.07	17.2562
1659.33	17.2533
1659.59	14.2937
1659.85	16.2669
1660.11	16.2693
1660.37	14.2996
1660.63	18.2478
1660.89	18.2515
1661.15	15.2944
1661.41	15.2965
1661.67	18.2506
1661.93	16.278
1662.19	17.2942
1662.45	16.3143
1662.71	21.2489
1662.97	12.354
1663.23	20.2379
1663.49	14.3014
1663.75	16.2871
1664.01	17.277
1664.27	17.2812
1664.53	16.3019
1664.79	17.2876
1665.05	14.3015
1665.31	18.2594
1665.57	20.2695
1665.83	13.3481
1666.09	18.295
1666.35	19.2181
1666.61	17.2462
1666.87	19.2491
1667.13	18.258
1667.39	16.2823
1667.65	16.2799
1667.91	15.2912
1668.17	17.2664
1668.43	17.2773
1668.69	16.2964
1668.95	15.3098
1669.21	19.2613
1669.47	15.3109
1669.72	15.3079
1669.98	16.2987
1670.24	15.3204
1670.51	16.3107
1670.76	16.309
1671.02	15.3197
1671.28	16.3074
1671.54	19.2743
1671.8	16.3101
1672.06	18.2877
1672.32	19.2759
1672.58	16.3106
1672.84	16.3112
1673.1	18.2892
1673.36	18.2907
1673.62	18.2929
1673.88	18.2957
1674.14	20.276
1674.4	14.3436
1674.66	15.3362
1674.92	14.3486
1675.18	14.3498
1675.44	13.36
1675.69	16.3287
1675.95	17.3194
1676.21	16.3306
1676.47	18.3105
1676.73	16.3305
1676.99	18.3088
1677.25	19.2966
1677.51	16.3253
1677.77	18.3003
1678.03	17.3074
1678.29	14.338
1678.55	17.3023
1678.81	17.3003
1679.07	16.3104
1679.33	17.2971
1679.59	18.2838
1679.84	17.2942
1680.1	17.2923
1680.36	15.3146
1680.62	14.3254
1680.88	19.2645
1681.14	16.3006
1681.4	16.3005
1681.66	18.2764
1681.92	16.3008
1682.18	14.3251
1682.44	18.2761
1682.7	16.3
1682.95	13.3363
1683.21	16.2998
1683.47	19.2627
1683.73	18.2733
1683.99	17.2832
1684.25	17.2819
1684.51	14.3187
1684.77	17.2807
1685.03	14.3181
1685.29	14.3181
1685.55	19.2557
1685.8	17.2814
1686.06	15.3083
1686.32	15.3111
1686.58	18.2761
1686.84	19.2639
1687.1	18.2744
1687.36	17.2846
1687.62	16.2952
1687.88	15.3061
1688.14	18.2665
1688.39	16.2889
1688.65	17.2727
1688.91	17.2698
1689.17	17.2667
1689.43	14.3037
1689.69	19.2318
1689.95	17.2608
1690.2	17.264
1690.46	16.2795
1690.72	17.2676
1690.98	17.2683
1691.24	17.2708
1691.5	13.324
1691.76	15.2977
1692.02	18.2573
1692.28	16.2806
1692.53	16.2775
1692.79	17.2599
1693.05	17.255
1693.31	17.2497
1693.57	18.2325
1693.83	17.2432
1694.09	15.2695
1694.34	17.2376
1694.6	15.268
1694.86	18.2244
1695.12	17.2402
1695.38	15.2709
1695.64	17.2427
1695.89	17.2455
1696.15	16.2612
1696.41	15.2751
1696.67	18.2295
1696.93	14.2849
1697.19	19.2056
1697.45	18.216
1697.7	17.228
1697.96	13.2879
1698.22	12.3017
1698.48	14.2682
1698.74	17.2192
1699	18.2031
1699.26	17.2202
1699.51	16.2363
1699.77	17.22
1700.03	15.2493
1700.29	16.2326
1700.55	16.2319
1700.81	16.2308
1701.06	17.2127
1701.32	13.2761
1701.58	15.2399
1701.84	16.2201
1702.1	18.1826
1702.35	17.1972
1702.61	19.1617
1702.87	18.1784
1703.13	16.212
1703.39	17.193
1703.65	18.1752
1703.9	15.2295
1704.16	15.2311
1704.42	17.1966
1704.68	16.2131
1704.94	15.2298
1705.19	17.1951
1705.45	17.1943
1705.71	15.2266
1705.97	15.2233
1706.23	17.1834
1706.48	17.1791
1706.74	15.2122
1707	17.1711
1707.26	18.1471
1707.52	15.1995
1707.77	18.1356
1708.03	17.1495
1708.29	16.1637
1708.55	17.1382
1708.81	16.1555
1709.06	15.1745
1709.32	14.1947
1709.58	19.0894
1709.84	17.1319
1710.1	17.1325
1710.35	16.1554
1710.61	16.1576
1710.87	18.1178
1711.13	15.1811
1711.39	15.1822
1711.64	18.1204
1711.9	17.1384
1712.16	17.1326
1712.42	18.1042
1712.67	18.0961
1712.93	16.134
1713.19	18.0821
1713.45	14.1681
1713.71	18.0736
1713.96	16.1177
1714.22	19.0467
1714.48	14.1622
1714.74	15.1389
1714.99	17.0969
1715.25	16.1221
1715.51	15.1445
1715.77	13.1891
1716.02	17.0942
1716.28	14.1605
1716.54	14.1562
1716.8	18.0547
1717.05	17.0712
1717.31	11.2124
1717.57	15.1064
1717.83	15.1004
1718.08	15.0959
1718.34	16.0666
1718.6	13.1441
1718.86	16.0652
1719.12	17.0384
1719.37	17.0373
1719.63	18.0133
1719.89	18.0131
1720.14	15.0902
1720.4	19.954
1720.66	18.9749
1720.92	17.0258
1721.17	16.0494
1721.43	14.1008
1721.69	15.0694
1721.95	16.0374
1722.2	17.9768
1722.46	17.0011
1722.72	18.9402
1722.98	19.9083
1723.23	14.0801
1723.49	17.9645
1723.75	16.9915
1724	17.9618
1724.26	15.046
1724.52	15.0416
1724.78	19.8855
1725.03	17.9392
1725.29	15.9938
1725.55	18.8979
1725.8	15.9893
1726.06	16.9597
1726.32	13.0817
1726.58	16.9547
1726.83	17.9176
1727.09	15.0129
1727.35	18.8912
1727.6	17.9205
1727.86	14.0428
1728.12	15.9701
1728.38	15.9464
1728.63	15.9249
1728.89	16.8855
1729.15	14.9648
1729.4	14.9722
1729.66	13.0422
1729.92	15.9318
1730.18	17.8588
1730.43	15.9318
1730.69	16.912
1730.95	14.98
1731.2	11.1143
1731.46	14.0133
1731.72	14.9787
1731.97	17.876
1732.23	16.9078
1732.49	15.939
1732.74	15.9352
1733	15.93
1733.26	15.9233
1733.51	16.8819
1733.77	17.8411
1734.03	15.9073
1734.29	15.9021
1734.54	15.8969
1734.8	13.9656
1735.06	13.9619
1735.31	17.81
1735.57	17.8076
1735.82	14.9186
1736.08	17.804
1736.34	15.8772
1736.6	12.9886
1736.85	14.9106
1737.11	15.8706
1737.37	15.8684
1737.62	15.8654
1737.88	12.978
1738.14	16.8199
1738.39	15.8553
1738.65	14.8907
1738.91	14.8861
1739.16	14.88
1739.42	14.8733
1739.67	15.8263
1739.93	15.8204
1740.19	16.7743
1740.44	13.8955
1740.7	18.6827
1740.96	17.7208
1741.21	13.8865
1741.47	17.7146
1741.73	15.7981
1741.98	15.7973
1742.24	15.7958
1742.5	14.837
1742.75	17.7078
1743.01	16.7503
1743.26	14.834
1743.52	12.917
1743.78	15.7852
1744.03	14.8262
1744.29	16.7387
1744.55	16.7387
1744.8	16.7391
1745.06	18.652
1745.32	16.7379
1745.57	15.7792
1745.83	12.9074
1746.09	16.7272
1746.34	14.811
1746.6	12.8973
1746.85	17.6684
1747.11	15.7552
1747.37	17.6605
1747.62	16.7048
1747.88	14.7955
1748.13	14.7959
1748.39	14.7966
1748.65	15.7524
1748.9	15.7545
1749.16	18.6223
1749.42	15.7606
1749.67	15.7644
1749.93	14.8125
1750.18	17.6831
1750.44	17.6841
1750.7	16.7303
1750.95	17.6863
1751.21	15.7716
1751.46	15.7667
1751.72	17.6725
1751.98	17.6687
1752.23	15.7552
1752.49	15.7516
1752.74	13.8393
1753	15.7453
1753.26	15.7426
1753.51	16.6939
1753.77	18.5976
1754.02	16.6866
1754.28	17.6376
1754.53	18.5885
1754.79	15.7269
1755.05	13.8187
1755.3	15.722
1755.56	17.6238
1755.81	17.6193
1756.07	16.6622
1756.33	16.6568
1756.58	15.7001
1756.84	16.6474
1757.09	16.6454
1757.35	14.7419
1757.6	18.5486
1757.86	14.7475
1758.12	14.7487
1758.37	14.7491
1758.63	17.604
1758.88	14.7497
1759.14	15.7019
1759.39	16.653
1759.65	15.7002
1759.91	16.6503
1760.16	14.746
1760.42	16.6466
1760.67	17.5948
1760.93	17.5914
1761.18	14.7363
1761.44	15.6853
1761.69	16.6347
1761.95	16.6351
1762.21	17.5886
1762.46	16.6394
1762.72	18.5411
1762.97	17.5899
1763.23	15.689
1763.48	13.7885
1763.74	16.6432
1763.99	15.6967
1764.25	17.6048
1764.5	14.7523
1764.76	17.6099
1765.02	15.7076
1765.27	15.7086
1765.53	17.6132
1765.78	14.757
1766.04	19.5165
1766.29	14.7551
1766.55	16.6583
1766.8	16.6578
1767.06	14.7527
1767.31	18.557
1767.57	15.7001
1767.82	14.7466
1768.08	17.6003
1768.33	17.5976
1768.59	14.7367
1768.84	16.6295
1769.1	16.6205
1769.36	16.617
1769.61	13.7691
1769.86	14.7235
1770.12	19.476
1770.38	16.6264
1770.63	16.628
1770.89	17.5843
1771.14	16.6393
1771.4	15.6895
1771.65	15.6908
1771.91	15.6939
1772.16	16.6486
1772.42	15.6995
1772.67	16.6531
1772.93	14.7516
1773.18	15.705
1773.44	15.7066
1773.69	13.8039
1773.95	14.7567
1774.2	18.5659
1774.46	15.7122
1774.71	17.618
1774.97	18.5746
1775.22	13.8187
1775.48	14.7748
1775.73	16.6831
1775.99	15.7301
1776.24	15.7292
1776.5	12.8675
1776.75	17.6303
1777.01	15.7227
1777.26	15.7197
1777.51	16.6695
1777.77	15.7141
1778.03	19.52
1778.28	18.5636
1778.53	14.7517
1778.79	15.6994
1779.04	17.6001
1779.3	14.7468
1779.55	13.799
1779.81	18.5586
1780.06	16.6565
1780.32	17.61
1780.57	17.6116
1780.83	15.7081
1781.08	18.5652
1781.34	14.7585
1781.59	18.57
1781.85	16.6684
1782.1	15.7195
1782.36	15.7219
1782.61	16.6767
1782.86	17.6318
1783.12	16.681
1783.37	16.6834
1783.63	17.6395
1783.88	16.6895
1784.14	18.6013
1784.39	14.7878
1784.65	15.743
1784.9	13.8346
1785.15	16.6959
1785.41	17.6481
1785.66	17.6468
1785.92	16.6935
1786.17	14.7873
1786.43	19.5609
1786.68	14.7935
1786.94	12.8885
1787.19	18.625
1787.44	16.7251
1787.7	15.7799
1787.95	18.6603
1788.21	15.7952
1788.46	15.7982
1788.72	16.7605
1788.97	17.7246
1789.23	17.7286
1789.48	16.7725
1789.73	16.775
1789.99	16.7768
1790.24	17.7354
1790.5	19.6521
1790.75	16.7694
1791	16.7619
1791.26	15.8025
1791.51	16.7592
1791.77	16.7597
1792.02	15.8026
1792.28	13.8884
1792.53	16.7639
1792.78	18.6814
1793.04	13.8912
1793.29	16.7665
1793.55	14.8518
1793.8	14.8527
1794.05	16.7679
1794.31	17.724
1794.56	15.8158
1794.82	15.8274
1795.07	17.7541
1795.32	17.7582
1795.58	15.8411
1795.83	16.8044
1796.09	16.8077
1796.34	15.8506
1796.6	16.8148
1796.85	16.818
1797.1	20.6654
1797.36	14.9003
1797.61	17.7863
1797.86	16.8265
1798.12	17.789
1798.37	18.7505
1798.63	15.8648
1798.88	16.8243
1799.13	15.8603
1799.39	15.8571
1799.64	17.7763
1799.9	14.8916
1800.15	16.8112
1800.4	13.9282
1800.66	17.7696
1800.91	14.8877
1801.16	12.9669
1801.42	17.7702
1801.67	15.8504
1801.93	17.7736
1802.18	18.7371
1802.43	17.7794
1802.69	18.7445
1802.94	15.8643
1803.19	13.9436
1803.45	18.7533
1803.7	18.7544
1803.95	14.9097
1804.21	14.9127
1804.46	15.8778
1804.71	14.9192
1804.97	16.8486
1805.22	17.8158
1805.48	14.93
1805.73	17.8228
1805.98	13.9715
1806.24	15.9008
1806.49	17.8296
1806.74	16.8663
1807	16.8665
1807.25	16.8666
1807.5	15.9031
1807.76	15.9035
1808.01	16.8679
1808.26	14.9407
1808.52	15.9052
1808.77	16.87
1809.02	15.9066
1809.28	15.9074
1809.53	16.8722
1809.79	17.837
1810.04	16.873
1810.29	12.0514
1810.55	14.9431
1810.8	18.7993
1811.05	17.8349
1811.3	13.9787
1811.56	16.8712
1811.81	16.8723
1812.06	14.9459
1812.32	16.877
1812.57	14.951
1812.82	15.9175
1813.08	15.9188
1813.33	12.0617
1813.58	16.8905
1813.84	16.895
1814.09	17.8662
1814.34	16.9055
1814.6	14.9764
1814.85	14.0122
1815.1	18.8455
1815.36	16.9135
1815.61	16.9145
1815.86	15.9487
1816.12	17.8837
1816.37	14.984
1816.62	17.8836
1816.88	14.9799
1817.13	17.8707
1817.38	14.0036
1817.63	12.073
1817.89	15.9397
1818.14	19.8098
1818.39	15.9455
1818.64	14.979
1818.9	15.9468
1819.15	15.9489
1819.4	17.8841
1819.66	17.8859
1819.91	15.9544
1820.16	18.8578
1820.42	15.9582
1820.67	15.96
1820.92	15.9624
1821.18	16.9326
1821.43	16.935
1821.68	16.937
1821.93	16.9386
1822.19	15.0038
1822.44	15.0047
1822.69	13.0693
1822.94	15.9729
1823.2	18.8755
1823.45	15.002
1823.7	16.938
1823.95	15.0036
1824.21	15.005
1824.46	18.879
1824.71	15.9763
1824.96	17.9148
1825.22	15.9791
1825.47	14.0424
1825.72	14.0424
1825.98	23.7276
1826.23	16.9488
1826.48	18.8864
1826.73	15.0134
1826.99	16.9524
1827.24	15.9856
1827.49	15.0182
1827.74	19.8625
1828	16.9552
1828.25	15.9844
1828.5	15.0136
1828.75	14.0439
1829.01	19.8547
1829.26	17.9169
1829.51	17.9159
1829.76	15.0086
1830.02	17.9117
1830.27	15.9736
1830.52	15.9743
1830.77	14.0399
1831.03	16.947
1831.28	20.8236
1831.53	15.9829
1831.78	16.9539
1832.04	17.9254
1832.29	16.9602
1832.54	15.993
1832.79	15.0237
1833.04	17.9323
1833.3	15.9954
1833.55	14.0571
1833.8	16.9668
1834.05	14.0533
1834.31	17.9199
1834.56	16.9433
1834.81	15.9677
1835.06	16.9312
1835.31	14.0248
1835.57	15.9602
1835.82	15.9553
1836.07	17.9825
1836.32	15.0435
1836.58	17.9326
1836.83	16.9586
1837.08	13.0715
1837.33	14.9994
1837.58	16.9159
1837.84	12.0768
1838.09	17.8738
1838.34	14.0376
1838.59	15.9811
1838.85	16.9556
1839.1	15.0194
1839.35	15.0218
1839.6	15.994
1839.85	15.9766
1840.11	14.0311
1840.36	15.9572
1840.61	17.8826
1840.86	16.908
1841.11	18.8321
1841.36	16.894
1841.62	16.8879
1841.87	15.9176
1842.12	14.9488
1842.37	17.8455
1842.62	17.8438
1842.88	15.9166
1843.13	17.8455
1843.38	15.9161
1843.63	17.8437
1843.88	13.0213
1844.14	15.9168
1844.39	14.952
1844.64	14.95
1844.89	14.9506
1845.14	17.8458
1845.39	17.8535
1845.65	14.9649
1845.9	16.9036
1846.15	14.9787
1846.4	16.8991
1846.65	17.838
1846.9	18.7755
1847.16	15.8828
1847.41	13.9593
1847.66	16.8561
1847.91	15.8971
1848.16	13.9637
1848.41	17.8121
1848.67	13.9607
1848.92	15.8829
1849.17	15.8783
1849.42	14.9114
1849.67	15.8683
1849.92	17.7855
1850.18	17.7803
1850.43	16.8151
1850.68	17.7721
1850.93	16.8085
1851.18	19.6872
1851.43	14.8841
1851.68	16.8041
1851.94	17.7643
1852.19	15.8439
1852.44	15.8438
1852.69	15.8433
1852.94	13.922
1853.19	16.8003
1853.44	19.6761
1853.69	16.7919
1853.95	16.7863
1854.2	15.823
1854.45	15.8209
1854.7	16.7768
1854.95	14.8547
1855.2	16.7663
1855.45	13.8899
1855.71	19.6358
1855.96	16.7617
1856.21	14.8462
1856.46	16.7616
1856.71	16.7608
1856.96	17.7168
1857.21	16.7572
1857.46	16.7552
1857.72	16.7524
1857.97	15.7918
1858.22	17.7019
1858.47	16.7412
1858.72	16.7371
1858.97	17.6889
1859.22	18.6424
1859.47	18.6425
1859.72	16.7304
1859.98	17.6881
1860.23	16.7355
1860.48	15.7817
1860.73	16.7408
1860.98	15.7874
1861.23	14.8327
1861.48	15.7902
1861.73	14.8322
1861.98	16.7433
1862.24	17.6961
1862.49	17.6919
1862.74	15.7756
1862.99	12.9043
1863.24	19.5913
1863.49	13.8547
1863.74	16.7181
1863.99	15.7601
1864.24	13.8473
1864.49	17.6635
1864.74	16.7042
1864.99	16.6992
1865.25	16.6934
1865.5	15.7334
1865.75	17.633
1866	13.8145
1866.25	14.7611
1866.5	16.6587
1866.75	17.6036
1867	13.7922
1867.25	15.6903
1867.5	17.5895
1867.75	14.7356
1868	14.7348
1868.25	14.7353
1868.51	16.6376
1868.76	17.5879
1869.01	13.7844
1869.26	15.6847
1869.51	17.5849
1869.76	16.6336
1870.01	13.7815
1870.26	15.6818
1870.51	16.6319
1870.76	18.5325
1871.01	16.6303
1871.26	16.6284
1871.51	16.6253
1871.76	16.6236
1872.01	16.622
1872.26	15.669
1872.52	17.5647
1872.77	14.7146
1873.02	17.5622
1873.27	15.6621
1873.52	13.7616
1873.77	13.7589
1874.02	16.6018
1874.27	14.7008
1874.52	16.5934
1874.77	18.4846
1875.02	13.7411
1875.27	16.5779
1875.52	13.7278
1875.77	15.6163
1876.02	17.504
1876.27	14.6621
1876.52	14.6602
1876.77	17.4876
1877.02	18.4212
1877.27	16.5128
1877.52	16.5338
1877.77	14.6998
1878.02	12.7755
1878.27	15.6118
1878.52	14.6649
1878.78	16.5748
1879.02	16.5803
1879.27	15.6268
1879.52	15.6226
1879.78	14.6754
1880.03	16.5683
1880.28	18.4658
1880.53	17.5144
1880.78	15.6199
1881.03	17.5053
1881.28	15.605
1881.53	16.5424
1881.78	16.5334
1882.03	15.5794
1882.28	17.4563
1882.53	16.5074
1882.78	15.5676
1883.03	16.6014
1883.28	18.4148
1883.53	14.6059
1883.78	15.552
1884.03	15.5588
1884.28	14.6097
1884.53	15.5589
1884.78	18.3963
1885.03	12.7376
1885.28	14.6275
1885.53	16.5225
1885.78	14.6375
1886.03	18.417
1886.28	16.5255
1886.53	15.5752
1886.78	17.4592
1887.03	15.5681
1887.28	15.5642
1887.52	14.6172
1887.78	13.67
1888.03	18.3766
1888.27	16.4863
1888.52	16.481
1888.77	17.4177
1889.02	17.4154
1889.27	17.4146
1889.52	16.4729
1889.77	15.5336
1890.02	18.3623
1890.27	13.6568
1890.52	13.6576
1890.77	15.5405
1891.02	13.6559
1891.27	13.6555
1891.52	14.5963
1891.77	16.4791
1892.02	16.4782
1892.27	15.5342
1892.52	15.5308
1892.77	12.7018
1893.02	14.5755
1893.27	15.5087
1893.52	16.4489
1893.77	17.3891
1894.02	15.5042
1894.27	16.4412
1894.52	16.4403
1894.76	14.562
1895.02	17.382
1895.26	14.5649
1895.51	18.3258
1895.76	15.5086
1896.01	17.3915
1896.26	15.5144
1896.51	16.4574
1896.76	13.6379
1897.01	18.3423
1897.26	12.699
1897.51	16.4615
1897.76	19.2822
1898.01	16.4584
1898.26	15.5151
1898.51	16.4515
1898.75	15.5075
1899.01	17.3843
1899.25	16.443
1899.5	19.2591
1899.75	13.6209
1900	16.4386
1900.25	15.5
1900.5	16.4413
1900.75	14.565
1901	18.3275
1901.25	15.511
1901.5	13.6337
1901.75	20.2208
1902	15.5211
1902.25	15.5209
1902.49	14.5791
1902.74	16.4584
1902.99	17.397
1903.24	15.515
1903.49	16.4543
1903.74	15.5134
1903.99	19.2737
1904.24	15.5124
1904.49	15.5116
1904.74	15.5112
1904.98	17.3911
1905.23	14.5699
1905.48	15.5046
1905.73	17.3789
1905.98	17.3767
1906.23	16.4355
1906.48	14.5558
1906.73	11.7378
1906.98	16.4335
1907.23	18.3126
1907.47	15.498
1907.72	17.3795
1907.97	17.3808
1908.22	16.4423
1908.47	18.3237
1908.72	13.6276
1908.97	16.4506
1909.22	14.5745
1909.47	14.579
1909.71	13.643
1909.96	15.5304
1910.21	15.5351
1910.46	18.3636
1910.71	15.5408
1910.96	16.4843
1911.21	16.4848
1911.46	14.6007
1911.7	15.5415
1911.95	14.5988
1912.2	15.5404
1912.45	17.4242
1912.7	15.5406
1912.95	17.4251
1913.2	14.6021
1913.45	15.549
1913.69	16.4966
1913.94	14.6145
1914.19	17.4469
1914.44	15.5642
1914.69	13.6803
1914.94	15.5694
1915.18	15.5701
1915.43	17.4569
1915.68	13.6812
1915.93	19.3417
1916.18	16.5084
1916.43	14.6187
1916.68	18.3882
1916.92	15.5571
1917.17	17.4412
1917.42	16.4975
1917.67	16.4984
1917.92	15.5581
1918.17	13.6755
1918.42	14.6228
1918.66	15.571
1918.91	15.5761
1919.16	15.583
1919.41	17.4777
1919.66	11.8113
1919.91	16.5362
1920.15	16.5339
1920.4	16.5361
1920.65	17.4858
1920.9	15.5996
1921.15	17.4928
1921.39	14.6584
1921.64	15.6053
1921.89	16.551
1922.14	15.6038
1922.39	15.6013
1922.64	19.3809
1922.89	18.4339
1923.13	15.5967
1923.38	14.6501
1923.63	18.428
1923.88	18.4247
1924.13	19.3675
1924.37	16.5328
1924.62	16.5338
1924.87	16.5363
1925.12	15.5949
1925.37	16.5454
1925.61	17.4956
1925.86	16.5543
1926.11	13.7203
1926.36	15.6179
1926.61	16.5676
1926.86	17.5169
1927.1	14.6784
1927.35	16.5746
1927.6	11.8404
1927.85	16.5784
1928.1	14.6847
1928.34	15.6345
1928.59	15.6365
1928.84	17.5348
1929.09	15.6429
1929.33	14.6997
1929.58	17.5492
1929.83	14.7081
1930.08	17.5589
1930.33	14.7156
1930.57	18.5141
1930.82	15.6662
1931.07	15.6648
1931.32	16.612
1931.57	16.6098
1931.81	17.5565
1932.06	15.6564
1932.31	14.7052
1932.56	17.5511
1932.8	15.6513
1933.05	16.6016
1933.3	16.607
1933.55	16.6157
1933.79	13.7767
1934.04	14.7405
1934.29	15.7048
1934.54	13.8113
1934.79	13.8196
1935.03	17.6403
1935.28	18.5996
1935.53	13.8193
1935.78	18.5849
1936.02	15.7245
1936.27	15.7224
1936.52	18.5771
1936.77	18.5725
1937.01	13.8076
1937.26	16.6609
1937.51	13.8023
1937.76	17.6063
1938	13.8
1938.25	14.7575
1938.5	18.5675
1938.75	14.7612
1938.99	16.6688
1939.24	15.7184
1939.49	15.721
1939.74	16.6744
1939.98	16.679
1940.23	15.7301
1940.48	16.6952
1940.73	14.7921
1940.97	18.6086
1941.22	14.7893
1941.47	14.7836
1941.72	16.6817
1941.96	17.6438
1942.21	15.7527
1942.46	15.755
1942.71	15.7552
1942.95	15.7481
1943.2	15.7412
1943.45	17.6445
1943.7	15.748
1943.94	17.6599
1944.19	14.7994
1944.44	18.623
1944.68	15.7619
1944.93	17.6769
1945.18	16.7255
1945.42	16.7293
1945.67	15.7763
1945.92	17.6912
1946.17	17.6931
1946.41	16.7377
1946.66	15.7808
1946.91	17.6921
1947.16	14.8217
1947.4	15.7777
1947.65	15.7777
1947.9	16.7337
1948.14	14.8203
1948.39	16.7338
1948.64	20.5626
1948.89	13.8707
1949.13	14.8306
1949.38	16.7486
1949.62	15.796
1949.87	12.9297
1950.12	13.8937
1950.37	14.8572
1950.61	17.7399
1950.86	12.9507
1951.11	17.754
1951.35	15.8393
1951.6	14.8822
1951.85	13.9243
1952.1	13.9263
1952.34	13.9261
1952.59	18.732
1952.83	16.8141
1953.08	17.7696
1953.33	14.8819
1953.58	18.7106
1953.82	14.8643
1954.07	16.7736
1954.32	15.8085
1954.56	14.8486
1954.81	15.8064
1955.06	15.8087
1955.3	15.8134
1955.55	11.0267
1955.8	15.8314
1956.04	15.836
1956.29	17.761
1956.54	17.7643
1956.78	19.6894
1957.03	17.7723
1957.28	15.854
1957.52	15.8562
1957.77	13.9357
1958.02	15.859
1958.26	16.8209
1958.51	16.8193
1958.76	15.8554
1959	17.7757
1959.25	15.8532
1959.5	17.7721
1959.74	17.7694
1959.99	15.846
1960.23	15.8433
1960.48	16.8004
1960.73	15.8377
1960.98	17.7549
1961.22	16.7938
1961.47	14.8751
1961.71	19.6747
1961.96	15.8365
1962.21	16.7971
1962.45	18.7176
1962.7	14.8787
1962.95	16.7992
1963.19	15.8399
1963.44	19.6812
1963.69	15.843
1963.93	16.8048
1964.18	17.7647
1964.42	17.7636
1964.67	16.8037
1964.92	15.843
1965.16	13.9232
1965.41	11.0438
1965.66	15.8487
1965.9	17.7738
1966.15	16.8167
1966.39	14.8972
1966.64	13.9376
1966.89	17.7821
1967.13	14.8989
1967.38	18.7455
1967.63	14.9008
1967.87	14.9016
1968.12	16.8238
1968.36	17.7835
1968.61	18.7413
1968.86	14.8932
1969.1	17.77
1969.35	18.7247
1969.59	17.7601
1969.84	11.0379
1970.09	16.7946
1970.33	18.7106
1970.58	16.7892
1970.82	13.9095
1971.07	15.8266
1971.32	15.8255
1971.56	16.7863
1971.81	17.7473
1972.05	11.992
1972.3	18.7072
1972.55	15.8277
1972.79	17.7431
1973.04	17.7392
1973.28	19.6535
1973.53	14.8581
1973.78	16.774
1974.02	15.8151
1974.27	16.7738
1974.51	15.816
1974.76	13.9002
1975.01	14.8609
1975.25	16.7811
1975.5	15.8243
1975.74	15.826
1975.99	16.7862
1976.23	16.7868
1976.48	16.7869
1976.73	15.8272
1976.97	14.8669
1977.22	14.8652
1977.46	16.7807
1977.71	16.778
1977.95	19.6517
1978.2	17.7326
1978.45	15.8148
1978.69	14.8564
1978.94	14.857
1979.18	15.8156
1979.43	14.8578
1979.67	16.7752
1979.92	17.7318
1980.17	15.812
1980.41	16.7676
1980.66	16.7664
1980.9	15.8059
1981.15	15.8044
1981.39	14.8456
1981.64	16.7607
1981.88	12.9292
1982.13	14.8421
1982.37	15.7971
1982.62	14.8361
1982.87	16.7455
1983.11	16.7421
1983.36	12.9143
1983.6	16.7396
1983.85	15.7815
1984.09	14.8235
1984.34	18.6475
1984.58	17.688
1984.83	17.6833
1985.08	17.6816
1985.32	15.7704
1985.56	17.6636
1985.81	13.8694
1986.06	15.7241
1986.3	15.8059
1986.55	17.6057
1986.79	16.71
1987.04	15.7069
1987.28	18.2789
1987.53	15.4548
1987.77	13.9329
1988.02	18.1137
1988.26	17.528
1988.51	15.8283
1988.75	14.0038
1989	16.7868
1989.24	17.2599
1989.49	16.1909
1989.73	17.5728
1989.98	16.2795
1990.22	15.7052
1990.47	14.77
1990.72	14.9899
1990.96	14.7731
1991.2	15.4842
1991.45	15.7277
1991.7	16.4221
1991.94	16.825
1992.19	15.8436
1992.43	16.0628
1992.68	16.3458
1992.92	15.0296
1993.17	14.9247
1993.41	15.8732
1993.66	15.7554
1993.9	15.3751
1994.15	15.5081
1994.39	14.8041
1994.63	15.9193
1994.88	15.9818
1995.13	16.7648
1995.37	17.1133
1995.61	16.0745
1995.86	16.4989
1996.11	15.9458
1996.35	16.8431
1996.59	17.0929
1996.84	16.2836
1997.08	16.5799
1997.33	14.4471
1997.57	15.2472
1997.82	15.8026
1998.06	15.0591
1998.31	16.1327
1998.55	15.4431
1998.8	16.7547
1999.04	16.2572
1999.29	16.3232
1999.53	15.8693
1999.78	15.5597
2000.02	15.295
2000.27	15.9372
2000.51	15.3168
2000.76	15.9467
2001	16.5449
2001.24	16.3688
2001.49	16.0691
2001.73	14.6284
2001.98	14.7711
2002.22	15.2071
2002.47	15.2464
2002.71	15.9453
2002.96	16.3656
2003.2	14.3767
2003.45	15.5627
2003.69	16.5464
2003.93	15.7761
2004.18	14.3542
2004.42	15.6372
2004.67	15.2786
2004.91	15.492
2005.16	14.258
2005.4	14.9448
2005.65	14.8248
2005.89	15.0026
2006.13	16.5522
2006.38	18.3107
2006.62	14.7908
2006.87	14.6006
2007.11	14.3674
2007.36	17.149
2007.6	15.7018
2007.81	16.5247
2008.06	15.5749
2008.31	16.5146
2008.56	15.5672
2008.8	15.5623
2009.05	11.7858
2009.3	15.5534
2009.55	15.5495
2009.79	15.5458
2010.04	16.4835
2010.29	16.4828
2010.53	16.4823
2010.78	15.54
2011.03	15.5397
2011.28	13.6557
2011.52	16.4801
2011.77	17.4211
2012.02	17.4199
2012.27	16.4765
2012.51	13.649
2012.76	12.7023
2013.01	13.6373
2013.26	14.5733
2013.5	16.4474
2013.75	16.4399
2014	12.6752
2014.24	15.4857
2014.49	14.5459
2014.74	15.4854
2014.99	13.6105
2015.23	11.7352
2015.48	16.4311
2015.73	18.3053
2015.97	14.5584
2016.22	12.6874
2016.47	17.388
2016.71	14.5672
2016.96	16.4441
2017.21	14.5611
2017.46	15.4955
2017.7	16.4279
2017.95	15.4829
2018.2	16.4154
2018.44	15.4715
2018.69	15.4651
2018.94	14.5228
2019.18	14.5206
2019.43	15.455
2019.68	16.391
2019.93	15.454
2020.17	14.5166
2020.42	13.5796
2020.67	15.454
2020.91	17.3281
2021.16	17.3281
2021.41	14.5173
2021.65	15.4524
2021.9	14.5137
2022.15	13.5746
2022.4	16.3789
2022.64	14.5029
2022.89	17.3065
2023.14	17.3025
2023.38	14.4935
2023.63	12.6206
2023.88	16.357
2024.12	13.548
2024.37	16.3454
2024.62	13.5388
2024.86	15.4014
2025.11	13.5306
2025.36	13.5268
2025.6	16.3201
2025.85	15.3904
2026.1	15.397
2026.34	17.2751
2026.59	15.4198
2026.84	17.3033
2027.08	15.4392
2027.33	13.5645
2027.57	13.555
2027.82	15.4052
2028.07	15.3781
2028.32	15.4231
2028.56	16.4002
2028.81	19.1843
2029.06	16.3834
2029.3	14.4874
2029.55	13.5373
2029.79	16.3233
2030.04	18.1842
2030.29	14.4469
2030.53	14.4576
2030.78	15.397
2031.03	13.5292
2031.27	12.5962
2031.52	15.3967
2031.77	17.2682
2032.01	12.6055
2032.26	15.4125
2032.5	15.4175
2032.75	15.4213
2033	14.49
2033.24	14.4946
2033.49	18.2347
2033.74	15.4215
2033.98	16.3428
2034.23	14.4617
2034.48	14.4609
2034.72	15.3999
2034.97	17.2731
2035.21	14.4814
2035.46	14.4916
2035.71	15.4339
2035.95	16.3653
2036.2	15.4235
2036.45	17.2956
2036.69	15.4285
2036.94	14.4932
2037.18	15.4274
2037.43	14.4909
2037.68	13.5543
2037.92	15.4216
2038.17	14.4846
2038.41	14.4823
2038.66	18.2168
2038.91	13.5434
2039.15	19.1444
2039.4	18.206
2039.64	18.2008
2039.89	13.5303
2040.14	14.4596
2040.38	14.4562
2040.63	14.4533
2040.87	14.4508
2041.12	15.3823
2041.37	13.5168
2041.61	17.243
2041.86	16.3092
2042.1	16.3052
2042.35	15.3731
2042.6	14.4413
2042.84	16.3066
2043.09	15.3796
2043.33	13.5212
2043.58	14.4598
2043.83	14.4612
2044.07	16.3259
2044.32	17.254
2044.56	14.4489
2044.81	15.3658
2045.05	17.2588
2045.3	12.5939
2045.55	14.4854
2045.79	14.5081
2046.04	18.228
2046.28	15.4097
2046.53	13.5328
2046.78	15.4013
2047.02	15.3952
2047.27	17.2474
2047.51	15.3809
2047.76	13.5174
2048	14.4504
2048.25	14.4515
2048.5	16.3197
2048.74	16.3226
2048.99	15.3934
2049.23	20.0643
2049.48	16.3376
2049.72	16.342
2049.97	17.2807
2050.22	16.3489
2050.46	16.3494
2050.71	13.5455
2050.95	13.5425
2051.2	12.6052
2051.44	16.3403
2051.69	16.3411
2051.93	16.3434
2052.18	16.3444
2052.42	12.6102
2052.67	15.4151
2052.91	15.4184
2053.16	16.358
2053.41	13.5596
2053.65	12.6268
2053.9	17.3055
2054.14	14.4996
2054.39	16.3701
2054.63	14.4985
2054.88	14.497
2055.12	15.4289
2055.37	15.4274
2055.62	15.4266
2055.86	18.2296
2056.11	13.554
2056.35	14.488
2056.6	16.3575
2056.84	14.4889
2057.09	14.4903
2057.33	15.4272
2057.58	13.5593
2057.82	16.3677
2058.07	13.5652
2058.31	20.1186
2058.56	12.6353
2058.8	15.4453
2059.05	15.4462
2059.29	17.3197
2059.54	14.5109
2059.78	14.5091
2060.03	18.2504
2060.27	13.5701
2060.52	14.5079
2060.76	16.3823
2061.01	14.5114
2061.25	14.5121
2061.5	16.385
2061.74	13.5768
2061.99	16.3871
2062.24	17.3256
2062.48	15.455
2062.73	14.5211
2062.97	17.3345
2063.22	15.4626
2063.46	19.2132
2063.7	15.4657
2063.95	12.6548
2064.19	15.4691
2064.44	18.2845
2064.68	10.7861
2064.93	14.5422
2065.18	16.4233
2065.42	13.6112
2065.66	13.6139
2065.91	15.4937
2066.15	15.4941
2066.4	16.4356
2066.64	17.3765
2066.89	13.6208
2067.13	16.4413
2067.38	14.5648
2067.62	16.4464
2067.87	14.5684
2068.11	20.2089
2068.36	16.4522
2068.6	13.6313
2068.85	18.3289
2069.09	14.5645
2069.34	15.497
2069.58	16.4347
2069.83	16.4368
2070.07	16.445
2070.31	11.7524
2070.56	16.4623
2070.8	17.3993
2071.05	16.4538
2071.29	15.5367
2071.54	14.5976
2071.78	15.5376
2072.03	18.3615
2072.27	15.5363
2072.52	17.4179
2072.76	15.5351
2073.01	14.5928
2073.25	14.5937
2073.5	16.4774
2073.74	16.4785
2073.98	15.5389
2074.23	15.5422
2074.47	15.5467
2074.72	15.5524
2074.96	14.6168
2075.21	15.5679
2075.45	15.5732
2075.69	15.5757
2075.94	14.6322
2076.18	15.5765
2076.43	17.4625
2076.67	15.5714
2076.92	16.5106
2077.16	13.6747
2077.41	15.5597
2077.65	16.5052
2077.9	14.6218
2078.14	17.4534
2078.38	16.5117
2078.63	16.5144
2078.87	15.5753
2079.12	11.8046
2079.36	17.4744
2079.61	13.6985
2079.85	13.7008
2080.09	17.4824
2080.34	16.5373
2080.58	17.4806
2080.83	16.5347
2081.07	13.6999
2081.32	16.534
2081.56	16.5339
2081.8	14.6455
2082.05	17.4815
2082.29	15.5925
2082.54	14.6478
2082.78	14.6475
2083.02	17.4818
2083.27	15.5914
2083.51	13.7017
2083.76	14.6468
2084	13.7018
2084.24	13.7021
2084.49	17.4826
2084.73	14.6477
2084.98	16.5378
2085.22	12.7577
2085.47	14.6495
2085.71	15.599
2085.95	13.7128
2086.2	16.5532
2086.44	15.6089
2086.69	15.6111
2086.93	17.5065
2087.17	16.5613
2087.42	14.6688
2087.66	13.7227
2087.9	16.5625
2088.15	14.6704
2088.39	13.7247
2088.64	11.8323
2088.88	15.6215
2089.12	15.6242
2089.37	16.5761
2089.61	15.6297
2089.85	16.578
2090.1	12.7897
2090.34	15.6335
2090.59	14.6878
2090.83	14.6895
2091.07	17.5346
2091.32	11.8512
2091.56	14.6999
2091.8	14.7048
2092.05	16.6077
2092.29	17.563
2092.54	13.7693
2092.78	16.6224
2093.02	13.7765
2093.27	14.7302
2093.51	13.7828
2093.75	12.8345
2094	13.7859
2094.24	14.7366
2094.49	15.6865
2094.73	15.6852
2094.97	17.5834
2095.22	17.5803
2095.46	14.7275
2095.7	14.7259
2095.95	14.7249
2096.19	11.8745
2096.43	16.6235
2096.68	17.5708
2096.92	16.6177
2097.16	15.6653
2097.41	14.7148
2097.65	14.7141
2097.89	14.7131
2098.14	18.5079
2098.38	17.5588
2098.62	15.6601
2098.87	15.6592
2099.11	13.7606
2099.36	12.8115
2099.6	16.6077
2099.84	15.6594
2100.08	14.7112
2100.33	17.5609
2100.57	17.5652
2100.81	12.8203
2101.06	17.5707
2101.3	15.6721
2101.54	14.7222
2101.79	15.6718
2102.03	12.8224
2102.28	14.7209
2102.52	11.8696
2102.76	16.6143
2103	17.5621
2103.25	14.7137
2103.49	15.6623
2103.73	15.6628
2103.98	14.7151
2104.22	15.667
2104.46	16.619
2104.71	16.6215
2104.95	17.5747
2105.19	16.6286
2105.44	15.6812
2105.68	12.8316
2105.92	12.8328
2106.17	14.7347
2106.41	14.7355
2106.65	15.6878
2106.89	14.7372
2107.14	18.538
2107.38	14.7324
2107.62	14.7284
2107.87	16.6243
2108.11	11.8713
2108.35	16.6167
2108.59	15.6661
2108.84	13.7682
2109.08	14.7223
2109.32	19.4743
2109.57	13.7746
2109.81	14.7247
2110.05	11.8748
2110.3	16.6247
2110.54	16.6248
2110.78	16.6246
2111.02	15.6734
2111.27	12.8218
2111.51	17.5692
2111.75	16.6185
2112	13.7698
2112.24	15.671
2112.48	13.7728
2112.72	14.7247
2112.97	15.679
2113.21	14.7315
2113.45	14.7328
2113.7	13.7811
2113.94	17.5814
2114.18	14.7303
2114.42	19.4831
2114.67	18.5331
2114.91	17.5815
2115.15	15.6795
2115.39	16.6285
2115.64	16.6271
2115.88	17.5733
2116.12	15.6706
2116.36	15.6694
2116.61	14.7191
2116.85	15.6681
2117.09	11.8705
2117.34	14.7175
2117.58	13.7658
2117.82	16.6111
2118.06	13.7596
2118.3	14.7042
2118.55	15.6494
2118.79	16.5944
2119.03	17.5389
2119.28	14.6918
2119.52	14.6892
2119.76	16.5823
2120	15.6342
2120.24	13.7398
2120.49	13.7422
2120.73	15.6394
2120.97	15.6431
2121.22	15.647
2121.46	14.702
2121.7	16.6026
2121.94	17.5546
2122.18	14.7102
2122.43	14.7122
2122.67	15.6631
2122.91	16.6138
2123.15	16.6142
2123.4	16.6128
2123.64	16.6108
2123.88	17.5568
2124.12	16.6031
2124.36	17.5446
2124.61	15.6404
2124.85	15.6337
2125.09	16.5756
2125.33	16.5705
2125.58	17.5124
2125.82	19.4007
2126.06	14.6657
2126.3	14.6626
2126.55	14.6594
2126.79	16.5478
2127.03	16.5464
2127.27	16.5457
2127.51	14.6537
2127.76	15.5975
2128	15.5968
2128.24	13.7064
2128.48	20.3233
2128.72	15.5962
2128.97	16.5401
2129.21	16.5391
2129.45	16.5384
2129.69	16.5376
2129.93	12.7568
2130.18	17.4802
2130.42	17.4784
2130.66	15.5869
2130.9	13.6956
2131.14	14.6378
2131.39	15.58
2131.63	18.4111
2131.87	16.5207
2132.11	16.5173
2132.35	16.5145
2132.6	15.5695
2132.84	16.5131
2133.08	18.4012
2133.32	15.5709
2133.56	15.571
2133.81	17.4595
2134.05	14.6284
2134.29	14.6281
2134.53	15.5714
2134.77	16.5147
2135.01	15.5701
2135.26	18.3991
2135.5	14.6222
2135.74	18.3895
2135.98	15.556
2136.22	16.4968
2136.47	14.6126
2136.71	15.5557
2136.95	14.6134
2137.19	15.5582
2137.43	16.505
2137.67	15.5595
2137.91	16.4977
2138.16	13.6669
2138.4	14.6133
2138.64	18.3904
2138.88	14.6213
2139.12	15.5544
2139.37	14.6075
2139.61	14.605
2139.85	14.6028
2140.09	15.543
2140.33	15.5414
2140.57	14.5984
2140.81	15.539
2141.06	15.5396
2141.3	17.4188
2141.54	14.591
2141.78	14.5901
2142.02	12.7076
2142.26	13.6521
2142.51	14.5958
2142.75	19.3226
2142.99	16.4841
2143.23	14.5585
2143.47	18.325
2143.71	15.5076
2143.95	16.4541
2144.19	14.5785
2144.44	13.6403
2144.68	16.4513
2144.92	16.4545
2145.16	14.5744
2145.4	15.5136
2145.64	16.4525
2145.88	16.4511
2146.13	19.2697
2146.37	15.5085
2146.61	16.4467
2146.85	19.2634
2147.09	16.4422
2147.33	16.4402
2147.57	17.3778
2147.81	13.6189
2148.06	17.3737
2148.3	18.3104
2148.54	14.5521
2148.78	14.549
2149.02	14.5452
2149.26	13.6014
2149.5	15.4738
2149.74	14.5321
2149.98	17.3415
2150.22	14.5281
2150.47	14.528
2150.71	15.4669
2150.95	16.4069
2151.19	15.4712
2151.43	14.5356
2151.67	15.4748
2151.91	15.4763
2152.15	14.5362
2152.4	16.4094
2152.64	16.4064
2152.88	12.6545
2153.12	18.2771
2153.36	16.4009
2153.6	17.3349
2153.84	15.4569
2154.08	13.5784
2154.32	14.5088
2154.56	19.181
2154.8	14.4965
2155.05	15.4268
2155.29	15.4222
2155.53	13.5495
2155.77	17.2842
2156.01	11.6774
2156.25	15.4136
2156.49	15.4133
2156.73	13.5452
2156.97	14.4806
2157.21	12.614
2157.45	16.3547
2157.69	12.6183
2157.94	15.4229
2158.18	15.4228
2158.42	13.5527
2158.66	16.3552
2158.9	16.353
2159.14	15.416
2159.38	17.281
2159.62	16.3428
2159.86	14.4714
2160.1	14.4682
2160.34	16.332
2160.58	16.3305
2160.82	14.4633
2161.06	16.3279
2161.3	16.3265
2161.54	12.5944
2161.79	11.6615
2162.03	16.3262
2162.27	16.3258
2162.51	15.3914
2162.75	16.3221
2162.99	19.1181
2163.23	18.1836
2163.47	14.452
2163.71	18.1794
2163.95	13.5148
2164.19	13.5114
2164.43	16.3044
2164.67	17.2375
2164.91	15.3752
2165.15	14.4436
2165.39	17.2395
2165.63	15.3759
2165.87	15.3738
2166.12	14.4406
2166.35	13.5068
2166.6	14.4353
2166.84	17.2268
2167.08	17.2226
2167.32	15.3559
2167.56	17.2083
2167.8	14.4115
2168.04	14.4098
2168.28	16.2691
2168.52	14.4107
2168.76	14.4129
2169	14.4161
2169.24	16.281
2169.48	17.2176
2169.72	15.3621
2169.96	15.3654
2170.2	14.4351
2170.44	15.3651
2170.68	14.4311
2170.92	17.2222
2171.16	15.3534
2171.4	16.2728
2171.64	12.549
2171.88	14.4055
2172.12	15.3323
2172.36	13.4722
2172.6	13.4719
2172.84	14.4008
2173.08	16.2589
2173.32	15.3311
2173.56	16.2623
2173.8	14.4051
2174.04	14.4057
2174.28	16.2647
2174.52	16.2646
2174.76	15.3348
2175	16.2632
2175.24	11.6159
2175.48	16.2617
2175.72	17.19
2175.96	16.2592
2176.2	16.2569
2176.44	13.4693
2176.68	15.3272
2176.92	15.3277
2177.16	18.1148
2177.4	15.3278
2177.64	15.3281
2177.88	14.3974
2178.12	16.2508
2178.36	19.0333
2178.6	15.3193
2178.84	17.1769
2179.08	17.1772
2179.32	16.2489
2179.56	15.3204
2179.8	17.1773
2180.04	16.2482
2180.28	17.1756
2180.52	14.3896
2180.76	17.1741
2181	16.2447
2181.24	16.2427
2181.48	16.2411
2181.72	16.24
2181.96	13.4543
2182.2	17.1644
2182.44	14.3794
2182.68	12.5215
2182.92	16.2277
2183.16	15.296
2183.4	15.293
2183.63	15.2905
2183.87	12.5088
2184.11	15.288
2184.35	16.2153
2184.59	15.2902
2184.83	16.2182
2185.07	13.4391
2185.31	15.2948
2185.55	14.3704
2185.79	16.2275
2186.03	16.2308
2186.27	18.091
2186.51	16.2405
2186.75	17.1738
2186.99	17.1787
2187.23	11.6096
2187.47	12.5388
2187.71	17.1808
2187.95	15.3207
2188.18	15.3177
2188.43	12.5299
2188.66	15.3106
2188.9	15.3064
2189.14	14.3738
2189.38	17.1516
2189.62	12.5144
2189.86	12.5142
2190.1	16.2224
2190.34	16.2243
2190.58	15.2981
2190.82	16.2254
2191.06	17.1537
2191.3	16.228
2191.54	15.3021
2191.78	12.5211
2192.01	18.0875
2192.25	15.3063
2192.49	15.3092
2192.73	13.4558
2192.97	13.4582
2193.21	17.1749
2193.45	15.3254
2193.69	16.2619
2193.93	17.1965
2194.17	16.2697
2194.41	14.409
2194.64	16.2666
2194.88	17.1943
2195.12	14.4037
2195.36	17.1876
2195.6	15.325
2195.84	16.248
2196.08	13.4585
2196.32	17.1671
2196.56	14.3806
2196.8	13.4506
2197.04	19.0136
2197.27	17.1593
2197.51	17.1596
2197.75	15.3066
2197.99	17.1664
2198.23	16.2426
2198.47	14.3909
2198.71	16.2535
2198.95	16.2582
2199.19	13.4758
2199.42	16.2693
2199.66	15.3476
2199.9	17.2173
2200.14	17.2253
2200.38	17.2323
2200.62	15.3738
2200.86	14.4456
2201.1	16.3011
2201.34	15.3527
2201.58	17.1741
2201.81	15.2978
2202.05	18.0962
2202.29	16.2685
2202.53	15.3485
2202.77	16.2743
2203.01	13.4816
2203.25	17.226
2203.49	14.4686
2203.72	16.318
2203.96	16.3181
2204.2	15.3864
2204.44	15.3753
2204.68	15.3617
2204.92	13.4891
2205.16	16.2719
2205.39	16.2697
2205.63	15.3409
2205.87	16.2746
2206.11	15.3437
2206.35	16.2687
2206.59	15.3403
2206.83	16.2726
2207.06	15.3457
2207.3	14.4188
2207.54	11.6306
2207.78	16.2865
2208.02	14.4282
2208.26	13.4998
2208.49	11.6394
2208.73	13.5032
2208.97	16.2979
2209.21	15.3667
2209.45	14.435
2209.69	16.2986
2209.93	16.3008
2210.17	15.3717
2210.4	16.306
2210.64	19.1045
2210.88	10.7189
2211.12	14.4497
2211.36	15.3856
2211.6	15.3887
2211.83	13.5256
2212.07	15.392
2212.31	15.391
2212.55	15.3894
2212.79	15.3881
2213.02	17.2502
2213.26	19.1124
2213.5	15.3844
2213.74	14.4551
2213.98	19.127
2214.22	14.4667
2214.45	15.4018
2214.69	13.5361
2214.93	13.537
2215.17	15.405
2215.41	17.2727
2215.65	15.4055
2215.88	15.4053
2216.12	17.2722
2216.36	15.4043
2216.6	14.4703
2216.84	17.2711
2217.07	16.3383
2217.31	12.6045
2217.55	12.6044
2217.79	16.339
2218.03	17.2736
2218.26	16.3417
2218.5	15.4102
2218.74	14.479
2218.98	14.4818
2219.22	14.4833
2219.45	12.6163
2219.69	17.2906
2219.93	11.6824
2220.17	14.4857
2220.41	14.4853
2220.64	13.5493
2220.88	15.4142
2221.12	15.4102
2221.36	15.4069
2221.6	18.2048
2221.83	16.3358
2222.07	17.2691
2222.31	18.2042
2222.55	14.4723
2222.78	15.4083
2223.02	16.3452
2223.26	18.2178
2223.5	14.4853
2223.74	15.4247
2223.97	18.2345
2224.21	15.4331
2224.45	14.501
2224.69	15.44
2224.93	15.444
2225.16	15.4486
2225.4	16.3885
2225.64	15.4554
2225.88	13.5851
2226.11	19.2094
2226.35	16.4021
2226.59	15.4679
2226.83	17.3456
2227.07	13.5969
2227.3	16.4111
2227.54	15.4729
2227.78	15.4717
2228.02	15.4707
2228.25	17.3448
2228.49	13.594
2228.73	14.5308
2228.96	16.4059
2229.2	15.4715
2229.44	15.4758
2229.68	16.4177
2229.92	16.4207
2230.15	16.424
2230.39	15.4888
2230.63	14.5533
2230.87	18.3135
2231.1	16.4393
2231.34	15.5029
2231.58	16.446
2231.82	16.4493
2232.05	14.5724
2232.29	13.6348
2232.53	16.4591
2232.77	14.5808
2233	14.5836
2233.24	15.5275
2233.48	12.7061
2233.71	16.4728
2233.95	17.4129
2234.19	15.5292
2234.43	15.5274
2234.66	15.5246
2234.9	17.3999
2235.14	15.5152
2235.38	15.516
2235.61	14.5764
2235.85	13.6368
2236.09	16.4593
2236.33	16.46
2236.56	16.4612
2236.8	17.4062
2237.04	16.4691
2237.27	13.6514
2237.51	17.4247
2237.75	15.5469
2237.98	15.5512
2238.22	15.5555
2238.46	14.6174
2238.7	16.5094
2238.93	13.6799
2239.17	15.5653
2239.41	15.5633
2239.65	19.3304
2239.88	17.4408
2240.12	13.6683
2240.36	15.5619
2240.59	16.5102
2240.83	16.5114
2241.07	15.569
2241.3	15.5704
2241.54	16.5151
2241.78	14.6292
2242.02	17.4626
2242.25	16.5209
2242.49	17.4651
2242.73	17.4646
2242.96	14.6304
2243.2	14.6283
2243.44	15.5711
2243.67	18.4019
2243.91	16.5153
2244.15	15.5743
2244.38	19.3561
2244.62	15.5859
2244.86	15.5916
2245.09	16.5403
2245.33	19.3797
2245.57	15.6018
2245.81	14.6593
2246.04	14.6619
2246.28	14.6633
2246.52	15.612
2246.75	14.6681
2246.99	11.8303
2247.23	14.6703
2247.46	16.563
2247.7	17.5086
2247.94	16.5613
2248.17	14.6677
2248.41	14.667
2248.65	14.6663
2248.88	16.5582
2249.12	16.5617
2249.36	14.6705
2249.59	14.6703
2249.83	15.6147
2250.07	16.5578
2250.3	16.5545
2250.54	12.7676
2250.78	13.711
2251.01	15.6
2251.25	13.7086
2251.49	17.4912
2251.72	14.6566
2251.96	14.6591
2252.2	17.5001
2252.43	12.7747
2252.67	14.6757
2252.91	14.6811
2253.14	14.6855
2253.38	14.689
2253.61	17.5353
2253.85	15.6428
2254.09	17.5413
2254.32	18.4897
2254.56	17.5397
2254.8	18.4892
2255.03	16.5929
2255.27	15.6456
2255.51	17.5428
2255.74	18.4947
2255.98	12.8065
2256.22	17.5529
2256.45	14.7089
2256.69	13.7624
2256.92	14.7141
2257.16	13.767
2257.4	15.6677
2257.63	21.3663
2257.87	13.7701
2258.11	17.57
2258.34	15.6722
2258.58	15.6747
2258.81	15.6772
2259.05	15.6787
2259.29	17.5807
2259.52	16.6325
2259.76	17.5849
2260	14.7349
2260.23	14.7364
2260.47	15.6898
2260.7	15.6952
2260.94	16.6498
2261.18	17.6019
2261.41	15.7002
2261.65	14.75
2261.88	17.6065
2262.12	17.6093
2262.36	17.6132
2262.59	17.6173
2262.83	14.7646
2263.06	16.6751
2263.3	15.7279
2263.54	15.7343
2263.77	15.7404
2264.01	11.9287
2264.24	14.796
2264.48	17.6641
2264.72	14.8028
2264.95	15.7606
2265.19	15.7612
2265.42	16.717
2265.66	14.8052
2265.9	14.802
2266.13	18.6176
2266.37	15.7495
2266.6	15.7462
2266.84	15.7437
2267.08	14.7875
2267.31	17.6467
2267.55	13.8283
2267.78	14.7797
2268.02	17.6395
2268.26	13.8262
2268.49	17.6431
2268.73	16.6932
2268.96	14.7895
2269.2	16.7027
2269.43	15.7532
2269.67	16.7139
2269.91	15.7638
2270.14	17.6779
2270.38	15.7691
2270.61	17.6844
2270.85	14.8194
2271.08	14.8214
2271.32	14.8237
2271.55	15.7831
2271.79	14.828
2272.03	14.8285
2272.26	17.6995
2272.5	16.7438
2272.73	16.7449
2272.97	17.7028
2273.2	15.79
2273.44	18.6621
2273.68	14.8348
2273.91	15.7928
2274.15	12.9221
2274.38	13.8802
2274.62	16.7533
2274.85	15.797
2275.09	13.883
2275.32	16.7553
2275.56	18.6732
2275.79	16.7622
2276.03	15.8084
2276.27	15.812
2276.5	15.8154
2276.74	14.8605
2276.97	11.9884
2277.21	14.8713
2277.44	15.8373
2277.68	14.8835
2277.91	13.9254
2278.15	15.8474
2278.38	15.8476
2278.62	14.8867
2278.85	17.7668
2279.09	17.7631
2279.33	15.836
2279.56	16.7909
2279.8	19.6642
2280.03	12.9467
2280.27	19.6562
2280.5	14.86
2280.74	13.8999
2280.97	15.8152
2281.21	12.9389
2281.44	13.8989
2281.68	14.8587
2281.91	15.8198
2282.15	16.7822
2282.38	14.8678
2282.62	13.912
2282.85	15.8357
2283.09	16.8024
2283.32	16.8103
2283.56	13.9347
2283.79	16.8255
2284.03	14.9065
2284.26	15.8704
2284.5	13.9501
2284.73	14.9154
2284.97	15.879
2285.2	16.8417
2285.44	17.7998
2285.67	14.9083
2285.91	15.8699
2286.14	15.8712
2286.38	13.9504
2286.61	15.8821
2286.85	17.8139
2287.08	14.9274
2287.32	15.8928
2287.55	15.8967
2287.79	17.8222
2288.02	14.9299
2288.26	16.8539
2288.49	15.8879
2288.73	16.8455
2288.96	15.8772
2289.2	16.8335
2289.43	16.827
2289.67	16.8247
2289.9	21.63
2290.14	15.8622
2290.37	14.9014
2290.61	15.8654
2290.84	15.87
2291.08	16.8373
2291.31	16.8412
2291.55	14.9193
2291.78	15.8847
2292.02	18.7767
2292.25	15.8918
2292.48	14.9321
2292.72	17.8254
2292.95	15.9008
2293.19	13.9751
2293.42	14.9397
2293.66	14.9386
2293.89	15.9005
2294.13	16.8616
2294.36	15.8952
2294.6	16.8562
2294.83	16.854
2295.07	14.9257
2295.3	17.8123
2295.54	16.8475
2295.77	16.843
2296.01	14.9126
2296.24	17.7983
2296.47	13.9514
2296.71	18.765
2296.94	19.7312
2297.18	14.9223
2297.41	14.9268
2297.65	16.8586
2297.88	15.8987
2298.11	14.9375
2298.35	18.7963
2298.58	19.7655
2298.82	15.9123
2299.05	18.8089
2299.29	14.952
2299.52	15.9166
2299.76	15.9167
2299.99	16.8812
2300.23	15.9187
2300.46	15.9215
2300.69	17.8538
2300.93	16.8907
2301.16	15.9267
2301.4	16.8923
2301.63	16.8918
2301.87	13.9948
2302.1	16.8895
2302.33	18.8203
2302.57	15.9245
2302.8	14.9587
2303.04	16.8887
2303.27	13.9939
2303.5	13.0303
2303.74	13.998
2303.97	14.0003
2304.21	14.002
2304.44	15.9358
2304.68	14.9729
2304.91	15.9407
2305.14	12.077
2305.38	13.0444
2305.61	18.8445
2305.85	15.9473
2306.08	18.8478
2306.31	18.8482
2306.55	17.8815
2306.78	15.9479
2307.02	16.9128
2307.25	18.8435
2307.48	17.876
2307.72	14.9758
2307.95	17.8731
2308.19	15.9409
2308.42	15.942
2308.65	15.9445
2308.89	15.9474
2309.12	14.985
2309.36	14.0227
2309.59	17.8948
2309.82	14.9944
2310.06	15.9623
2310.29	16.9292
2310.53	15.9601
2310.76	16.9232
2310.99	14.98
2311.23	13.0392
2311.46	16.8968
2311.7	13.9969
2311.93	14.96
2312.16	15.9225
2312.4	15.9206
2312.63	16.8855
2312.86	15.9227
2313.1	14.9627
2313.33	14.9685
2313.56	15.9391
2313.8	14.0113
2314.03	15.9489
2314.27	16.9223
2314.5	15.9605
2314.73	16.9308
2314.97	17.8928
2315.2	14.0208
2315.43	16.9184
2315.67	15.9473
2315.9	14.0062
2316.14	17.8656
2316.37	15.9321
2316.6	16.8976
2316.84	15.933
2317.07	15.934
2317.3	16.9047
2317.54	15.9414
2317.77	15.9353
2318	17.8645
2318.24	15.9311
2318.47	15.9286
2318.71	16.8912
2318.94	14.9586
2319.17	18.817
2319.41	17.8509
2319.64	15.9213
2319.87	14.9569
2320.11	15.9218
2320.34	17.8537
2320.57	15.9261
2320.81	16.8943
2321.04	15.932
2321.27	14.9698
2321.51	17.8725
2321.74	19.8111
2321.97	17.883
2322.21	17.8847
2322.44	16.9171
2322.67	18.8517
2322.91	15.9527
2323.14	17.8875
2323.37	15.9549
2323.61	17.8895
2323.84	17.8887
2324.07	19.8218
2324.31	16.9166
2324.54	18.8441
2324.77	19.8034
2325.01	19.799
2325.24	22.6921
2325.47	22.6876
2325.71	19.7873
2325.94	27.5033
2326.17	27.4974
2326.41	28.4561
2326.64	35.2008
2326.87	48.6916
2327.1	54.4692
2327.34	80.4851
2327.57	104.572
2327.8	130.603
2328.04	107.471
2328.27	85.3045
2328.5	58.3028
2328.74	39.9854
2328.97	37.0847
2329.2	26.4871
2329.44	23.5967
2329.67	24.5636
2329.9	25.5246
2330.13	22.6333
2330.37	17.8161
2330.6	21.6676
2330.83	16.854
2331.07	18.7831
2331.3	18.7863
2331.53	16.8639
2331.77	15.8951
2332	18.7818
2332.23	19.7422
2332.47	14.925
2332.7	16.8486
2332.93	15.8839
2333.16	17.8073
2333.4	18.7682
2333.63	16.8409
2333.86	15.8759
2334.09	17.7955
2334.33	16.8313
2334.56	16.8296
2334.79	16.8292
2335.02	15.8666
2335.26	14.9058
2335.49	13.9452
2335.72	16.8298
2335.96	17.7896
2336.19	15.8655
2336.42	18.7494
2336.66	16.8258
2336.89	14.9021
2337.12	17.7857
2337.35	16.8229
2337.59	14.8993
2337.82	16.8212
2338.05	17.7816
2338.28	15.8588
2338.52	17.782
2338.75	13.9376
2338.98	16.8212
2339.21	14.8983
2339.45	15.8582
2339.68	18.7392
2339.91	12.9711
2340.14	16.8116
2340.38	18.7287
2340.61	16.8031
2340.84	20.6371
2341.07	15.8317
2341.31	14.868
2341.54	14.8655
2341.77	15.8219
2342	15.8196
2342.24	16.7766
2342.47	17.7343
2342.7	17.734
2342.93	15.8171
2343.17	13.8992
2343.4	17.7328
2343.63	17.7332
2343.86	13.9001
2344.1	14.8593
2344.33	15.8175
2344.56	16.775
2344.79	16.7733
2345.02	17.7288
2345.26	14.8499
2345.49	18.6789
2345.72	15.8023
2345.95	13.886
2346.19	16.7581
2346.42	16.7573
2346.65	18.6708
2346.88	15.7972
2347.12	15.797
2347.35	16.7549
2347.58	15.8089
2347.81	15.8187
2348.04	19.5763
2348.28	15.8164
2348.51	16.6391
2348.74	19.4182
2348.97	14.8657
2349.2	16.6434
2349.44	14.7792
2349.67	16.429
2349.9	16.4619
2350.13	15.7784
2350.37	17.301
2350.6	16.4975
2350.83	18.2057
2351.06	17.2897
2351.29	14.702
2351.53	15.3878
2351.76	14.8318
2351.99	17.3776
2352.22	15.5845
2352.45	14.5526
2352.69	17.2081
2352.92	17.6843
2353.15	12.2903
2353.38	15.7501
2353.61	16.1215
2353.85	15.9971
2354.08	15.7338
2354.31	16.348
2354.54	16.5345
2354.77	15.9318
2355.01	15.0027
2355.24	16.1242
2355.47	17.7931
2355.7	15.8523
2355.93	15.909
2356.17	14.7794
2356.4	16.0895
2356.63	15.282
2356.86	15.0054
2357.09	15.3282
2357.32	15.8953
2357.56	15.5586
2357.79	14.4788
2358.02	15.5426
2358.25	16.0381
2358.48	15.4072
2358.71	17.2193
2358.95	16.067
2359.18	17.5999
2359.41	13.7695
2359.64	14.5066
2359.87	13.5533
2360.1	16.3095
2360.34	14.4098
2360.57	15.3038
2360.8	14.3368
2361.03	16.102
2361.26	15.7157
2361.49	15.3844
2361.73	15.3364
2361.96	16.2095
2362.19	15.272
2362.42	16.2767
2362.65	13.2542
2362.88	14.8955
2363.11	16.6553
2363.35	16.3428
2363.58	14.0762
2363.81	18.3736
2364.04	16.0696
2364.27	16.476
2364.5	14.8229
2364.73	15.6906
2364.97	14.9348
2365.2	14.978
2365.43	14.1321
2365.66	15.0715
2365.89	15.5529
2366.12	15.1722
2366.36	15.508
2366.59	16.4333
2366.82	15.1445
2367.05	16.6563
2367.28	16.6914
2367.51	14.5758
2367.74	15.1302
2367.97	17.4962
2368.2	15.2713
2368.44	14.4067
2368.67	15.8554
2368.9	16.5069
2368.98	16.5158
2369.22	17.4558
2369.45	17.4516
2369.69	13.6748
2369.92	13.6713
2370.15	17.4388
2370.39	14.6082
2370.62	12.7208
2370.86	17.429
2371.09	15.5427
2371.33	14.5992
2371.56	10.8305
2371.79	15.5366
2372.03	14.5926
2372.26	16.4727
2372.5	13.6468
2372.73	16.4686
2372.97	16.4678
2373.2	16.4668
2373.43	14.5826
2373.67	15.5198
2373.9	16.4573
2374.14	17.3948
2374.37	15.5116
2374.6	15.5088
2374.84	16.4451
2375.07	14.5628
2375.31	10.8034
2375.54	17.3781
2375.77	15.4984
2376.01	15.497
2376.24	15.494
2376.48	16.4302
2376.71	14.5511
2376.94	14.55
2377.18	13.6099
2377.41	14.546
2377.65	15.4811
2377.88	16.4169
2378.11	13.5999
2378.35	14.5349
2378.58	13.5943
2378.82	15.4654
2379.05	16.3969
2379.28	16.3913
2379.52	13.5784
2379.75	16.3858
2379.98	14.5119
2380.22	16.3831
2380.45	15.4459
2380.69	13.573
2380.92	17.317
2381.15	15.4451
2381.39	14.5097
2381.62	13.5734
2381.85	13.5723
2382.09	16.3799
2382.32	16.3791
2382.56	17.3134
2382.79	15.4406
2383.02	13.5685
2383.26	16.3752
2383.49	15.439
2383.72	13.5675
2383.96	16.3747
2384.19	14.5028
2384.42	15.4374
2384.66	16.3719
2384.89	16.3694
2385.13	14.4962
2385.36	14.4934
2385.59	13.5546
2385.83	15.4201
2386.06	15.4165
2386.29	18.2139
2386.53	14.473
2386.76	13.5354
2386.99	16.3302
2387.23	16.3258
2387.46	15.3918
2387.69	13.5264
2387.93	14.4594
2388.16	14.459
2388.4	16.3237
2388.63	14.4568
2388.86	12.59
2389.1	13.5223
2389.33	14.4543
2389.56	13.5211
2389.8	16.3183
2390.03	14.4533
2390.26	12.5888
2390.5	16.3198
2390.73	13.5231
2390.96	17.2544
2391.2	13.5241
2391.43	14.4564
2391.66	13.5229
2391.9	16.3193
2392.13	14.4529
2392.36	16.3158
2392.59	13.5137
2392.83	18.167
2393.06	14.4352
2393.3	15.36
2393.53	14.4253
2393.76	15.353
2394	15.3518
2394.23	13.4875
2394.46	13.4838
2394.69	15.3447
2394.93	14.4174
2395.16	15.3531
2395.39	14.4512
2395.63	17.2513
2395.86	13.5207
2396.09	16.3303
2396.33	15.4044
2396.56	16.3257
2396.79	15.3896
2397.02	16.3211
2397.26	16.321
2397.49	16.3215
2397.73	15.389
2397.96	16.3209
2398.19	15.3877
2398.42	14.455
2398.66	15.3873
2398.89	17.2521
2399.12	13.5226
2399.36	16.3207
2399.59	12.5904
2399.82	15.3882
