#Acq. time (s)=	60
#Accumulations=	2
#Range (cm-¹)=	100...4000
#Windows=	1
#Auto scanning=	Off
#Autofocus=	Off
#Macrospot=	Off
#AutoExposure=	Off
#Spike filter=	Multiple accum.
#Delay time (s)=	2
#Binning=	1
#Readout mode=	Signal
#DeNoise=	Off
#ICS correction=	On
#Dark correction=	Off
#Inst. Process=	Off
#Detector Gain=	Best Dynamic
#Detector ADC=	50 kHz HS
#Detector temperature (°C)=	-60.09
#Instrument=	LabRAM HR Evol
#Detector=	SIN-EM FIVIS
#Objective=	x100_VIS
#Grating=	150 (500nm)
#ND Filter=	100%
#Laser=	633nm_Edge
#Hole=	49.98
#Temperature=	0
#Range=	Visible
#StageXY=	75x50mm Scan+
#StageZ=	Z motor
#X (µm)=	0
#Y (µm)=	0
#Z (µm)=	-269.3
#Full time(mm:ss)=	2:04
#Project=	21_11_04
#Sample=	BU19w
#Site=	
#Title=	BU19w-E-FF11-FI09-S_150 (500nm)_633nm_Edge_100%_x100_VIS_H50um_60sX2
#Remark=	
#Date=	04.11.2021 16:13
#Acquired=	04.11.2021 16:13:38
102.881	246.454
106.139	237.026
109.397	226.65
112.653	222.945
115.908	223.05
119.161	204.97
122.414	210.783
125.664	231.885
128.914	237.701
132.162	236.796
135.409	256.924
138.654	252.142
141.898	261.715
145.14	246.434
148.383	256.985
151.622	256.067
154.861	314.547
158.098	346.237
161.335	330.053
164.569	289.903
167.801	233.41
171.034	207.554
174.264	192.214
177.494	179.719
180.721	166.253
183.949	166.168
187.173	159.362
190.396	161.146
193.62	160.06
196.84	157.081
200.061	166.549
203.279	172.266
206.496	173.203
209.712	165.534
212.926	184.577
216.139	212.202
219.352	243.623
222.562	312.192
225.772	394.956
228.979	461.308
232.185	469.57
235.392	377.077
238.595	306.555
241.797	262.709
244.999	244.63
248.199	235.09
251.397	236.917
254.595	242.528
257.791	262.391
260.985	250.001
264.178	245.211
267.371	241.383
270.561	248.954
273.75	252.74
276.939	278.347
280.125	279.274
283.31	251.728
286.494	239.347
289.678	217.475
292.859	205.068
296.039	193.619
299.217	202.057
302.396	224.67
305.572	259.541
308.746	303.836
311.919	402.889
315.093	514.141
318.263	656.457
321.433	670.469
324.601	589.231
327.768	474.988
330.935	367.416
334.099	302.302
337.262	269.257
340.423	262.626
343.584	271.077
346.743	252.158
349.902	265.296
353.058	272.743
356.213	278.278
359.367	277.208
362.52	246.963
365.671	224.266
368.821	191.258
371.971	181.77
375.119	163.83
378.265	157.177
381.41	153.345
384.553	143.927
387.696	153.322
390.837	144.941
393.976	147.847
397.116	152.665
400.253	166.96
403.389	170.907
406.524	172.03
409.657	165.604
412.789	184.638
415.92	182.862
419.05	200.968
422.178	227.55
425.305	244.566
428.431	254.749
431.555	267.675
434.678	263.593
437.8	266.099
440.921	251.663
444.04	249.461
447.158	256.617
450.275	275.905
453.391	264.289
456.505	247.134
459.618	219.805
462.73	186.057
465.84	158.935
468.949	159.793
472.057	165.338
475.164	150.432
478.27	149.524
481.374	158.852
484.477	162.586
487.579	160.73
490.679	163.539
493.778	164.495
496.876	171.033
499.973	178.514
503.068	201.872
506.162	204.719
509.255	236.495
512.346	235.651
515.436	237.617
518.525	245.232
521.613	236.08
524.7	212.898
527.785	230.92
530.869	216.195
533.952	202.404
537.033	199.864
540.113	187.854
543.192	169.188
546.27	163.659
549.347	152.389
552.423	160.951
555.497	149.678
558.568	141.166
561.64	147.69
564.711	128.717
567.78	115.398
570.848	132.187
573.915	135.749
576.979	130.834
580.043	150.284
583.107	148.208
586.169	163.896
589.228	193.576
592.287	218.617
595.345	209.182
598.402	214.736
601.458	217.618
604.511	214.976
607.565	221.678
610.617	217.219
613.667	216.52
616.716	204.655
619.764	190.882
622.811	187.43
625.856	177.41
628.9	165.375
631.944	155.122
634.986	159.884
638.026	161.747
641.066	156.954
644.104	156.801
647.14	155.738
650.177	153.734
653.211	149.798
656.244	156.164
659.276	129.728
662.308	121.132
665.336	114.441
668.365	103.103
671.393	100.231
674.418	98.3812
677.443	91.8592
680.467	90.922
683.489	91.8845
686.511	78.8669
689.53	83.6064
692.549	83.6989
695.567	88.476
698.582	85.7624
701.598	85.8527
704.611	83.119
707.624	84.1266
710.635	86.0534
713.646	84.1407
716.655	80.3541
719.662	78.4467
722.669	84.0659
725.674	75.5715
728.679	83.949
731.681	75.4396
734.683	74.4357
737.683	73.4323
740.683	80.8455
743.681	84.5148
746.678	81.6582
749.673	78.8103
752.669	80.6534
755.661	79.697
758.654	79.7157
761.645	85.3769
764.635	81.7401
767.623	83.7263
770.611	80.0983
773.597	81.1541
776.582	77.5042
779.565	82.2916
782.549	70.1263
785.53	81.4771
788.511	87.1794
791.489	75.9037
794.466	84.4114
797.444	83.4733
800.419	81.5696
803.394	84.3653
806.366	81.4928
809.339	85.2119
812.309	86.0833
815.278	90.6977
818.247	84.9642
821.214	77.3628
824.18	90.3798
827.145	87.4594
830.108	81.7681
833.072	92.9539
836.033	94.8292
838.992	100.482
841.952	96.841
844.909	98.7962
847.865	97.014
850.822	106.505
853.776	96.2975
856.728	108.65
859.681	105.971
862.631	104.231
865.58	116.654
868.528	115.868
871.476	127.364
874.422	135.047
877.366	132.274
880.311	127.588
883.253	141.858
886.194	151.36
889.134	144.703
892.074	138.977
895.012	137.98
897.948	136.937
900.883	127.324
903.818	125.279
906.751	122.292
909.683	129.674
912.614	118.201
915.543	124.637
918.473	141.454
921.4	140.439
924.326	134.784
927.251	145.131
930.174	159.324
933.098	169.767
936.019	188.792
938.94	194.767
941.859	228.192
944.777	246.6
947.693	264.17
950.61	280.86
953.525	278.533
956.438	285.696
959.35	311.923
962.261	303.736
965.171	346.2
968.08	383.941
970.988	441.803
973.894	511.134
976.801	571.672
979.705	599.292
982.608	600.846
985.51	600.4
988.411	535.751
991.311	457.788
994.209	421.04
997.107	371.019
1000	338.302
1002.9	333.324
1005.79	331.279
1008.68	327.413
1011.58	346.603
1014.47	362.046
1017.36	379.384
1020.25	382.456
1023.13	340.738
1026.02	305.726
1028.9	274.491
1031.79	254.7
1034.67	252.184
1037.55	234.293
1040.43	234.657
1043.31	235.016
1046.19	215.092
1049.07	200.857
1051.94	196.233
1054.82	184.785
1057.69	182.988
1060.56	179.198
1063.44	177.305
1066.31	184.071
1069.17	185.01
1072.04	195.665
1074.91	217.943
1077.77	232.413
1080.64	253.641
1083.5	283.575
1086.37	318.327
1089.23	344.394
1092.09	360.755
1094.95	408.092
1097.8	379.881
1100.66	335.253
1103.52	296.501
1106.37	269.52
1109.22	227.934
1112.08	206.772
1114.93	215.818
1117.78	193.847
1120.63	204.826
1123.48	198.243
1126.32	207.232
1129.17	217.26
1132.01	243.929
1134.86	264.798
1137.7	277.857
1140.54	298.826
1143.38	346.307
1146.22	394.724
1149.06	400.942
1151.89	381.473
1154.73	317.544
1157.56	226.93
1160.4	183.538
1163.23	161.738
1166.06	148.814
1168.89	129.05
1171.72	126.966
1174.55	115.085
1177.38	117.898
1180.2	111.928
1183.03	105.012
1185.85	102.053
1188.67	102.054
1191.49	87.4138
1194.31	84.5311
1197.13	85.5648
1199.95	83.697
1202.77	84.8045
1205.58	77.0891
1208.4	79.2016
1211.21	75.4057
1214.02	73.586
1216.84	71.7705
1219.65	78.8843
1222.46	72.1123
1225.27	73.284
1228.07	71.4585
1230.88	68.6113
1233.68	70.7557
1236.49	65.8571
1239.29	68.9812
1242.09	73.0963
1244.89	70.1348
1247.69	70.1792
1250.49	71.2113
1253.29	69.2101
1256.08	72.2341
1258.88	73.2155
1261.67	67.1102
1264.47	66.0551
1267.26	71.0516
1270.05	64.9526
1272.84	71.9291
1275.63	64.8183
1278.42	68.7602
1281.2	63.6707
1283.99	70.6217
1286.77	69.5633
1289.56	64.5149
1292.34	72.4793
1295.12	66.4633
1297.9	65.4573
1300.68	74.451
1303.46	71.4763
1306.23	67.5213
1309.01	70.5906
1311.78	66.6808
1314.56	64.7765
1317.33	66.8927
1320.1	59.9545
1322.87	64.1027
1325.64	56.1376
1328.41	64.3593
1331.18	66.5213
1333.94	67.6604
1336.71	60.6434
1339.47	65.8458
1342.24	67.975
1345	68.0493
1347.76	65.0437
1350.52	59.9781
1353.28	68.2372
1356.04	72.39
1358.79	61.1261
1361.55	63.2019
1364.3	64.2372
1367.06	64.2326
1369.81	70.388
1372.56	70.3736
1375.31	70.3616
1378.06	71.3753
1380.81	62.1188
1383.56	68.2632
1386.3	57.9841
1389.05	67.2045
1391.79	68.2291
1394.53	64.1365
1397.28	61.105
1400.02	69.3713
1402.76	61.191
1405.5	64.3259
1408.23	66.4411
1410.97	66.5028
1413.71	61.4103
1416.44	63.5463
1419.17	60.5145
1421.91	61.6222
1424.64	61.701
1427.37	70.0854
1430.1	61.8605
1432.83	65.0629
1435.55	66.1874
1438.28	62.0961
1441.01	62.1677
1443.73	71.6665
1446.45	64.4192
1449.17	63.4288
1451.89	68.7154
1454.62	69.7993
1457.33	58.2707
1460.05	69.8299
1462.77	68.7804
1465.48	71.9238
1468.2	63.5142
1470.91	70.8531
1473.63	73.9958
1476.34	71.8992
1479.05	64.5646
1481.76	65.6285
1484.47	61.4473
1487.17	65.6773
1489.88	69.9203
1492.59	66.8126
1495.29	71.0829
1497.99	63.7686
1500.7	66.9994
1503.4	71.2972
1506.1	63.9786
1508.8	61.9461
1511.5	71.5744
1514.19	62.1243
1516.89	62.2229
1519.59	70.85
1522.28	74.1703
1524.97	67.8882
1527.67	66.9329
1530.36	64.9068
1533.05	63.9587
1535.74	68.3796
1538.42	68.4773
1541.11	65.3317
1543.8	70.8037
1546.48	68.6791
1549.16	69.7738
1551.85	69.7647
1554.53	65.4036
1557.21	68.5971
1559.89	68.5601
1562.57	73.9242
1565.25	69.5726
1567.93	74.9264
1570.6	74.886
1573.28	72.6938
1575.95	66.2057
1578.62	73.7358
1581.29	67.2784
1583.97	76.9731
1586.64	74.8326
1589.3	69.466
1591.97	78.1108
1594.64	66.2924
1597.3	69.5714
1599.97	72.8578
1602.63	67.5195
1605.3	74.0745
1607.96	74.1642
1610.62	73.1845
1613.28	76.563
1615.94	75.6135
1618.59	71.3987
1621.25	75.9055
1623.91	73.8617
1626.56	78.3863
1629.21	67.5495
1631.87	75.3738
1634.52	72.1857
1637.17	73.3854
1639.82	70.1164
1642.47	69.0592
1645.12	80.1745
1647.76	70.2714
1650.41	68.099
1653.05	81.4307
1655.7	77.029
1658.34	77.0477
1660.98	82.6042
1663.62	68.1999
1666.26	72.6399
1668.9	71.5331
1671.54	78.1883
1674.18	78.1888
1676.81	82.6145
1679.45	73.7398
1682.08	81.4804
1684.71	75.9036
1687.34	81.4066
1689.98	72.5191
1692.61	72.5033
1695.23	69.1835
1697.86	73.6364
1700.49	77.0271
1703.12	77.2256
1705.74	71.8424
1708.36	79.813
1710.99	70.8246
1713.61	78.5994
1716.23	76.4314
1718.85	81.034
1721.47	75.5302
1724.09	71.0996
1726.7	80.1346
1729.32	76.8531
1731.94	80.3024
1734.55	86.0047
1737.16	75.9598
1739.77	76.0326
1742.39	73.8502
1745	78.4351
1747.61	67.2043
1750.21	79.6832
1752.82	85.3861
1755.43	80.905
1758.03	83.1955
1760.64	78.6814
1763.24	69.6356
1765.84	82.1085
1768.44	84.3961
1771.05	88.9546
1773.64	79.9156
1776.24	82.2196
1778.84	75.4615
1781.44	85.738
1784.03	84.6708
1786.63	79.0585
1789.22	81.4222
1791.81	72.3925
1794.41	87.3121
1797	79.4173
1799.59	76.0923
1802.18	75.0506
1804.76	77.4504
1807.35	76.4017
1809.94	78.7865
1812.52	82.3249
1815.11	88.1764
1817.69	85.9669
1820.27	81.4363
1822.85	74.5886
1825.43	72.3579
1828.01	85.1907
1830.59	85.2939
1833.17	83.072
1835.74	79.6911
1838.32	90.2596
1840.89	83.3509
1843.47	82.2593
1846.04	84.6656
1848.61	80.0583
1851.18	74.2761
1853.75	88.3598
1856.32	79.055
1858.89	87.3266
1861.45	92.1048
1864.02	81.6234
1866.58	82.8897
1869.15	90.0322
1871.71	77.1483
1874.27	88.9863
1876.83	87.8668
1879.39	78.4776
1881.95	87.9723
1884.51	82.1079
1887.07	86.8757
1889.63	91.621
1892.18	83.3488
1894.74	80.9855
1897.29	82.178
1899.84	83.3873
1902.39	86.9983
1904.94	72.8641
1907.49	80.0511
1910.04	87.2778
1912.59	94.5476
1915.14	85.1796
1917.68	84.1166
1920.23	88.9253
1922.77	87.7944
1925.32	83.0981
1927.86	87.9668
1930.4	85.656
1932.94	83.3386
1935.48	84.6111
1938.02	85.8793
1940.56	82.3339
1943.09	90.8042
1945.63	86.0398
1948.16	87.2862
1950.7	90.93
1953.23	98.1806
1955.76	78.9213
1958.29	83.7533
1960.82	89.7888
1963.35	92.2045
1965.88	84.9737
1968.41	88.5766
1970.93	90.9637
1973.46	89.7325
1975.98	86.0955
1978.51	88.4799
1981.03	90.8609
1983.55	87.2265
1986.07	88.4081
1988.59	82.3773
1991.11	89.5769
1993.63	79.9469
1996.15	97.9716
1998.66	90.7584
2001.18	91.9657
2003.69	90.7759
2006.2	88.3944
2008.72	88.4212
2011.23	88.4582
2013.74	93.3099
2016.25	88.5304
2018.76	94.5782
2021.27	87.3767
2023.77	95.861
2026.28	91.0938
2028.78	105.647
2031.29	91.2345
2033.79	94.9508
2036.29	93.8305
2038.79	87.8619
2041.3	94.0153
2043.79	95.3269
2046.29	102.724
2048.79	93.103
2051.29	84.6757
2053.78	95.7059
2056.28	97.0174
2058.77	100.791
2061.27	94.7878
2063.76	92.445
2066.25	102.358
2068.74	98.7869
2071.23	91.5201
2073.72	102.686
2076.21	96.635
2078.69	101.658
2081.18	95.5853
2083.66	95.6644
2086.15	106.851
2088.63	105.681
2091.11	110.715
2093.59	99.6775
2096.07	94.8318
2098.55	96.1823
2101.03	104.995
2103.51	107.615
2105.99	100.282
2108.46	106.657
2110.94	113.057
2113.41	109.477
2115.89	99.6228
2118.36	112.329
2120.83	107.473
2123.3	103.858
2125.77	101.488
2128.24	107.944
2130.71	99.24
2133.17	112.024
2135.64	107.089
2138.11	99.5993
2140.57	111.14
2143.03	103.632
2145.49	102.461
2147.96	110.195
2150.42	97.5275
2152.88	103.971
2155.34	109.137
2157.79	101.529
2160.25	99.0159
2162.71	105.437
2165.16	105.459
2167.62	99.0793
2170.07	105.492
2172.52	106.81
2174.97	96.614
2177.43	104.325
2179.88	108.176
2182.32	101.779
2184.77	109.447
2187.22	110.726
2189.67	113.299
2192.11	109.484
2194.56	100.549
2197	110.845
2199.44	104.499
2201.89	108.421
2204.33	108.508
2206.77	98.3221
2209.21	107.425
2211.64	112.693
2214.08	110.238
2216.52	100.044
2218.95	102.755
2221.39	97.7099
2223.82	106.905
2226.26	101.851
2228.69	113.673
2231.12	113.817
2233.55	102.24
2235.98	99.7615
2238.41	111.639
2240.84	106.548
2243.26	113.229
2245.69	108.133
2248.12	110.896
2250.54	109.722
2252.96	103.278
2255.39	107.357
2257.81	112.773
2260.23	119.522
2262.65	101.153
2265.07	103.908
2267.49	93.408
2269.9	100.117
2272.32	106.828
2274.74	102.914
2277.15	104.303
2279.57	108.342
2281.98	112.369
2284.39	111.063
2286.8	113.736
2289.21	119.075
2291.62	99.1301
2294.03	123.094
2296.44	123.117
2298.84	108.515
2301.25	116.553
2303.66	103.291
2306.06	110.037
2308.46	120.813
2310.87	111.581
2313.27	117.051
2315.67	109.153
2318.07	109.293
2320.47	116.145
2322.87	123.01
2325.26	117.79
2327.66	108.515
2330.06	110.015
2332.45	112.884
2334.85	111.703
2337.24	110.521
2339.63	112.054
2342.02	113.602
2344.41	112.435
2346.8	119.477
2349.19	111.479
2351.58	115.783
2353.97	106.364
2356.35	114.76
2358.74	119.043
2361.12	113.643
2363.51	115.14
2365.89	113.887
2368.27	115.393
2370.65	111.363
2373.03	112.861
2375.41	117.131
2377.79	122.799
2380.17	114.563
2382.55	111.862
2384.92	113.308
2387.3	107.795
2389.67	114.79
2392.05	110.637
2394.42	116.222
2396.79	114.831
2399.16	120.397
2401.53	110.656
2403.9	121.777
2406.27	127.332
2408.64	114.828
2411.01	114.906
2413.37	115.028
2415.74	112.453
2418.1	114.178
2420.47	118.632
2422.83	115.952
2425.19	108.984
2427.55	124.587
2429.91	121.925
2432.27	119.265
2434.63	116.611
2436.99	113.959
2439.34	121.22
2441.7	112.881
2444.05	114.471
2446.41	118.914
2448.76	113.389
2451.11	119.274
2453.47	119.447
2455.82	135.378
2458.17	121.23
2460.51	121.405
2462.86	125.899
2465.21	124.636
2467.56	117.592
2469.9	124.97
2472.25	129.466
2474.59	125.286
2476.94	119.652
2479.28	129.975
2481.62	118.505
2483.96	121.556
2486.3	130.428
2488.64	113.058
2490.98	123.394
2493.32	124.98
2495.65	139.749
2497.99	120.848
2500.32	118.031
2502.66	128.414
2504.99	128.526
2507.32	116.871
2509.66	127.258
2511.99	124.401
2514.32	133.318
2516.65	142.245
2518.98	130.548
2521.3	123.273
2523.63	130.76
2525.96	127.899
2528.28	122.078
2530.61	129.575
2532.93	135.616
2535.25	113.49
2537.57	121.025
2539.89	140.472
2542.22	124.248
2544.53	134.804
2546.85	134.957
2549.17	126.148
2551.49	157.673
2553.8	124.928
2556.12	131.037
2558.43	129.654
2560.75	122.288
2563.06	132.937
2565.37	128.589
2567.68	125.738
2569.99	137.966
2572.3	120.03
2574.61	138.324
2576.92	140.004
2579.23	132.58
2581.53	125.125
2583.84	129.77
2586.14	135.93
2588.45	125.368
2590.75	128.441
2593.05	131.547
2595.35	134.678
2597.66	124.131
2599.96	144.038
2602.26	131.932
2604.55	141.17
2606.85	135.143
2609.15	135.219
2611.44	147.497
2613.74	126.147
2616.03	147.612
2618.33	141.56
2620.62	129.372
2622.91	138.622
2625.2	144.827
2627.49	137.244
2629.78	131.216
2632.07	143.642
2634.36	151.499
2636.64	144.007
2638.93	134.982
2641.22	138.281
2643.5	144.692
2645.78	141.835
2648.07	128.083
2650.35	142.274
2652.63	153.4
2654.91	144.218
2657.19	150.592
2659.47	139.788
2661.75	135.207
2664.03	141.554
2666.3	147.895
2668.58	137.053
2670.85	148.15
2673.13	148.327
2675.4	145.41
2677.67	134.691
2679.95	136.624
2682.22	140.111
2684.49	143.602
2686.76	132.797
2689.03	137.874
2691.29	144.53
2693.56	141.601
2695.83	140.103
2698.09	148.253
2700.36	146.816
2702.62	135.726
2704.89	153.543
2707.15	147.251
2709.41	142.549
2711.67	147.506
2713.93	144.415
2716.19	147.823
2718.45	149.583
2720.7	138.398
2722.96	149.863
2725.22	148.348
2727.47	153.312
2729.73	146.905
2731.98	146.959
2734.23	155.149
2736.49	158.455
2738.74	153.625
2740.99	139.069
2743.24	152.173
2745.49	160.421
2747.73	142.62
2749.98	149.285
2752.23	144.625
2754.47	161.185
2756.72	146.61
2758.96	161.491
2761.21	153.396
2763.45	156.81
2765.69	133.953
2767.93	150.546
2770.17	150.675
2772.41	154.124
2774.65	144.401
2776.89	164.421
2779.13	156.374
2781.36	153.323
2783.6	160.22
2785.84	153.841
2788.07	150.766
2790.3	156.016
2792.54	166.289
2794.77	166.542
2797	165.09
2799.23	161.951
2801.46	158.787
2803.69	150.554
2805.92	152.394
2808.14	144.116
2810.37	152.687
2812.59	141.003
2814.82	151.247
2817.04	156.431
2819.27	154.859
2821.49	149.9
2823.71	160.198
2825.93	160.335
2828.15	151.974
2830.37	148.693
2832.59	157.306
2834.81	150.606
2837.03	159.228
2839.24	161.046
2841.46	154.341
2843.67	151.045
2845.89	151.179
2848.1	141.057
2850.31	151.464
2852.53	156.774
2854.74	148.39
2856.95	150.296
2859.16	143.601
2861.37	161.015
2863.57	145.728
2865.78	156.321
2867.99	153.107
2870.19	156.81
2872.4	158.785
2874.6	150.341
2876.81	171.469
2879.01	150.827
2881.21	163.312
2883.41	146.104
2885.61	153.383
2887.81	167.7
2890.01	138.082
2892.21	157.694
2894.41	143.835
2896.6	154.709
2898.8	146.145
2901	151.735
2903.19	169.754
2905.38	157.552
2907.58	152.44
2909.77	156.232
2911.96	152.842
2914.15	156.592
2916.34	140.637
2918.53	165.918
2920.72	160.736
2922.91	162.735
2925.09	144.951
2927.28	166.799
2929.47	150.79
2931.65	160.06
2933.83	160.271
2936.02	153.207
2938.2	158.809
2940.38	142.605
2942.56	171.834
2944.74	153.784
2946.92	153.889
2949.1	164.931
2951.28	157.758
2953.46	159.698
2955.63	165.29
2957.81	174.542
2959.98	165.522
2962.16	149.174
2964.33	160.282
2966.5	165.92
2968.68	164.234
2970.85	160.711
2973.02	157.185
2975.19	161.014
2977.36	159.323
2979.52	170.534
2981.69	168.865
2983.86	156.128
2986.03	165.571
2988.19	163.935
2990.36	166.012
2992.52	171.823
2994.68	153.46
2996.85	159.277
2999.01	170.719
3001.17	169.124
3003.33	158.175
3005.49	154.696
3007.65	164.348
3009.8	172.144
3011.96	159.208
3014.12	168.908
3016.27	174.876
3018.43	173.301
3020.58	186.899
3022.74	173.914
3024.89	181.799
3027.04	178.238
3029.19	174.652
3031.34	178.689
3033.49	173.145
3035.64	184.804
3037.79	184.955
3039.94	181.328
3042.09	183.437
3044.23	187.452
3046.38	181.844
3048.52	187.778
3050.67	176.372
3052.81	199.67
3054.95	190.198
3057.09	194.24
3059.24	180.871
3061.38	198.455
3063.51	200.567
3065.65	200.744
3067.79	191.214
3069.93	189.437
3072.07	187.659
3074.2	209.24
3076.34	189.952
3078.47	195.981
3080.61	209.826
3082.74	198.297
3084.87	200.471
3087	192.871
3089.14	199.006
3091.27	222.85
3093.39	211.39
3095.52	221.584
3097.65	208.137
3099.78	210.45
3101.91	212.784
3104.03	211.181
3106.16	219.52
3108.28	217.944
3110.41	230.337
3112.53	224.804
3114.65	209.22
3116.77	225.681
3118.89	228.135
3121.01	220.555
3123.13	204.878
3125.25	231.626
3127.37	207.821
3129.49	236.763
3131.61	227.161
3133.72	250.182
3135.84	228.268
3137.95	249.328
3140.06	214.927
3142.18	233.945
3144.29	222.037
3146.4	239.036
3148.51	237.432
3150.62	242.012
3152.73	250.712
3154.84	234.423
3156.95	249.376
3159.06	241.382
3161.16	262.671
3163.27	271.449
3165.37	257.133
3167.48	244.86
3169.58	259.895
3171.69	266.607
3173.79	258.514
3175.89	254.557
3177.99	265.359
3180.09	261.339
3182.19	253.056
3184.29	274.413
3186.39	253.381
3188.49	264.087
3190.58	266.389
3192.68	277.23
3194.77	254.084
3196.87	277.778
3198.96	267.51
3201.06	259.456
3203.15	270.607
3205.24	264.669
3207.33	254.463
3209.42	261.426
3211.51	272.738
3213.6	262.507
3215.69	271.747
3217.78	267.985
3219.86	279.391
3221.95	238.557
3224.04	271.775
3226.12	259.205
3228.2	266.296
3230.29	249.238
3232.37	240.93
3234.45	245.764
3236.53	263.855
3238.61	242.227
3240.7	251.582
3242.77	252.095
3244.85	250.446
3246.93	237.545
3249.01	251.405
3251.08	251.779
3253.16	236.449
3255.23	245.701
3257.31	241.487
3259.38	221.621
3261.46	215.226
3263.53	229.155
3265.6	231.885
3267.67	221.25
3269.74	219.333
3271.81	217.596
3273.88	213.389
3275.95	211.308
3278.02	227.538
3280.08	220.902
3282.15	221.127
3284.21	212.177
3286.28	230.759
3288.34	233.285
3290.41	210.501
3292.47	215.298
3294.53	220.095
3296.59	227.205
3298.65	197.398
3300.71	211.489
3302.77	204.751
3304.83	209.585
3306.89	232.973
3308.95	223.912
3311	217.145
3313.06	212.675
3315.11	217.532
3317.17	217.725
3319.22	208.623
3321.27	232.18
3323.33	216.113
3325.38	209.359
3327.43	216.668
3329.48	216.955
3331.53	200.876
3333.58	210.661
3335.63	220.463
3337.67	237.388
3339.72	214.062
3341.77	221.422
3343.81	214.539
3345.86	195.774
3347.9	195.922
3349.95	234.138
3351.99	246.242
3354.03	196.445
3356.07	203.813
3358.11	211.203
3360.15	232.94
3362.19	218.86
3364.23	214.307
3366.27	214.53
3368.31	221.956
3370.34	219.795
3372.38	210.389
3374.42	208.166
3376.45	215.551
3378.48	201.245
3380.52	225.504
3382.55	223.24
3384.58	208.894
3386.61	201.773
3388.64	204.309
3390.68	218.931
3392.7	214.205
3394.73	204.654
3396.76	214.498
3398.79	212.235
3400.82	222.085
3402.84	210.054
3404.87	193.144
3406.89	202.962
3408.92	207.924
3410.94	186.104
3412.96	200.778
3414.98	210.595
3417	200.94
3419.03	210.765
3421.05	218.152
3423.06	206.032
3425.08	218.303
3427.1	215.966
3429.12	201.435
3431.14	206.444
3433.15	209.027
3435.17	214.077
3437.18	214.253
3439.2	214.443
3441.21	209.73
3443.22	195.203
3445.23	202.798
3447.25	203.058
3449.26	195.919
3451.27	198.63
3453.28	206.317
3455.28	196.728
3457.29	202.013
3459.3	194.912
3461.31	202.716
3463.31	203.073
3465.32	205.929
3467.32	186.289
3469.33	184.1
3471.33	186.913
3473.33	194.668
3475.34	210.047
3477.34	195.252
3479.34	182.932
3481.34	195.84
3483.34	193.595
3485.34	193.872
3487.33	194.144
3489.33	189.327
3491.33	204.854
3493.32	205.122
3495.32	205.367
3497.32	182.613
3499.31	187.921
3501.3	200.902
3503.3	180.58
3505.29	208.932
3507.28	193.681
3509.27	196.341
3511.26	181.005
3513.25	193.905
3515.24	178.552
3517.23	194.023
3519.22	191.508
3521.2	194.133
3523.19	183.902
3525.18	176.251
3527.16	189.193
3529.15	189.233
3531.13	176.447
3533.11	192.054
3535.1	184.493
3537.08	189.863
3539.06	190.098
3541.04	179.944
3543.02	177.523
3545	203.614
3546.98	180.415
3548.96	196.13
3550.93	191.039
3552.91	183.253
3554.89	185.912
3556.86	188.603
3558.84	183.505
3560.81	199.25
3562.78	207.214
3564.76	191.73
3566.73	194.521
3568.7	199.983
3570.67	181.868
3572.64	192.532
3574.61	197.992
3576.58	174.602
3578.55	193.237
3580.52	196.143
3582.48	183.251
3584.45	204.651
3586.41	181.154
3588.38	205.256
3590.35	181.684
3592.31	171.323
3594.27	187.531
3596.23	174.485
3598.2	193.402
3600.16	177.621
3602.12	164.475
3604.08	172.714
3606.04	175.596
3608	178.472
3609.95	157.162
3611.91	176.145
3613.87	168.262
3615.83	165.725
3617.78	163.189
3619.74	166.027
3621.69	182.335
3623.64	158.086
3625.6	182.465
3627.55	169.005
3629.5	158.232
3631.45	158.255
3633.4	160.993
3635.35	182.696
3637.3	169.24
3639.25	155.799
3641.2	169.49
3643.15	145.223
3645.09	150.801
3647.04	161.866
3648.98	137.416
3650.93	167.429
3652.87	167.527
3654.82	164.879
3656.76	148.596
3658.7	148.661
3660.64	165.097
3662.58	162.424
3664.53	162.491
3666.47	162.574
3668.4	159.928
3670.34	151.799
3672.28	149.136
3674.22	168.407
3676.16	146.617
3678.09	154.98
3680.03	138.663
3681.96	147.066
3683.9	158.259
3685.83	147.454
3687.76	158.699
3689.69	158.923
3691.63	153.616
3693.56	151.047
3695.49	159.552
3697.42	151.434
3699.35	168.33
3701.28	135.128
3703.2	157.606
3705.13	143.857
3707.06	155.248
3708.98	166.669
3710.91	141.652
3712.83	136.228
3714.76	150.455
3716.68	147.81
3718.6	142.331
3720.53	162.226
3722.45	156.736
3724.37	148.398
3726.29	140.038
3728.21	154.317
3730.13	137.448
3732.05	134.745
3733.97	166.107
3735.88	129.319
3737.8	157.885
3739.72	158.024
3741.63	152.454
3743.55	152.577
3745.46	155.549
3747.38	152.803
3749.29	155.76
3751.2	155.847
3753.11	150.201
3755.02	141.678
3756.93	156.042
3758.84	138.903
3760.75	153.26
3762.66	161.893
3764.57	147.597
3766.48	147.63
3768.39	147.678
3770.29	159.212
3772.2	139.193
3774.1	156.481
3776.01	156.548
3777.91	165.249
3779.81	142.343
3781.72	156.828
3783.62	148.311
3785.52	157.075
3787.42	142.769
3789.32	148.637
3791.22	151.627
3793.12	148.856
3795.02	154.778
3796.92	157.827
3798.81	157.985
3800.71	161.051
3802.61	152.508
3804.5	152.677
3806.4	141.208
3808.29	153.032
3810.18	150.284
3812.08	147.518
3813.97	147.668
3815.86	153.668
3817.75	150.891
3819.64	156.902
3821.53	154.11
3823.42	151.306
3825.31	154.36
3827.2	154.483
3829.09	160.505
3830.97	131.179
3832.86	128.354
3834.75	152.099
3836.63	146.318
3838.52	155.311
3840.4	164.313
3842.28	146.731
3844.17	134.968
3846.05	170.654
3847.93	152.893
3849.81	149.977
3851.69	155.971
3853.57	147.088
3855.45	159.016
3857.33	147.141
3859.21	150.109
3861.08	141.208
3862.96	132.32
3864.84	135.384
3866.71	141.481
3868.59	147.632
3870.46	138.829
3872.34	138.868
3874.21	147.865
3876.08	168.829
3877.95	144.968
3879.82	136.044
3881.69	136.091
3883.56	145.12
3885.44	148.178
3887.3	142.259
3889.17	154.319
3891.04	121.427
3892.91	136.514
3894.77	151.665
3896.64	154.799
3898.51	148.9
3900.37	146.007
3902.23	149.134
3904.1	143.206
3905.96	164.433
3907.82	152.464
3909.69	149.553
3911.55	161.778
3913.41	146.782
3915.27	143.886
3917.13	144.031
3918.99	150.259
3920.84	135.247
3922.7	138.457
3924.56	159.944
3926.42	141.822
3928.27	126.706
3930.13	132.948
3931.98	133.069
3933.84	120.924
3935.69	151.649
3937.54	145.622
3939.4	151.879
3941.25	148.949
3943.1	152.183
3944.95	143.1
3946.8	143.236
3948.65	131.034
3950.5	137.308
3952.35	125.056
3954.19	134.408
3956.04	149.956
3957.89	112.916
3959.73	156.291
3961.58	143.968
3963.42	147.121
3965.27	119.282
3967.11	131.703
3968.96	144.113
3970.8	153.43
3972.64	131.755
3974.48	153.484
3976.32	141.104
3978.16	141.12
3980	138.02
3981.84	141.113
3983.68	134.903
3985.52	138.003
3987.36	141.097
3989.19	141.098
3991.03	125.607
3992.86	144.247
3994.7	113.26
3996.53	141.245
3998.37	150.631
