#Acq. time (s)=	30
#Accumulations=	2
#Range (cm-¹)=	1200...2365
#Windows=	3
#Auto scanning=	Off
#Autofocus=	Off
#Macrospot=	Off
#AutoExposure=	Off
#Spike filter=	Multiple accum.
#Delay time (s)=	2
#Binning=	1
#Readout mode=	Signal
#DeNoise=	Off
#ICS correction=	On
#Dark correction=	Off
#Inst. Process=	Off
#Detector Gain=	Best Dynamic
#Detector ADC=	50 kHz HS
#Detector temperature (°C)=	-60.09
#Instrument=	LabRAM HR Evol
#Detector=	SIN-EM FIVIS
#Objective=	x50_VIS_LWD
#Grating=	1800 (450-850nm)
#ND Filter=	100%
#Laser=	532nm_Edge
#Hole=	100.021
#Temperature=	0
#Range=	Visible
#StageXY=	75x50mm Scan+
#StageZ=	Z motor
#X (µm)=	0
#Y (µm)=	0
#Z (µm)=	2.5
#Full time(mm:ss)=	3:18
#Project=	21_11_26
#Sample=	BU19(2)w
#Site=	
#Title=	BU19(2)w-A-FF2b-FI05-V_1800 (450-850nm)_532nm_Edge_100%_x50_VIS_LWD_H100um_30sX2
#Remark=	
#Date=	26.11.2021 14:50
#Acquired=	26.11.2021 14:50:13
1202.72	100.552
1203	101.773
1203.28	100.728
1203.56	95.2835
1203.84	94.1335
1204.11	98.3884
1204.39	99.4237
1204.67	100.502
1204.95	95.1372
1205.23	96.1925
1205.5	92.9311
1205.78	88.5954
1206.06	97.1414
1206.34	91.7283
1206.61	89.5391
1206.89	92.7118
1207.17	91.5952
1207.45	92.6296
1207.73	93.6756
1208	92.5812
1208.28	88.2833
1208.56	95.7553
1208.84	97.8651
1209.11	96.7676
1209.39	86.0482
1209.67	91.3824
1209.95	82.8245
1210.23	88.1609
1210.5	88.1418
1210.78	91.3089
1211.06	90.2033
1211.34	89.1054
1211.61	86.936
1211.89	85.8419
1212.17	89.0056
1212.45	87.9041
1212.72	93.2077
1213	81.4594
1213.28	83.564
1213.56	83.546
1213.83	84.599
1214.11	82.4507
1214.39	81.3886
1214.67	83.5197
1214.94	80.3255
1215.22	95.2288
1215.5	83.513
1215.78	84.5721
1216.05	87.7573
1216.33	84.541
1216.61	81.3181
1216.89	87.6619
1217.16	85.4998
1217.44	83.3471
1217.72	84.3841
1218	83.2965
1218.27	88.5847
1218.55	85.3791
1218.83	83.2373
1219.1	76.8592
1219.38	80.0358
1219.66	85.332
1219.94	90.6244
1220.21	86.3643
1220.49	86.3603
1220.77	83.1774
1221.04	87.4138
1221.32	84.2223
1221.6	82.0854
1221.88	86.3098
1222.15	77.8051
1222.43	75.6546
1222.71	81.9721
1222.98	85.1049
1223.26	78.716
1223.54	83.9658
1223.81	82.8727
1224.09	86.0121
1224.37	71.1936
1224.65	79.6224
1224.92	83.8288
1225.2	82.7606
1225.48	80.6458
1225.76	88.0443
1226.03	84.8849
1226.31	79.6149
1226.59	83.8327
1226.86	84.8811
1227.14	81.6969
1227.42	83.7925
1227.69	78.4735
1227.97	79.4506
1228.25	83.6142
1228.52	82.5126
1228.8	78.2263
1229.08	75.0127
1229.35	79.2084
1229.63	76.2432
1229.91	79.571
1230.18	85.8222
1230.46	81.5253
1230.74	76.2289
1231.01	82.556
1231.29	86.7169
1231.57	83.3932
1231.84	86.5596
1232.12	73.9468
1232.4	84.4508
1232.67	77.0848
1232.95	84.4361
1233.23	86.5311
1233.5	80.2186
1233.78	85.4674
1234.06	88.6223
1234.33	87.5785
1234.61	80.231
1234.89	79.1906
1235.16	81.3045
1235.44	82.3609
1235.71	86.5721
1235.99	76.068
1236.27	82.3815
1236.54	85.5331
1236.82	82.3673
1237.1	84.4552
1237.37	85.4863
1237.65	84.4056
1237.93	85.4242
1238.2	89.5915
1238.48	85.3602
1238.76	88.4752
1239.03	77.9621
1239.31	81.0929
1239.58	87.3709
1239.86	82.119
1240.14	83.1606
1240.41	87.3493
1240.69	90.4922
1240.97	78.963
1241.24	89.4486
1241.52	80.0158
1241.79	83.1519
1242.07	85.2316
1242.35	78.9331
1242.62	84.1729
1242.9	83.1288
1243.18	83.1392
1243.45	87.3422
1243.73	88.3879
1244	89.4357
1244.28	87.3436
1244.56	92.5829
1244.83	87.3343
1245.11	82.0836
1245.39	94.6397
1245.66	92.5192
1245.94	84.1074
1246.21	94.5476
1246.49	94.533
1246.76	90.3372
1247.04	88.243
1247.32	91.3801
1247.59	87.1845
1247.87	85.0883
1248.14	92.4032
1248.42	96.552
1248.7	98.6237
1248.97	97.5717
1249.25	97.5764
1249.52	86.0765
1249.8	97.5745
1250.08	89.203
1250.35	93.3863
1250.63	88.137
1250.9	95.4307
1251.18	93.3178
1251.45	91.2081
1251.73	95.37
1252.01	97.4413
1252.28	98.4667
1252.56	90.0935
1252.83	94.2514
1253.11	97.3616
1253.39	97.3417
1253.66	92.1133
1253.94	100.46
1254.21	94.2132
1254.49	97.3614
1254.76	97.3813
1255.04	96.3441
1255.31	99.4754
1255.59	103.659
1255.87	104.702
1256.14	104.696
1256.42	107.832
1256.69	117.238
1256.97	128.744
1257.24	131.882
1257.52	138.141
1257.79	134.987
1258.07	134.974
1258.35	122.432
1258.62	124.509
1258.9	119.273
1259.17	123.419
1259.45	131.764
1259.72	138.041
1260	140.148
1260.27	148.56
1260.55	161.05
1260.82	166.229
1261.1	173.473
1261.37	202.64
1261.65	224.511
1261.92	217.238
1262.2	224.739
1262.48	246.988
1262.75	240.865
1263.02	242.559
1263.3	234.963
1263.58	230.683
1263.85	208.989
1264.13	186.168
1264.4	193.661
1264.68	165.513
1264.95	161.226
1265.23	146.553
1265.5	153.868
1265.78	137.132
1266.05	135.016
1266.33	137.104
1266.6	128.753
1266.88	130.859
1267.15	124.611
1267.43	115.229
1267.7	129.9
1267.98	134.121
1268.25	127.885
1268.53	132.128
1268.8	127.986
1269.08	121.725
1269.35	121.743
1269.63	129.092
1269.9	121.749
1270.18	130.101
1270.45	115.399
1270.73	128.984
1271	121.625
1271.28	116.37
1271.55	127.872
1271.83	120.529
1272.1	121.583
1272.38	120.564
1272.65	128.972
1272.93	131.115
1273.2	116.481
1273.47	120.702
1273.75	133.312
1274.03	133.346
1274.3	123.941
1274.57	131.303
1274.85	132.357
1275.12	126.057
1275.4	133.398
1275.67	148.098
1275.95	140.777
1276.22	148.146
1276.5	145.032
1276.77	154.506
1277.05	154.535
1277.32	171.358
1277.6	156.693
1277.87	165.135
1278.14	183.04
1278.42	188.331
1278.69	208.341
1278.97	219.968
1279.24	241.039
1279.52	283.158
1279.79	339.946
1280.07	386.2
1280.34	460.827
1280.61	616.46
1280.89	826.864
1281.16	1088.86
1281.44	1442.66
1281.71	1927.25
1281.99	2419.09
1282.26	2885.34
1282.53	3071.94
1282.81	3074.4
1283.08	2864.41
1283.36	2497.91
1283.63	1998.51
1283.91	1472.36
1284.18	1100.34
1284.45	813.901
1284.73	588.02
1285	466.946
1285.28	364.726
1285.55	327.686
1285.83	281.248
1286.1	251.772
1286.37	232.87
1286.65	196.009
1286.92	192.813
1287.2	182.281
1287.47	174.899
1287.75	166.451
1288.02	159.053
1288.29	148.511
1288.57	149.561
1288.84	144.302
1289.12	146.416
1289.39	148.542
1289.66	133.829
1289.94	139.117
1290.21	129.666
1290.49	143.382
1290.76	124.419
1291.03	120.191
1291.31	126.503
1291.58	113.861
1291.86	126.497
1292.13	121.226
1292.4	119.119
1292.68	124.392
1292.95	119.118
1293.22	123.32
1293.5	119.112
1293.77	118.097
1294.05	110.767
1294.32	108.704
1294.59	113.988
1294.87	111.879
1295.14	122.414
1295.42	113.998
1295.69	109.825
1295.96	106.717
1296.24	106.792
1296.51	112.12
1296.79	113.188
1297.06	113.19
1297.33	108.949
1297.61	105.759
1297.88	103.623
1298.15	103.598
1298.43	100.402
1298.7	107.806
1298.97	102.516
1299.25	97.2183
1299.52	99.3155
1299.79	101.41
1300.07	105.63
1300.34	103.536
1300.62	102.489
1300.89	97.2118
1301.16	94.0387
1301.44	97.2015
1301.71	97.2053
1301.98	91.9405
1302.25	101.46
1302.53	95.1296
1302.8	95.1313
1303.08	89.8474
1303.35	89.8405
1303.62	92.998
1303.9	91.9242
1304.17	103.535
1304.44	92.9768
1304.72	95.0878
1304.99	97.1974
1305.26	91.9054
1305.54	87.6656
1305.81	97.1431
1306.08	93.9548
1306.35	94.9857
1306.63	96.0205
1306.9	92.8471
1307.18	83.3542
1307.45	88.634
1307.72	90.7451
1308	88.6333
1308.27	75.9749
1308.54	89.69
1308.81	89.6836
1309.09	93.9065
1309.36	91.8104
1309.63	84.4366
1309.91	80.2268
1310.18	84.4547
1310.45	86.5621
1310.73	85.5002
1311	88.665
1311.27	88.6677
1311.55	86.5606
1311.82	89.7298
1312.09	81.292
1312.37	86.5835
1312.64	84.4834
1312.91	84.4882
1313.18	89.7628
1313.46	88.6918
1313.73	82.3535
1314	84.4561
1314.28	85.5044
1314.55	77.059
1314.82	80.2292
1315.09	80.2361
1315.37	85.5242
1315.64	82.3655
1315.91	85.5436
1316.18	81.3288
1316.46	85.549
1316.73	83.4302
1317	82.3695
1317.28	85.5343
1317.55	83.4209
1317.82	85.5443
1318.09	81.3263
1318.37	71.8229
1318.64	82.389
1318.91	79.2205
1319.18	78.1632
1319.46	85.5549
1319.73	83.4376
1320	84.4898
1320.28	81.3251
1320.55	81.325
1320.82	82.3759
1321.09	78.1378
1321.37	81.2872
1321.64	86.5416
1321.91	86.5131
1322.18	87.5516
1322.46	80.1413
1322.73	82.2389
1323	84.3355
1323.27	81.1584
1323.55	72.7074
1323.82	83.2587
1324.09	86.4246
1324.36	81.1526
1324.64	82.2034
1324.91	79.0403
1325.18	76.928
1325.45	84.3133
1325.73	75.8567
1326	81.09
1326.27	79.989
1326.54	73.6164
1326.81	82.0105
1327.09	84.1071
1327.36	83.0818
1327.63	85.2417
1327.9	74.7364
1328.18	85.2998
1328.45	77.9522
1328.72	72.7085
1328.99	82.2252
1329.27	76.9566
1329.54	82.2206
1329.81	74.8428
1330.08	78.0035
1330.35	82.2156
1330.63	82.2038
1330.9	80.0784
1331.17	81.1125
1331.44	78.979
1331.71	82.108
1331.99	82.0709
1332.26	74.6715
1332.53	83.0698
1332.8	81.9912
1333.07	77.7543
1333.35	78.7768
1333.62	81.9033
1333.89	81.8772
1334.16	78.7009
1334.43	93.3813
1334.71	74.456
1334.98	84.9338
1335.25	73.3703
1335.52	80.6999
1335.79	76.4871
1336.07	79.6192
1336.34	82.7509
1336.61	77.4944
1336.88	83.7735
1337.15	77.4726
1337.43	79.5605
1337.7	82.6971
1337.97	73.2544
1338.24	80.5695
1338.51	84.7399
1338.78	83.6789
1339.06	69.0027
1339.33	75.2767
1339.6	79.4616
1339.87	86.7933
1340.14	79.4667
1340.42	80.5144
1340.69	81.5636
1340.96	77.376
1341.23	74.2314
1341.5	76.3214
1341.77	81.5505
1342.04	81.5402
1342.32	84.6665
1342.59	75.2272
1342.86	87.7624
1343.13	81.4617
1343.4	75.1734
1343.67	80.3959
1343.95	81.4379
1344.22	84.5735
1344.49	81.4363
1344.76	80.3893
1345.03	86.6553
1345.3	78.2752
1345.58	71.9841
1345.85	79.2754
1346.12	79.2541
1346.39	76.0927
1346.66	75.0096
1346.93	84.3764
1347.2	78.0903
1347.47	83.2794
1347.75	76.9991
1348.02	83.2385
1348.29	76.9726
1348.56	84.2604
1348.83	82.1687
1349.1	76.9445
1349.37	82.138
1349.65	77.9542
1349.92	77.9387
1350.19	78.9646
1350.46	74.7852
1350.73	78.9337
1351	82.035
1351.27	79.9322
1351.54	86.159
1351.81	78.8562
1352.09	87.1677
1352.36	81.9659
1352.63	78.8544
1352.9	83.031
1353.17	86.1768
1353.44	83.0674
1353.71	85.22
1353.98	81.1284
1354.25	93.549
1354.53	84.0475
1354.8	81.8821
1355.07	80.851
1355.34	85.0131
1355.61	80.827
1355.88	82.8881
1356.15	90.1877
1356.42	86.0376
1356.69	77.7075
1356.96	83.9308
1357.24	89.1153
1357.51	92.2208
1357.78	93.246
1358.05	96.3448
1358.32	90.0988
1358.59	86.9678
1358.86	89.0271
1359.13	94.1951
1359.4	94.1757
1359.67	85.864
1359.94	93.1107
1360.22	87.9018
1360.49	85.8016
1360.76	97.1738
1361.03	90.9388
1361.3	98.1813
1361.57	92.9993
1361.84	90.923
1362.11	94.0238
1362.38	95.047
1362.65	91.9291
1362.92	103.309
1363.19	104.339
1363.46	104.345
1363.73	108.504
1364	108.516
1364.28	103.349
1364.55	116.813
1364.82	101.267
1365.09	106.434
1365.36	101.236
1365.63	103.283
1365.9	100.152
1366.17	106.337
1366.44	105.277
1366.71	102.148
1366.98	103.151
1367.25	97.9462
1367.52	108.265
1367.79	121.688
1368.06	125.837
1368.33	150.653
1368.6	226.122
1368.87	251.98
1369.15	235.452
1369.41	177.571
1369.68	153.8
1369.95	126.9
1370.23	116.546
1370.5	116.532
1370.77	102.033
1371.04	115.451
1371.31	113.362
1371.58	107.133
1371.85	107.096
1372.12	114.277
1372.39	118.358
1372.66	104.909
1372.93	115.19
1373.2	121.354
1373.47	124.429
1373.74	117.199
1374.01	125.429
1374.28	127.478
1374.55	124.377
1374.82	123.337
1375.09	131.568
1375.36	120.22
1375.63	123.314
1375.9	127.449
1376.17	133.626
1376.44	131.572
1376.71	136.687
1376.98	125.325
1377.25	140.723
1377.52	136.548
1377.79	147.884
1378.06	141.745
1378.33	129.443
1378.6	141.869
1378.87	148.131
1379.14	153.31
1379.41	158.458
1379.68	166.683
1379.95	176.966
1380.22	165.592
1380.49	173.761
1380.76	178.766
1381.03	194.114
1381.3	191.983
1381.57	198.185
1381.84	217.671
1382.11	234.014
1382.38	250.333
1382.65	263.577
1382.92	282.984
1383.19	298.267
1383.46	336.138
1383.73	386.29
1384	469.275
1384.27	544.049
1384.54	680.425
1384.81	845.563
1385.08	1146.2
1385.34	1561.96
1385.61	2301.44
1385.88	3414.76
1386.15	4951.47
1386.42	6481.11
1386.69	7108.94
1386.96	6477.92
1387.23	5031.62
1387.5	3344.45
1387.77	2122.11
1388.04	1427.23
1388.31	937.87
1388.58	715.902
1388.85	567.386
1389.12	462.39
1389.39	394.917
1389.66	335.394
1389.93	285.114
1390.2	263.46
1390.46	247.868
1390.73	236.497
1391	208.803
1391.27	195.392
1391.54	196.4
1391.81	186.133
1392.08	176.869
1392.35	164.531
1392.62	175.757
1392.89	158.321
1393.16	163.417
1393.43	157.255
1393.7	152.121
1393.97	148.012
1394.23	141.859
1394.5	145.941
1394.77	133.652
1395.04	137.738
1395.31	131.613
1395.58	118.328
1395.85	128.577
1396.12	120.394
1396.39	123.46
1396.66	134.707
1396.93	132.643
1397.2	122.392
1397.46	122.368
1397.73	115.184
1398	120.286
1398.27	119.261
1398.54	125.406
1398.81	116.212
1399.08	121.335
1399.35	115.202
1399.62	118.29
1399.89	119.326
1400.16	126.501
1400.42	125.475
1400.69	125.492
1400.96	116.307
1401.23	116.32
1401.5	121.435
1401.77	114.279
1402.04	123.495
1402.31	126.609
1402.58	126.68
1402.84	121.628
1403.11	125.786
1403.38	130.958
1403.65	139.19
1403.92	138.164
1404.19	138.135
1404.46	148.315
1404.73	144.232
1404.99	150.374
1405.26	163.691
1405.53	168.789
1405.8	177.986
1406.07	199.485
1406.34	207.653
1406.61	218.906
1406.87	249.636
1407.14	265.022
1407.41	300.917
1407.68	326.572
1407.95	360.423
1408.22	345.065
1408.49	354.313
1408.76	355.359
1409.02	313.341
1409.29	264.141
1409.56	225.187
1409.83	201.612
1410.1	180.081
1410.37	152.383
1410.63	146.199
1410.9	132.828
1411.17	127.661
1411.44	112.259
1411.71	116.337
1411.98	109.149
1412.25	102.998
1412.51	100.962
1412.78	97.9156
1413.05	91.823
1413.32	87.8253
1413.59	89.9331
1413.86	88.8362
1414.12	89.743
1414.39	86.6856
1414.66	81.612
1414.93	89.8628
1415.2	83.6963
1415.47	80.6184
1415.73	80.6179
1416	76.5126
1416.27	77.5449
1416.54	81.6587
1416.81	74.4769
1417.07	75.5109
1417.34	70.3829
1417.61	74.4999
1417.88	73.4795
1418.15	69.3727
1418.42	73.4834
1418.68	70.4028
1418.95	82.7373
1419.22	75.5437
1419.49	73.4889
1419.76	71.4249
1420.02	74.4928
1420.29	72.4225
1420.56	63.1646
1420.83	70.3385
1421.1	77.5087
1421.36	73.3877
1421.63	70.3011
1421.9	73.3836
1422.17	64.162
1422.44	72.3993
1422.7	74.4778
1422.97	68.3496
1423.24	68.4078
1423.51	67.4381
1423.77	72.4132
1424.04	70.2093
1424.31	75.355
1424.58	65.0359
1424.85	68.1091
1425.11	74.2769
1425.38	56.8937
1425.65	70.2339
1425.92	57.9167
1426.19	72.2984
1426.45	59.9823
1426.72	68.1758
1426.99	66.1064
1427.26	63.0118
1427.52	64.0172
1427.79	69.1119
1428.06	66.0159
1428.33	68.0521
1428.59	64.9752
1428.86	61.9035
1429.13	57.8105
1429.4	54.7423
1429.67	60.8927
1429.93	60.9014
1430.2	61.9382
1430.47	57.8546
1430.74	61.9664
1431	61.9845
1431.27	52.7787
1431.54	57.927
1431.81	61.0153
1432.07	62.041
1432.34	51.7666
1432.61	56.8831
1432.87	55.8476
1433.14	56.855
1433.41	57.8576
1433.68	55.7825
1433.95	57.8078
1434.21	58.8167
1434.48	53.6899
1434.75	55.7631
1435.01	56.7987
1435.28	49.6271
1435.55	60.8985
1435.82	56.7973
1436.08	55.769
1436.35	55.7645
1436.62	55.7596
1436.89	55.7534
1437.15	55.747
1437.42	52.6683
1437.69	52.6659
1437.95	54.7073
1438.22	50.6071
1438.49	51.6328
1438.76	57.7859
1439.02	53.6926
1439.29	53.6934
1439.56	54.7199
1439.82	56.7769
1440.09	43.4649
1440.36	51.6781
1440.63	52.7091
1440.89	55.7877
1441.16	52.7113
1441.43	48.6113
1441.69	50.6574
1441.96	52.6984
1442.23	51.6676
1442.49	54.7536
1442.76	52.7032
1443.03	52.713
1443.3	47.5776
1443.56	48.5936
1443.83	47.5604
1444.1	47.5545
1444.36	49.6019
1444.63	50.6292
1444.9	51.6684
1445.16	53.7317
1445.43	48.6179
1445.7	56.8205
1445.97	48.6071
1446.23	46.5503
1446.5	51.6739
1446.77	52.6946
1447.03	51.6639
1447.3	49.6078
1447.57	53.7033
1447.83	51.6449
1448.1	47.5379
1448.37	49.5869
1448.63	46.5186
1448.9	51.6562
1449.17	49.6071
1449.43	46.5284
1449.7	44.4722
1449.97	46.5162
1450.23	47.5327
1450.5	48.5489
1450.77	54.694
1451.03	47.5138
1451.3	49.5587
1451.57	51.6031
1451.83	49.5473
1452.1	48.5168
1452.37	48.5119
1452.63	44.4108
1452.9	52.6066
1453.17	43.3869
1453.43	46.465
1453.7	55.6918
1453.97	48.5175
1454.23	49.5378
1454.5	51.5834
1454.77	45.4341
1455.03	49.532
1455.3	39.2825
1455.56	42.3527
1455.83	45.4265
1456.1	44.4086
1456.36	45.4368
1456.63	41.3359
1456.9	48.5053
1457.16	50.5453
1457.43	44.3888
1457.7	47.4577
1457.96	45.4047
1458.23	42.3287
1458.49	47.4498
1458.76	47.4499
1459.03	44.3781
1459.29	48.4773
1459.56	42.3306
1459.82	45.4042
1460.09	43.3523
1460.36	45.3973
1460.62	40.2708
1460.89	43.3393
1461.16	48.4547
1461.42	38.206
1461.69	51.5118
1461.95	44.3362
1462.22	44.3275
1462.49	43.2947
1462.75	42.2614
1463.02	43.274
1463.28	42.2399
1463.55	43.2511
1463.82	45.2855
1464.08	43.238
1464.35	48.3642
1464.61	42.2468
1464.88	45.3317
1465.15	44.3282
1465.41	43.2692
1465.68	41.1452
1465.94	42.1303
1466.21	45.1864
1466.48	42.1371
1466.74	40.0905
1467.01	39.0511
1467.27	40.0647
1467.54	34.9664
1467.8	44.1445
1468.07	39.0396
1468.34	43.117
1468.6	44.1351
1468.87	38.0128
1469.13	38.0094
1469.4	43.1037
1469.67	45.1368
1469.93	39.0094
1470.2	40.0182
1470.46	36.9518
1470.73	38.9835
1470.99	39.9965
1471.26	39.9924
1471.53	41.0043
1471.79	40.9949
1472.06	43.0247
1472.32	42.0021
1472.59	43.0176
1472.85	33.8511
1473.12	44.0309
1473.39	38.9358
1473.65	39.9468
1473.92	39.9395
1474.18	38.9157
1474.45	41.9646
1474.71	45.0163
1474.98	38.9128
1475.24	41.9677
1475.51	36.8779
1475.78	41.9646
1476.04	41.9595
1476.31	39.9174
1476.57	36.8598
1476.84	40.9249
1477.1	41.9343
1477.37	45.9944
1477.63	39.8874
1477.9	40.9017
1478.16	43.9503
1478.43	41.9103
1478.69	40.8841
1478.96	37.8273
1479.22	37.8204
1479.49	37.8126
1479.76	37.8041
1480.02	38.8103
1480.29	36.7697
1480.55	36.7549
1480.82	34.713
1481.08	40.7931
1481.35	42.8174
1481.61	39.7653
1481.88	37.7388
1482.14	40.7879
1482.41	41.8092
1482.67	35.7262
1482.94	32.6849
1483.2	39.7905
1483.47	37.7635
1483.73	39.7958
1484	38.7793
1484.26	40.8076
1484.53	41.8046
1484.79	41.7796
1485.06	35.6524
1485.32	36.6138
1485.59	38.6175
1485.85	37.5749
1486.12	36.6499
1486.38	44.7665
1486.65	40.7275
1486.91	37.644
1487.18	42.7288
1487.44	40.7074
1487.71	39.6808
1487.97	37.6445
1488.24	39.6634
1488.5	39.6556
1488.77	38.6331
1489.03	36.598
1489.3	34.566
1489.56	40.6317
1489.83	41.6387
1490.09	41.6345
1490.36	39.6097
1490.62	35.5613
1490.89	39.6018
1491.15	40.6038
1491.42	38.5721
1491.68	34.523
1491.95	37.5532
1492.21	37.5518
1492.48	34.5191
1492.74	38.5608
1493	39.5685
1493.27	33.5003
1493.53	40.5755
1493.8	43.604
1494.06	36.5253
1494.33	32.4812
1494.59	34.504
1494.86	38.5497
1495.12	38.547
1495.39	37.5286
1495.65	38.5266
1495.92	38.5111
1496.18	32.4393
1496.45	37.4804
1496.71	37.4739
1496.97	37.4679
1497.24	36.4521
1497.5	36.4506
1497.77	44.5232
1498.03	32.4087
1498.3	39.4711
1498.56	37.4518
1498.82	33.4145
1499.09	35.433
1499.35	39.4706
1499.62	34.4251
1499.88	37.4554
1500.15	38.467
1500.41	35.4385
1500.68	38.4657
1500.94	38.4631
1501.2	40.4797
1501.47	41.4835
1501.73	36.4279
1502	34.406
1502.26	39.4494
1502.52	33.392
1502.79	42.4685
1503.05	39.4317
1503.32	39.4224
1503.58	35.3825
1503.85	37.3914
1504.11	35.3734
1504.37	40.4176
1504.64	37.3929
1504.9	43.4427
1505.17	39.4058
1505.43	37.3838
1505.7	37.3767
1505.96	36.3568
1506.22	37.3498
1506.49	39.3608
1506.75	38.3509
1507.02	39.3588
1507.28	33.3178
1507.54	40.3715
1507.81	37.349
1508.07	39.3628
1508.34	34.3207
1508.6	34.3175
1508.86	37.3398
1509.13	41.3705
1509.39	40.3623
1509.66	38.3452
1509.92	38.3438
1510.18	38.3469
1510.45	39.356
1510.71	37.3318
1510.98	34.3009
1511.24	36.3058
1511.5	37.3011
1511.77	38.2909
1512.03	41.2871
1512.29	37.2418
1512.56	39.2316
1512.82	36.1997
1513.08	37.1931
1513.35	37.1831
1513.61	35.1666
1513.88	38.1739
1514.14	36.1738
1514.4	37.1914
1514.67	37.1939
1514.93	39.1972
1515.2	38.1826
1515.46	35.159
1515.72	34.1449
1515.99	37.1431
1516.25	41.1428
1516.51	37.1211
1516.78	35.1106
1517.04	35.1064
1517.3	37.1081
1517.57	33.0953
1517.83	38.1079
1518.09	33.0959
1518.36	39.1183
1518.62	38.1163
1518.88	33.1028
1519.15	37.1159
1519.41	36.1149
1519.67	36.1166
1519.94	36.1172
1520.2	35.1118
1520.47	41.1265
1520.73	32.0942
1520.99	33.098
1521.26	37.1133
1521.52	36.1122
1521.78	35.1089
1522.05	34.1028
1522.31	32.0918
1522.57	36.0996
1522.84	39.1031
1523.1	39.0977
1523.36	36.0814
1523.62	36.069
1523.89	36.053
1524.15	33.0363
1524.41	36.0328
1524.68	34.0221
1524.94	33.0141
1525.2	33.0167
1525.47	35.0201
1525.73	37.0232
1525.99	36.0259
1526.26	37.0335
1526.52	36.0403
1526.78	32.0375
1527.05	38.0533
1527.31	33.0393
1527.57	34.0354
1527.84	35.0341
1528.1	40.0402
1528.36	37.0296
1528.63	34.0181
1528.89	33.0113
1529.15	35.0104
1529.41	34.0057
1529.68	37.0087
1529.94	36.0034
1530.2	36.9976
1530.47	35.9933
1530.73	32.9911
1530.99	35.0002
1531.25	38.012
1531.52	36.0127
1531.78	35.0103
1532.04	32.0007
1532.31	35.0064
1532.57	28.9891
1532.83	35.0034
1533.09	34.0096
1533.36	35.0236
1533.62	35.0337
1533.88	41.0561
1534.15	37.0456
1534.41	36.0409
1534.67	34.0314
1534.94	36.0334
1535.2	38.0341
1535.46	36.0237
1535.72	36.0154
1535.99	40.0042
1536.25	38.9886
1536.51	36.9751
1536.77	35.9594
1537.04	35.9443
1537.3	36.9315
1537.56	33.9236
1537.82	36.9149
1538.09	35.9138
1538.35	34.905
1538.61	35.8921
1538.87	39.8857
1539.14	35.8823
1539.4	35.8912
1539.66	33.9104
1539.92	30.9316
1540.19	35.9547
1540.45	37.9732
1540.71	32.9768
1540.97	33.9877
1541.24	31.9847
1541.5	34.977
1541.76	36.9788
1542.02	41.9777
1542.29	34.9526
1542.55	30.9358
1542.81	31.9279
1543.07	42.9316
1543.34	34.913
1543.6	33.9021
1543.86	35.8902
1544.12	33.8763
1544.39	32.8765
1544.65	31.8772
1544.91	32.8833
1545.17	37.8956
1545.43	37.903
1545.7	34.9136
1545.96	31.9158
1546.22	33.9221
1546.48	34.9265
1546.74	30.9164
1547.01	33.9219
1547.27	33.9246
1547.53	36.9335
1547.79	35.9343
1548.06	33.9212
1548.32	33.9017
1548.58	36.9043
1548.84	31.8982
1549.1	34.9118
1549.37	35.8779
1549.63	31.8393
1549.89	30.8312
1550.15	36.8484
1550.42	38.8892
1550.68	37.9461
1550.94	33.9731
1551.2	36.0156
1551.46	40.0053
1551.73	37.9999
1551.99	28.9556
1552.25	38.9808
1552.51	38.9976
1552.77	37.004
1553.03	34.9891
1553.3	36.9855
1553.56	36.9564
1553.82	36.949
1554.08	35.9415
1554.34	36.9356
1554.61	40.9338
1554.87	34.9048
1555.13	42.906
1555.39	41.8974
1555.65	36.8847
1555.91	37.8849
1556.18	35.8826
1556.44	37.8853
1556.7	34.8732
1556.96	33.8707
1557.22	37.8786
1557.48	32.8708
1557.75	33.8719
1558.01	34.8705
1558.27	38.8688
1558.53	35.8511
1558.79	35.8406
1559.06	38.8287
1559.32	35.8141
1559.58	35.8029
1559.84	33.7938
1560.1	35.7858
1560.36	31.7809
1560.63	34.7746
1560.89	30.7729
1561.15	37.765
1561.41	33.7661
1561.67	35.7661
1561.93	32.7729
1562.19	33.7809
1562.46	31.7898
1562.72	30.7887
1562.98	35.7864
1563.24	33.7821
1563.5	33.7825
1563.76	32.7779
1564.02	36.7742
1564.29	36.7864
1564.55	34.7986
1564.81	34.8019
1565.07	39.8017
1565.33	34.7765
1565.59	35.7101
1565.85	30.6389
1566.11	35.571
1566.38	34.7232
1566.64	34.7655
1566.9	31.7471
1567.16	29.7262
1567.42	37.7478
1567.68	36.7807
1567.94	34.77
1568.2	34.7433
1568.47	32.7469
1568.73	31.7506
1568.99	34.7516
1569.25	33.747
1569.51	37.7308
1569.77	33.7239
1570.03	36.7208
1570.29	34.7238
1570.55	33.724
1570.82	35.722
1571.08	36.7194
1571.34	33.7184
1571.6	37.711
1571.86	32.708
1572.12	31.7018
1572.38	39.6906
1572.64	37.6866
1572.9	36.6792
1573.17	32.6785
1573.43	34.669
1573.69	30.6692
1573.95	35.6534
1574.21	33.6569
1574.47	33.662
1574.73	34.6672
1574.99	36.6719
1575.25	34.6825
1575.51	34.6899
1575.78	40.6912
1576.04	29.6988
1576.3	33.6925
1576.56	33.6905
1576.82	36.6828
1577.08	35.6707
1577.34	32.6596
1577.6	36.6386
1577.86	38.6196
1578.12	33.6183
1578.38	33.6065
1578.64	36.5897
1578.9	38.5801
1579.17	32.5968
1579.43	31.5983
1579.69	32.5943
1579.95	32.5949
1580.21	32.5986
1580.47	36.5886
1580.73	32.5992
1580.99	31.5993
1581.25	35.5825
1581.51	35.5753
1581.77	35.5691
1582.03	34.5638
1582.29	32.5621
1582.55	34.5508
1582.81	33.5508
1583.07	33.5468
1583.33	37.5278
1583.59	35.5332
1583.85	37.523
1584.11	31.5422
1584.38	34.5287
1584.64	34.5305
1584.9	32.5394
1585.16	33.5357
1585.42	30.5457
1585.68	36.519
1585.94	32.5326
1586.2	32.528
1586.46	35.5059
1586.72	38.4819
1586.98	35.4875
1587.24	32.4958
1587.5	36.4711
1587.76	34.4766
1588.02	39.4481
1588.28	37.4573
1588.54	36.4641
1588.8	34.4769
1589.06	37.4667
1589.32	35.4794
1589.58	32.4963
1589.84	34.4894
1590.1	36.4806
1590.36	34.488
1590.62	33.4939
1590.88	32.5008
1591.14	32.5027
1591.4	33.4963
1591.66	35.4865
1591.92	36.4786
1592.18	37.469
1592.44	33.4771
1592.7	33.4647
1592.96	39.4249
1593.22	38.4225
1593.48	33.4344
1593.74	34.4132
1594	36.3843
1594.26	32.3997
1594.52	33.3871
1594.78	36.3655
1595.04	33.3886
1595.3	34.3879
1595.56	36.3788
1595.82	34.3902
1596.08	37.3523
1596.34	33.3772
1596.6	35.3623
1596.86	34.3681
1597.12	40.3277
1597.38	37.3494
1597.64	32.3844
1597.9	34.373
1598.16	34.3708
1598.42	40.3264
1598.68	32.3719
1598.94	36.3332
1599.2	36.3226
1599.46	31.3517
1599.72	31.3448
1599.98	36.2988
1600.24	34.307
1600.5	35.2917
1600.76	38.2582
1601.02	32.2986
1601.28	34.269
1601.54	39.2097
1601.8	30.281
1602.06	35.2221
1602.32	33.2331
1602.58	38.174
1602.84	36.185
1603.1	34.1958
1603.36	35.1757
1603.62	31.2117
1603.88	30.2174
1604.14	33.1797
1604.4	30.2114
1604.66	34.1656
1604.92	33.1766
1605.17	33.1756
1605.43	35.1527
1605.69	40.0969
1605.95	40.099
1606.21	31.2013
1606.47	36.15
1606.73	31.2073
1606.99	33.1882
1607.25	36.1615
1607.51	35.1784
1607.77	35.1136
1608.03	36.9563
1608.29	33.2359
1608.55	40.8182
1608.81	35.0903
1609.07	35.2982
1609.32	35.1985
1609.58	37.1542
1609.84	36.8252
1610.1	37.9003
1610.36	32.1623
1610.62	37.9844
1610.88	31.0782
1611.14	36.4028
1611.4	33.4367
1611.66	34.4075
1611.92	35.9133
1612.18	34.3241
1612.44	32.3213
1612.69	33.9001
1612.95	36.1714
1613.21	37.4617
1613.47	36.4149
1613.73	33.5374
1613.99	34.798
1614.25	37.1797
1614.51	36.304
1614.77	36.823
1615.03	32.0542
1615.29	35.8223
1615.54	38.1572
1615.8	33.0318
1616.06	35.8946
1616.32	37.4738
1616.58	35.8272
1616.84	36.2271
1617.1	34.3713
1617.36	34.0316
1617.62	33.0361
1617.88	36.5685
1618.13	35.1787
1618.39	35.7981
1618.65	35.0899
1618.91	36.2206
1619.17	35.6797
1619.43	35.5892
1619.69	34.6603
1619.95	35.664
1620.2	34.7012
1620.46	36.4741
1620.72	34.6239
1620.98	34.2778
1621.24	35.7568
1621.5	36.6983
1621.76	36.512
1622.02	33.1649
1622.27	33.7446
1622.53	36.6275
1622.79	35.6564
1623.05	33.7866
1623.31	36.2123
1623.57	37.8829
1623.83	37.1826
1624.09	34.1111
1624.34	36.4227
1624.6	38.4085
1624.86	36.7765
1625.12	35.0649
1625.38	35.1272
1625.64	35.4205
1625.9	35.5806
1626.15	36.7933
1626.41	38.734
1626.67	37.6362
1626.93	36.5118
1627.19	36.7145
1627.45	34.9346
1627.7	36.5483
1627.96	37.6809
1628.22	34.1559
1628.48	36.8873
1628.74	40.4082
1629	35.5048
1629.26	35.1467
1629.51	39.1442
1629.77	36.1403
1630.03	37.3094
1630.29	37.0982
1630.55	37.2282
1630.81	34.2411
1631.06	35.7522
1631.32	36.8791
1631.53	38.4546
1631.79	35.5034
1632.05	35.5084
1632.31	38.4695
1632.57	31.5677
1632.84	36.5036
1633.1	37.5064
1633.36	35.5199
1633.62	34.5153
1633.88	37.4659
1634.14	37.4696
1634.4	38.4596
1634.66	37.4744
1634.93	35.5025
1635.19	36.4862
1635.45	33.5264
1635.71	36.4798
1635.97	36.4754
1636.23	34.4994
1636.49	36.4644
1636.75	36.4585
1637.02	38.4223
1637.28	33.4904
1637.54	35.4524
1637.8	35.4477
1638.06	39.3834
1638.32	37.4094
1638.58	35.4354
1638.84	33.4626
1639.1	31.4928
1639.37	36.4132
1639.63	36.4114
1639.89	32.4723
1640.15	37.3919
1640.41	38.3734
1640.67	35.4201
1640.93	32.4716
1641.19	31.4897
1641.46	39.3672
1641.72	38.3784
1641.98	36.4037
1642.24	35.4153
1642.5	35.412
1642.76	37.3778
1643.02	35.406
1643.28	33.4347
1643.54	35.401
1643.8	33.4301
1644.06	35.3943
1644.33	39.3254
1644.59	38.334
1644.85	34.3923
1645.11	37.3411
1645.37	33.407
1645.63	37.3458
1645.89	38.3312
1646.15	36.3621
1646.41	35.373
1646.67	37.3352
1646.93	32.4109
1647.19	40.2771
1647.46	33.3863
1647.72	36.3318
1647.98	35.3436
1648.24	40.2584
1648.5	40.2585
1648.76	35.3458
1649.02	40.2701
1649.28	34.3825
1649.54	35.3722
1649.8	34.3825
1650.06	34.3772
1650.32	36.3442
1650.58	35.3686
1650.85	36.3603
1651.11	37.3505
1651.37	37.3561
1651.63	40.3155
1651.89	33.4181
1652.15	39.3295
1652.41	35.3863
1652.67	33.4152
1652.93	36.3667
1653.19	35.3756
1653.45	33.4018
1653.71	32.4152
1653.97	34.3857
1654.23	35.373
1654.49	39.3157
1654.75	34.3882
1655.01	36.3602
1655.27	37.349
1655.53	34.3971
1655.8	35.3916
1656.06	34.4159
1656.32	37.383
1656.57	40.3483
1656.84	36.402
1657.1	35.4151
1657.36	38.374
1657.62	33.4341
1657.88	37.3767
1658.14	30.4648
1658.4	38.3554
1658.66	37.3632
1658.92	34.3969
1659.18	35.3769
1659.44	34.384
1659.7	32.4054
1659.96	32.3992
1660.22	32.3908
1660.48	35.3494
1660.74	33.3805
1661	36.3424
1661.26	40.2925
1661.52	33.393
1661.78	34.3849
1662.04	38.3335
1662.3	37.348
1662.56	35.3413
1662.82	33.4293
1663.08	41.3732
1663.34	33.4424
1663.6	38.3785
1663.86	37.3794
1664.12	32.3728
1664.38	37.3397
1664.64	32.4109
1664.9	39.3237
1665.16	38.3537
1665.42	33.4195
1665.68	39.3047
1665.94	38.2812
1666.2	33.4331
1666.46	37.3941
1666.72	35.4113
1666.98	36.3488
1667.24	38.2053
1667.5	32.3911
1667.76	36.3307
1668.02	37.3101
1668.28	39.2783
1668.54	37.2973
1668.8	34.3369
1669.06	36.3247
1669.32	38.3186
1669.58	32.3949
1669.84	35.3573
1670.1	35.3571
1670.36	37.3274
1670.62	35.3506
1670.88	40.3081
1671.14	34.3885
1671.4	32.4067
1671.66	36.3562
1671.92	36.3532
1672.18	29.4345
1672.44	33.3894
1672.69	38.3316
1672.95	35.3644
1673.21	39.3168
1673.47	38.3279
1673.73	36.3508
1673.99	35.3631
1674.25	37.3428
1674.51	33.3907
1674.77	34.3822
1675.03	39.331
1675.29	39.3368
1675.55	33.4041
1675.81	37.364
1676.07	36.3734
1676.33	32.4128
1676.59	34.3917
1676.85	34.392
1677.11	39.3402
1677.37	34.3894
1677.63	35.3757
1677.89	32.4023
1678.14	33.3857
1678.4	37.335
1678.66	38.3146
1678.92	35.3397
1679.18	38.2996
1679.44	36.3162
1679.7	35.3232
1679.96	35.3182
1680.22	35.3131
1680.48	33.3325
1680.74	39.2566
1681	35.2989
1681.26	33.3183
1681.52	36.279
1681.78	31.3373
1682.03	32.3234
1682.29	35.2856
1682.55	35.2843
1682.81	38.2474
1683.07	35.2806
1683.33	33.3023
1683.59	35.2761
1683.85	36.2624
1684.11	34.2842
1684.37	32.305
1684.63	31.311
1684.89	36.2447
1685.14	36.2413
1685.4	37.2261
1685.66	36.2364
1685.92	33.2723
1686.18	36.2334
1686.44	35.2452
1686.7	36.2341
1686.96	33.2765
1687.22	37.2298
1687.48	33.2775
1687.73	35.2492
1687.99	32.2804
1688.25	32.2753
1688.51	33.2583
1688.77	32.2658
1689.03	33.2469
1689.29	37.1867
1689.55	35.2052
1689.81	33.2242
1690.06	39.1354
1690.32	37.1526
1690.58	35.1763
1690.84	33.2098
1691.1	35.1857
1691.36	31.2404
1691.62	39.1345
1691.88	36.1765
1692.13	35.1912
1692.39	30.2549
1692.65	38.1469
1692.91	34.1929
1693.17	38.1312
1693.43	31.2168
1693.69	34.1653
1693.95	37.111
1694.2	37.1022
1694.46	37.0935
1694.72	35.114
1694.98	35.1074
1695.24	33.1353
1695.5	34.1208
1695.76	35.1062
1696.01	37.0771
1696.27	34.1222
1696.53	36.0961
1696.79	40.04
1697.05	34.1251
1697.31	34.1204
1697.57	35.0979
1697.82	33.1176
1698.08	37.0463
1698.34	35.0681
1698.6	35.0606
1698.86	34.0692
1699.12	36.0312
1699.38	37.0111
1699.63	35.0407
1699.89	34.057
1700.15	34.0558
1700.41	32.0867
1700.67	36.9987
1700.92	32.0765
1701.18	33.0573
1701.44	33.0539
1701.7	35.0167
1701.96	38.9434
1702.22	37.951
1702.47	38.9258
1702.73	34.9851
1702.99	33.9946
1703.25	37.9217
1703.51	34.9712
1703.77	38.8977
1704.02	34.9626
1704.28	37.9062
1704.54	36.9256
1704.8	32.9983
1705.06	35.9458
1705.32	33.9773
1705.57	37.9039
1705.83	34.9546
1706.09	37.9008
1706.35	36.911
1706.61	32.9729
1706.86	32.9637
1707.12	31.9723
1707.38	39.8149
1707.64	34.8985
1707.9	30.9638
1708.16	35.8561
1708.41	39.7649
1708.67	39.751
1708.93	38.7554
1709.19	32.8652
1709.44	32.8562
1709.7	37.745
1709.96	32.8461
1710.22	37.7386
1710.48	33.822
1710.73	37.7374
1710.99	35.7808
1711.25	41.6598
1711.51	35.7862
1711.77	34.8084
1712.02	36.7683
1712.28	36.7673
1712.54	31.8648
1712.8	36.7501
1713.06	37.7124
1713.31	38.6732
1713.57	35.7228
1713.83	33.7534
1714.09	32.7622
1714.34	37.6397
1714.6	34.7029
1714.86	34.6981
1715.12	37.6247
1715.38	34.6924
1715.63	35.6735
1715.89	35.6797
1716.15	38.6091
1716.41	38.6044
1716.66	30.7825
1716.92	42.4943
1717.18	32.7171
1717.44	37.5844
1717.69	38.5429
1717.95	37.5474
1718.21	41.4285
1718.47	38.4883
1718.72	38.4742
1718.98	38.4643
1719.24	35.537
1719.5	36.5084
1719.75	36.5064
1720.01	32.6085
1720.27	34.5565
1720.53	33.5827
1720.78	34.5515
1721.04	38.4374
1721.3	32.5867
1721.56	36.4701
1721.81	35.4886
1722.07	37.4241
1722.33	36.4411
1722.59	37.4023
1722.84	39.335
1723.1	36.4096
1723.36	38.343
1723.62	35.4214
1723.87	35.4158
1724.13	37.3559
1724.39	37.3513
1724.64	35.406
1724.9	38.311
1725.16	32.4765
1725.42	35.3728
1725.67	42.1473
1725.93	38.2523
1726.19	42.1182
1726.45	37.2663
1726.7	37.2675
1726.96	34.356
1727.22	38.225
1727.47	37.2415
1727.73	37.239
1727.99	34.3399
1728.24	38.211
1728.5	33.3604
1728.76	36.251
1729.02	37.167
1729.27	35.1783
1729.53	41.9106
1729.79	34.2101
1730.05	35.1919
1730.3	37.1364
1730.56	36.1468
1730.82	36.1356
1731.07	44.8181
1731.33	39.0684
1731.59	36.1701
1731.84	37.1357
1732.1	37.1333
1732.36	35.1968
1732.61	36.1581
1732.87	41.9498
1733.13	40.976
1733.39	35.1708
1733.64	36.1242
1733.9	36.1086
1734.16	42.8454
1734.41	42.831
1734.67	40.8878
1734.93	37.0179
1735.18	37.0044
1735.44	38.9177
1735.7	35.0535
1735.95	40.8212
1736.21	36.9631
1736.47	39.8457
1736.72	35.9905
1736.98	34.0596
1737.24	36.94
1737.49	36.9331
1737.75	39.8123
1738.01	43.6528
1738.26	38.8357
1738.52	39.7874
1738.78	36.894
1739.03	35.9239
1739.29	38.7961
1739.55	33.9811
1739.8	36.8473
1740.06	42.5874
1740.32	36.8123
1740.57	32.9614
1740.83	36.7841
1741.09	42.5238
1741.34	37.7221
1741.6	32.9226
1741.86	37.7031
1742.11	34.8226
1742.37	41.5198
1742.63	36.7288
1742.88	40.5537
1743.14	35.7617
1743.4	39.5867
1743.65	37.6698
1743.91	35.7504
1744.16	36.6985
1744.42	38.6041
1744.68	40.51
1744.93	38.5926
1745.19	34.765
1745.45	38.59
1745.7	36.6755
1745.96	36.672
1746.22	41.4477
1746.47	42.3941
1746.73	35.6903
1746.98	38.545
1747.24	38.5346
1747.5	36.612
1747.75	33.7374
1748.01	37.5468
1748.27	40.4047
1748.52	38.4931
1748.78	36.5829
1749.03	34.6737
1749.29	39.4478
1749.55	38.496
1749.8	37.5457
1750.06	39.4618
1750.32	34.6924
1750.57	38.5212
1750.83	36.6163
1751.08	44.2647
1751.34	40.4443
1751.6	40.4439
1751.85	39.4814
1752.11	37.5574
1752.36	41.3659
1752.62	34.6691
1752.88	35.6152
1753.13	39.4245
1753.39	36.5507
1753.64	36.5424
1753.9	44.1677
1754.15	40.3432
1754.41	39.3791
1754.67	39.3689
1754.92	42.2216
1755.18	39.3544
1755.43	43.1611
1755.69	39.3419
1755.95	41.2396
1756.2	36.4659
1756.46	32.6457
1756.71	36.4443
1756.97	38.3349
1757.23	36.418
1757.48	40.2113
1757.74	41.1561
1757.99	36.3942
1758.25	44.9552
1758.5	40.2098
1758.76	41.1636
1759.02	43.0661
1759.27	42.1136
1759.53	41.1611
1759.78	41.1617
1760.04	39.2563
1760.3	43.0581
1760.55	40.1985
1760.81	43.9987
1761.06	44.9434
1761.32	36.3747
1761.57	39.2187
1761.83	40.161
1762.08	39.204
1762.34	41.1006
1762.6	40.147
1762.85	39.2016
1763.11	37.3028
1763.36	37.3021
1763.62	41.1022
1763.87	39.2003
1764.13	41.1035
1764.38	41.1063
1764.64	39.2108
1764.89	45.885
1765.15	41.1321
1765.4	40.1842
1765.66	37.3306
1765.92	44.9478
1766.17	46.8521
1766.43	42.0905
1766.68	41.1356
1766.94	43.9868
1767.19	43.0303
1767.45	43.9801
1767.7	44.9268
1767.96	44.9191
1768.21	43.0078
1768.47	42.0499
1768.73	39.1908
1768.98	47.748
1769.24	46.7761
1769.49	46.7488
1769.75	41.024
1770	41.9581
1770.26	44.8065
1770.51	40.0666
1770.77	41.9752
1771.02	46.7249
1771.28	42.9262
1771.53	40.085
1771.79	41.0487
1772.04	44.856
1772.3	42.9552
1772.55	42.9608
1772.81	42.9681
1773.06	43.9247
1773.32	41.0739
1773.57	43.9323
1773.83	40.1283
1774.08	47.7458
1774.34	50.6041
1774.59	46.7975
1774.85	45.8462
1775.1	46.8034
1775.36	42.0442
1775.61	43.0027
1775.87	45.8795
1776.12	43.0305
1776.38	44.9412
1776.63	43.9881
1776.89	40.1714
1777.14	45.884
1777.4	43.0156
1777.65	39.1978
1777.91	45.8586
1778.16	45.849
1778.42	44.8867
1778.67	37.2593
1778.93	40.106
1779.18	42.9493
1779.44	40.0814
1779.69	41.0247
1779.95	44.828
1780.2	41.9845
1780.46	42.9378
1780.71	45.7948
1780.97	38.1825
1781.22	41.9927
1781.47	35.3282
1781.73	39.1364
1781.98	43.8992
1782.24	40.0947
1782.49	35.3376
1782.75	40.1077
1783	44.8765
1783.26	43.9274
1783.51	40.1187
1783.77	42.0288
1784.02	43.9395
1784.28	41.0841
1784.53	38.2292
1784.79	40.1453
1785.04	43.9663
1785.29	39.1979
1785.55	41.1047
1785.8	39.193
1786.06	41.0954
1786.31	39.1818
1786.57	39.181
1786.82	40.1369
1787.08	37.2795
1787.33	42.0578
1787.58	36.3403
1787.84	40.1725
1788.09	39.2396
1788.35	36.3948
1788.6	41.2006
1788.86	40.2594
1789.11	38.3501
1789.37	39.3154
1789.62	37.4127
1789.87	34.5459
1790.13	35.5073
1790.38	42.2202
1790.64	40.307
1790.89	35.5126
1791.15	41.2614
1791.4	37.4169
1791.65	38.3504
1791.91	36.4302
1792.16	39.2982
1792.42	35.4665
1792.67	37.382
1792.93	35.467
1793.18	41.2176
1793.43	35.4717
1793.69	43.1354
1793.94	44.0925
1794.2	40.2642
1794.45	40.2644
1794.7	36.4293
1794.96	40.2546
1795.21	37.3895
1795.47	39.3354
1795.72	34.5562
1795.97	34.5638
1796.23	37.448
1796.48	38.4136
1796.74	34.5779
1796.99	32.6621
1797.25	38.432
1797.5	35.5549
1797.75	38.4426
1798.01	35.5625
1798.26	35.565
1798.51	34.6054
1798.77	37.4907
1799.02	31.7202
1799.28	31.7169
1799.53	37.4805
1799.78	32.6669
1800.04	34.5812
1800.29	34.5734
1800.55	34.567
1800.8	31.6794
1801.05	32.6357
1801.31	34.5533
1801.56	35.5112
1801.81	35.5098
1802.07	32.628
1802.32	33.5893
1802.58	38.3947
1802.83	33.5941
1803.08	41.2863
1803.34	38.4095
1803.59	33.6092
1803.84	35.5369
1804.1	40.3472
1804.35	33.6157
1804.61	35.5423
1804.86	35.5475
1805.11	35.5527
1805.37	34.5967
1805.62	43.2684
1805.87	36.5368
1806.13	37.5065
1806.38	35.585
1806.64	36.5527
1806.89	39.4472
1807.14	34.6305
1807.4	37.5216
1807.65	34.6292
1807.9	29.8088
1808.16	32.6991
1808.41	35.5898
1808.66	35.5892
1808.92	32.6971
1809.17	38.4805
1809.42	35.5886
1809.68	34.6244
1809.93	37.5166
1810.18	32.6962
1810.44	32.6958
1810.69	34.623
1810.94	37.5122
1811.2	34.6166
1811.45	33.6506
1811.7	31.7203
1811.96	38.4667
1812.21	34.6094
1812.46	37.502
1812.72	35.5762
1812.97	37.5084
1813.22	40.4073
1813.48	36.553
1813.73	37.5185
1813.98	34.6277
1814.24	35.5991
1814.49	32.711
1814.74	36.5813
1815	40.4559
1815.25	34.6653
1815.5	33.7029
1815.76	37.57
1816.01	36.6041
1816.26	34.6713
1816.52	35.6382
1816.77	32.7392
1817.02	32.7401
1817.27	36.6034
1817.53	31.764
1817.78	30.7816
1818.03	34.6328
1818.29	34.633
1818.54	35.6037
1818.79	33.6794
1819.05	39.4818
1819.3	36.5792
1819.55	35.6139
1819.8	38.5165
1820.06	36.5862
1820.31	34.6545
1820.56	33.6902
1820.82	34.6604
1821.07	36.597
1821.32	35.6318
1821.58	36.6026
1821.83	36.607
1822.08	37.5785
1822.33	36.6136
1822.59	34.6797
1822.84	32.7447
1823.09	36.6172
1823.34	33.7133
1823.6	32.7431
1823.85	37.5788
1824.1	35.6377
1824.36	35.6353
1824.61	33.7007
1824.86	34.6703
1825.11	35.64
1825.37	34.6738
1825.62	33.7078
1825.87	34.6772
1826.12	32.7395
1826.38	32.7379
1826.63	36.6109
1826.88	33.7049
1827.14	38.5469
1827.39	36.6107
1827.64	36.6127
1827.89	36.6153
1828.15	35.6486
1828.4	32.7406
1828.65	35.6444
1828.9	34.6707
1829.16	36.6015
1829.41	33.6909
1829.66	36.5937
1829.91	32.7169
1830.17	32.7135
1830.42	36.5814
1830.67	42.3851
1830.92	32.698
1831.18	34.6328
1831.43	33.667
1831.68	32.7017
1831.93	36.5788
1832.19	36.5819
1832.44	38.5227
1832.69	34.651
1832.94	33.6874
1833.2	32.7215
1833.45	33.6899
1833.7	35.6278
1833.95	36.5991
1834.2	34.6604
1834.46	34.6613
1834.71	34.6509
1834.96	41.4124
1835.21	34.6125
1835.47	34.595
1835.72	35.5508
1835.97	30.7032
1836.22	37.4721
1836.48	41.3302
1836.73	35.6706
1836.98	30.8102
1837.23	34.6456
1837.48	37.5349
1837.74	35.5699
1837.99	35.5462
1838.24	30.6744
1838.49	31.6203
1838.74	33.5471
1839	41.344
1839.25	37.4988
1839.5	33.6359
1839.75	36.5462
1840	35.5805
1840.26	32.6799
1840.51	33.6168
1840.76	33.5918
1841.01	37.4391
1841.27	28.7182
1841.52	33.5344
1841.77	31.5863
1842.02	36.3992
1842.27	35.4193
1842.53	39.2648
1842.78	38.2858
1843.03	34.4326
1843.28	36.3567
1843.53	32.5008
1843.78	37.3219
1844.04	31.5326
1844.29	34.4213
1844.54	32.4905
1844.79	35.387
1845.04	30.5629
1845.3	36.3434
1845.55	30.556
1845.8	32.4838
1846.05	34.4257
1846.3	31.5432
1846.55	32.5199
1846.81	33.5078
1847.06	32.5217
1847.31	36.3316
1847.56	34.3429
1847.81	34.33
1848.07	33.3666
1848.32	38.1975
1848.57	34.3596
1848.82	30.4881
1849.07	34.3297
1849.32	35.2921
1849.57	31.433
1849.83	29.4977
1850.08	35.2593
1850.33	35.2474
1850.58	36.194
1850.83	28.4926
1851.09	36.1708
1851.34	32.3187
1851.59	31.3505
1851.84	34.2255
1852.09	31.3397
1852.34	36.1378
1852.59	35.1758
1852.84	32.2936
1853.1	33.2522
1853.35	35.1702
1853.6	34.2062
1853.85	35.161
1854.1	33.2328
1854.35	31.3028
1854.6	30.3318
1854.86	28.4036
1855.11	29.3565
1855.36	30.3092
1855.61	33.1741
1855.86	32.2035
1856.11	29.3221
1856.36	35.0651
1856.61	30.2727
1856.87	25.4821
1857.12	33.1429
1857.37	33.1399
1857.62	29.3046
1857.87	32.1723
1858.12	36.9542
1858.37	34.0749
1858.63	33.1094
1858.88	29.2726
1859.13	33.091
1859.38	30.212
1859.63	28.2903
1859.88	33.064
1860.13	32.1056
1860.38	32.1043
1860.63	33.0608
1860.89	33.0656
1861.14	35.9392
1861.39	31.1601
1861.64	36.905
1861.89	32.1248
1862.14	29.2541
1862.39	33.0788
1862.64	34.0291
1862.9	33.0636
1863.15	27.316
1863.4	37.8255
1863.65	32.0797
1863.9	35.8941
1864.15	33.0189
1864.4	33.0113
1864.65	31.0936
1864.9	34.9065
1865.15	33.9429
1865.4	33.9327
1865.66	33.9209
1865.91	32.954
1866.16	31.9862
1866.41	33.8777
1866.66	33.8615
1866.91	32.8934
1867.16	30.974
1867.41	34.7661
1867.66	28.0926
1867.91	33.7886
1868.16	32.8303
1868.41	33.7758
1868.67	34.7226
1868.92	33.771
1869.17	30.9191
1869.42	34.7201
1869.67	31.8648
1869.92	31.8612
1870.17	29.0062
1870.42	38.5082
1870.67	33.7525
1870.92	31.8487
1871.17	35.648
1871.42	32.7948
1871.67	29.9399
1871.92	27.0843
1872.17	33.7284
1872.42	34.6728
1872.68	30.8684
1872.93	29.9115
1873.18	32.7522
1873.43	31.7968
1873.68	36.5404
1873.93	27.9928
1874.18	34.631
1874.43	29.8783
1874.68	30.8188
1874.93	33.6549
1875.18	31.7482
1875.43	33.6339
1875.68	34.5706
1875.93	39.2935
1876.18	33.589
1876.43	27.896
1876.68	29.7782
1876.93	32.6074
1877.18	31.6553
1877.43	31.6379
1877.68	28.7826
1877.93	25.9168
1878.18	29.7145
1878.44	36.4575
1878.69	34.5115
1878.93	31.6558
1879.19	28.8119
1879.44	33.5729
1879.69	35.4818
1879.94	30.7337
1880.19	33.5633
1880.44	34.5069
1880.69	34.503
1880.94	27.8806
1881.19	34.5
1881.44	30.7099
1881.69	32.5882
1881.94	35.4079
1882.19	32.5524
1882.44	33.4781
1882.69	31.5684
1882.94	32.4883
1883.19	31.5341
1883.44	33.3948
1883.69	33.6165
1883.94	30.6337
1884.19	32.4363
1884.44	35.2647
1884.69	35.2843
1884.94	33.3788
1885.19	33.39
1885.44	33.4058
1885.69	33.4091
1885.94	34.3556
1886.19	30.5947
1886.44	33.4334
1886.69	32.4927
1886.94	35.321
1887.19	31.5286
1887.44	29.6324
1887.69	34.3416
1887.94	39.0483
1888.19	31.4919
1888.44	33.367
1888.69	29.5825
1888.94	36.1654
1889.19	35.2104
1889.44	35.1979
1889.69	30.4835
1889.94	29.5395
1890.19	35.1844
1890.44	35.1862
1890.69	34.2512
1890.94	35.1995
1891.19	31.4329
1891.43	31.4302
1891.68	29.5422
1891.94	34.2489
1892.18	29.5366
1892.43	34.2418
1892.68	33.2973
1892.93	34.2325
1893.18	33.2825
1893.43	37.9737
1893.68	34.1891
1893.93	35.1107
1894.18	35.1048
1894.43	34.1691
1894.68	32.2756
1894.93	35.0868
1895.18	36.9614
1895.43	36.961
1895.68	34.1436
1895.93	33.206
1896.18	33.2085
1896.43	32.2715
1896.68	33.2154
1896.93	33.2204
1897.18	35.1054
1897.42	34.1681
1897.68	36.9917
1897.92	33.2293
1898.17	36.0496
1898.42	34.1647
1898.67	29.4566
1898.92	35.0919
1899.17	35.0823
1899.42	35.0717
1899.67	32.2443
1899.92	31.2998
1900.17	39.7496
1900.42	35.0461
1900.67	35.9828
1900.92	35.9824
1901.16	36.9241
1901.41	34.1099
1901.66	35.9953
1901.91	34.1209
1902.16	34.1264
1902.41	36.014
1902.66	35.0797
1902.91	36.0193
1903.16	36.9553
1903.41	33.188
1903.66	36.0036
1903.91	34.1183
1904.16	30.3535
1904.41	30.3506
1904.65	32.2285
1904.9	32.2258
1905.15	32.2225
1905.4	35.0399
1905.65	31.2777
1905.9	36.9144
1906.15	37.8422
1906.4	39.7064
1906.65	34.0636
1906.9	34.058
1907.14	36.8702
1907.39	34.049
1907.64	30.2917
1907.89	40.6221
1908.14	35.9298
1908.39	35.9352
1908.64	37.8158
1908.89	32.1792
1909.14	41.5776
1909.39	35.944
1909.63	36.8899
1909.88	35.9576
1910.13	33.1455
1910.38	34.0959
1910.63	35.9889
1910.88	36.9402
1911.13	29.4136
1911.38	35.0679
1911.62	31.3021
1911.87	34.1279
1912.12	37.8941
1912.37	30.3546
1912.62	35.0603
1912.87	34.1162
1913.12	30.3472
1913.37	35.0551
1913.61	35.0549
1913.86	33.1747
1914.11	36.9522
1914.36	32.2495
1914.61	34.1413
1914.86	31.3179
1915.11	35.0963
1915.36	33.2149
1915.6	36.049
1915.85	32.2752
1916.1	35.1038
1916.35	36.0429
1916.6	35.096
1916.85	35.0894
1917.1	30.3645
1917.34	37.9017
1917.59	36.0088
1917.84	35.0608
1918.09	34.1144
1918.34	31.2856
1918.59	36.9459
1918.83	31.2941
1919.08	31.3011
1919.33	36.0275
1919.58	31.3179
1919.83	36.0515
1920.08	34.1736
1920.33	37.0133
1920.57	38.9035
1920.82	35.1181
1921.07	31.3395
1921.32	34.1816
1921.57	33.2439
1921.81	36.0842
1922.06	39.8705
1922.31	32.3066
1922.56	33.2509
1922.81	30.4097
1923.06	36.0768
1923.31	36.0701
1923.55	31.3384
1923.8	35.1154
1924.05	32.275
1924.3	36.0491
1924.55	36.986
1924.79	36.0351
1925.04	37.9217
1925.29	38.8666
1925.54	35.0906
1925.79	35.0967
1926.04	33.2153
1926.28	30.3861
1926.53	36.0681
1926.78	35.1306
1927.03	37.9798
1927.28	34.1996
1927.52	34.2034
1927.77	37.0477
1928.02	36.1039
1928.27	37.0539
1928.52	37.0565
1928.76	38.0051
1929.01	33.2711
1929.26	38.0123
1929.51	34.2258
1929.76	35.18
1930	37.0863
1930.25	34.2488
1930.5	33.309
1930.75	30.4685
1931	32.374
1931.24	35.2233
1931.49	36.1723
1931.74	30.4717
1931.99	34.2633
1932.24	34.2571
1932.48	36.1488
1932.73	32.3467
1932.98	38.0326
1933.23	38.9781
1933.47	33.2798
1933.72	34.2291
1933.97	34.2377
1934.22	29.5061
1934.46	32.3743
1934.71	35.2546
1934.96	35.2837
1935.21	33.4041
1935.46	34.3764
1935.7	32.4851
1935.95	35.3561
1936.2	32.4714
1936.45	36.2789
1936.69	32.463
1936.94	30.5516
1937.19	37.2126
1937.44	33.392
1937.68	34.3358
1937.93	35.279
1938.18	32.4153
1938.43	29.5519
1938.68	33.357
1938.92	33.3673
1939.17	34.3221
1939.42	31.469
1939.67	34.3303
1939.91	35.286
1940.16	37.1959
1940.41	36.2433
1940.66	33.3916
1940.9	32.4451
1941.15	32.4655
1941.4	35.3396
1941.64	36.2924
1941.89	31.5152
1942.14	36.2715
1942.39	35.2947
1942.63	32.4454
1942.88	29.6139
1943.13	37.2582
1943.38	34.3937
1943.62	36.2871
1943.87	35.3149
1944.12	35.3011
1944.37	32.4593
1944.61	34.3741
1944.86	32.4704
1945.11	34.3865
1945.35	34.3937
1945.6	36.3119
1945.85	33.4523
1946.1	33.4584
1946.34	30.595
1946.59	36.3358
1946.84	37.2948
1947.09	34.4264
1947.33	32.5113
1947.58	33.4633
1947.83	34.4146
1948.07	34.4123
1948.32	36.3229
1948.57	22.9341
1948.82	31.536
1949.06	31.5361
1949.31	32.4968
1949.56	37.2849
1949.8	33.4643
1950.05	31.5574
1950.3	36.3508
1950.54	32.5342
1950.79	36.3805
1951.04	30.6413
1951.29	32.5697
1951.53	33.5412
1951.78	33.5527
1952.03	33.5617
1952.27	33.567
1952.52	32.6104
1952.77	37.4165
1953.01	35.4928
1953.26	34.5373
1953.51	30.7015
1953.76	33.573
1954	32.5984
1954.25	28.7372
1954.49	35.4326
1954.74	30.6194
1954.99	36.3523
1955.24	34.4296
1955.48	35.3848
1955.73	33.4715
1955.98	34.4376
1956.22	36.3688
1956.47	33.5152
1956.72	30.6443
1956.96	33.533
1957.21	33.5375
1957.46	37.3858
1957.7	39.3137
1957.95	37.3982
1958.2	32.5974
1958.44	33.5604
1958.69	36.4448
1958.94	31.6393
1959.18	32.5963
1959.43	37.3931
1959.68	31.6228
1959.92	36.4241
1960.17	36.417
1960.42	37.3702
1960.66	30.6403
1960.91	38.3153
1961.16	35.4263
1961.4	32.5388
1961.65	36.3712
1961.9	34.4467
1962.14	32.527
1962.39	38.2859
1962.63	31.5674
1962.88	39.246
1963.13	33.487
1963.37	34.4468
1963.62	33.4867
1963.87	33.4865
1964.11	37.3268
1964.36	35.4098
1964.61	35.4123
1964.85	38.291
1965.1	34.4457
1965.35	29.6439
1965.59	38.2829
1965.84	37.322
1966.08	34.4435
1966.33	34.4488
1966.58	31.5731
1966.82	34.4616
1967.07	38.31
1967.32	31.5851
1967.56	31.5826
1967.81	41.1934
1968.05	37.3505
1968.3	39.2732
1968.55	35.4281
1968.79	38.31
1969.04	34.4598
1969.29	38.2966
1969.53	38.2855
1969.78	34.4293
1970.02	38.2578
1970.27	39.2063
1970.52	36.317
1970.76	36.3103
1971.01	35.3428
1971.25	42.0517
1971.5	40.1267
1971.75	40.1213
1971.99	41.0758
1972.24	40.1182
1972.48	35.3242
1972.73	39.162
1972.98	37.2414
1973.22	36.2774
1973.47	41.0653
1973.71	39.1368
1973.96	32.4168
1974.21	38.1626
1974.45	37.1993
1974.7	38.1548
1974.94	40.0705
1975.19	35.2779
1975.44	40.0725
1975.68	40.0763
1975.93	42.9578
1976.17	41.0442
1976.42	38.1696
1976.66	40.0891
1976.91	39.1299
1977.16	39.1287
1977.4	41.0445
1977.65	39.1219
1977.89	41.9931
1978.14	41.985
1978.39	41.0178
1978.63	37.1761
1978.88	44.8388
1979.12	41.959
1979.37	40.999
1979.61	45.7914
1979.86	40.9976
1980.1	39.0807
1980.35	44.8314
1980.6	40.9916
1980.84	43.8577
1981.09	42.8905
1981.33	45.7596
1981.58	41.9197
1981.82	41.9135
1982.07	39.9936
1982.31	43.8217
1982.56	41.903
1982.81	39.9797
1983.05	40.9288
1983.3	43.7891
1983.54	47.6022
1983.79	44.72
1984.03	47.584
1984.28	48.5356
1984.52	51.3987
1984.77	47.5664
1985.02	46.6045
1985.26	46.5951
1985.51	41.8019
1985.75	46.574
1986	43.7054
1986.24	47.53
1986.49	43.7114
1986.73	45.6297
1986.98	48.5008
1987.22	49.4537
1987.47	50.4122
1987.71	49.4459
1987.96	44.6507
1988.21	47.5006
1988.45	44.6155
1988.7	52.2319
1988.94	47.4199
1989.19	51.1669
1989.43	52.0745
1989.68	48.2663
1989.92	49.3708
1990.17	49.946
1990.41	52.9154
1990.66	47.4508
1990.9	51.8602
1991.15	47.7533
1991.39	51.5982
1991.64	48.2947
1991.88	53.105
1992.13	49.6826
1992.37	48.7314
1992.62	53.4981
1992.86	52.4499
1993.11	47.7136
1993.35	51.8356
1993.6	55.3235
1993.84	50.8269
1994.09	49.4598
1994.33	52.6635
1994.58	48.2687
1994.82	52.9259
1995.07	52.6969
1995.31	52.7343
1995.56	48.9417
1995.8	52.1045
1996.05	53.7355
1996.29	50.009
1996.54	54.0623
1996.78	58.4259
1997.03	53.8078
1997.27	52.5214
1997.52	54.4449
1997.76	54.6772
1998.01	53.8612
1998.25	48.3291
1998.5	51.964
1998.74	57.0608
1998.99	56.9886
1999.23	52.6304
1999.48	53.5615
1999.72	53.1349
1999.97	51.8741
2000.21	54.1935
2000.46	52.5922
2000.7	54.043
2000.95	57.121
2001.19	56.5783
2001.43	56.4986
2001.68	51.8846
2001.92	50.9932
2002.17	55.5342
2002.41	53.6739
2002.66	55.7199
2002.9	55.8338
2003.15	55.979
2003.39	56.6103
2003.64	57.3654
2003.88	56.4769
2004.13	53.6005
2004.37	55.4823
2004.61	57.9613
2004.86	56.5273
2005.1	55.3524
2005.35	56.474
2005.59	57.4304
2005.84	56.0176
2006.08	56.3573
2006.33	53.3166
2006.57	57.1659
2006.81	54.0031
2007.06	55.0633
2007.3	58.1517
2007.55	58.3311
2007.79	59.591
2008.04	57.292
2008.28	57.9599
2008.53	53.928
2008.77	53.2526
2009.01	55.1931
2009.26	57.5521
2009.5	56.7543
2009.75	56.1171
2009.99	55.031
2010.24	57.6996
2010.48	54.4682
2010.73	56.685
2010.97	58.6201
2011.21	56.3198
2011.46	57.8454
2011.7	53.7463
2011.95	45.6527
2012.19	58.7877
2012.43	51.5001
2012.68	51.4952
2012.92	57.14
2013.17	57.1276
2013.42	57.1072
2013.67	56.1377
2013.91	53.3001
2014.16	53.28
2014.41	55.1351
2014.66	53.2275
2014.9	56.0179
2015.15	56.9484
2015.4	61.6428
2015.64	56.0188
2015.89	55.089
2016.14	56.9727
2016.39	55.0883
2016.63	51.3454
2016.88	54.2016
2017.13	51.3892
2017.37	50.4456
2017.62	53.2564
2017.87	54.1829
2018.11	50.409
2018.36	55.0831
2018.61	53.183
2018.86	52.2249
2019.1	52.2053
2019.35	54.0587
2019.6	53.1014
2019.84	50.2801
2020.09	53.0825
2020.34	54.0144
2020.58	52.1394
2020.83	52.1363
2021.08	56.8162
2021.33	50.2627
2021.57	53.0751
2021.82	49.3281
2022.07	48.3886
2022.31	45.5739
2022.56	49.3124
2022.81	47.43
2023.05	54.9058
2023.3	53.954
2023.55	49.2643
2023.8	51.1235
2024.04	52.0468
2024.29	50.1651
2024.54	45.4812
2024.78	52.9411
2025.03	50.12
2025.27	50.1028
2025.52	50.0864
2025.77	50.071
2026.02	48.1909
2026.26	50.0387
2026.51	47.2449
2026.76	44.4625
2027	48.2244
2027.25	46.3915
2027.5	51.1064
2027.74	44.5828
2027.99	48.3186
2028.23	46.4176
2028.48	48.2427
2028.73	48.1117
2028.98	48.2381
2029.22	48.413
2029.47	45.5093
2029.72	51.1698
2029.96	47.341
2030.21	46.3553
2030.45	46.3023
2030.7	42.5684
2030.95	47.1929
2031.19	43.4958
2031.44	48.1867
2031.69	42.5805
2031.93	45.3793
2032.18	45.38
2032.43	44.4591
2032.67	49.1413
2032.92	51.9607
2033.17	45.4368
2033.41	44.5132
2033.66	43.5868
2033.91	43.599
2034.15	41.7341
2034.4	48.255
2034.64	42.6175
2034.89	50.0387
2035.14	44.4279
2035.38	46.3126
2035.63	42.5933
2035.87	43.5507
2036.12	48.2556
2036.37	47.3442
2036.61	44.5357
2036.86	46.3817
2037.11	42.6431
2037.35	43.5877
2037.6	42.6516
2037.84	41.7139
2038.09	43.579
2038.34	43.573
2038.58	43.5662
2038.83	43.5588
2039.08	39.8137
2039.32	38.8725
2039.57	37.9311
2039.81	41.6597
2040.06	43.5172
2040.31	38.8372
2040.55	46.2913
2040.8	39.7482
2041.04	45.3343
2041.29	43.4593
2041.54	40.6541
2041.78	40.6501
2042.03	41.5792
2042.27	34.1163
2042.52	42.4993
2042.77	45.2851
2043.01	43.4175
2043.26	38.7581
2043.5	35.9655
2043.75	45.2948
2044	41.5825
2044.24	41.599
2044.49	38.8058
2044.73	36.9374
2044.98	43.4569
2045.23	44.369
2045.47	37.8092
2045.72	37.8543
2045.96	44.3954
2046.21	42.589
2046.45	43.593
2046.7	42.6205
2046.95	40.7109
2047.19	38.8138
2047.44	37.8814
2047.68	36.9365
2047.93	45.2981
2048.17	37.8304
2048.42	46.2214
2048.67	37.8325
2048.91	37.8343
2049.16	37.8376
2049.4	35.0485
2049.65	40.6526
2049.89	39.7304
2050.14	37.8771
2050.39	39.7542
2050.63	38.8307
2050.88	41.6387
2051.12	39.7717
2051.37	42.5712
2051.61	38.8259
2051.86	35.0791
2052.11	38.813
2052.35	35.0782
2052.6	41.6201
2052.84	43.4892
2053.09	35.0872
2053.33	42.5659
2053.58	36.9672
2053.82	36.976
2054.07	35.1225
2054.31	40.7401
2054.56	39.8095
2054.8	40.7457
2055.05	37.0023
2055.3	40.7414
2055.54	37.9319
2055.79	36.0521
2056.03	37.9174
2056.28	38.8499
2056.52	37.9107
2056.77	38.8408
2057.01	38.8377
2057.26	38.8368
2057.5	40.7075
2057.75	35.101
2058	38.8445
2058.24	34.1743
2058.49	38.855
2058.73	36.993
2058.98	36.0649
2059.22	38.8795
2059.47	30.4603
2059.71	37.9505
2059.96	35.1435
2060.2	39.8246
2060.45	37.0107
2060.69	34.1967
2060.94	39.8076
2061.18	38.8757
2061.43	38.8807
2061.67	39.8202
2061.92	37.9488
2062.16	37.949
2062.41	35.1408
2062.65	39.8246
2062.9	37.0187
2063.14	38.8966
2063.39	37.9661
2063.63	33.2869
2063.88	33.2907
2064.12	36.1054
2064.37	30.484
2064.61	34.2353
2064.86	37.0511
2065.1	34.243
2065.35	36.126
2065.59	35.1981
2065.84	34.2687
2066.08	37.0923
2066.33	38.0379
2066.57	34.2865
2066.82	37.1045
2067.06	34.2903
2067.31	38.9899
2067.55	32.4172
2067.8	33.3603
2068.04	36.1841
2068.29	34.3089
2068.53	34.3119
2068.78	37.1331
2069.02	34.3178
2069.27	30.5572
2069.51	32.4321
2069.76	28.6635
2070	34.2863
2070.25	32.4017
2070.49	32.404
2070.73	31.4772
2070.98	34.3126
2071.22	30.5671
2071.47	34.3264
2071.71	31.4949
2071.96	33.4126
2072.2	32.4836
2072.45	32.4807
2072.69	34.361
2072.94	34.3593
2073.18	31.5311
2073.43	32.4719
2073.67	30.5866
2073.92	32.4703
2074.16	33.4123
2074.4	36.2385
2074.65	30.5915
2074.89	31.5385
2075.14	35.3148
2075.38	34.3838
2075.63	33.4553
2075.87	34.4157
2076.12	31.5959
2076.36	30.6571
2076.6	37.2652
2076.85	30.6579
2077.09	32.5419
2077.34	32.5346
2077.58	36.3008
2077.83	31.5681
2078.07	32.5069
2078.31	35.3395
2078.56	34.4031
2078.8	32.5186
2079.05	30.6339
2079.29	33.4685
2079.54	33.4757
2079.78	32.5463
2080.03	35.3858
2080.27	32.5572
2080.51	29.7271
2080.76	29.7303
2081	31.6201
2081.25	31.6162
2081.49	33.5031
2081.74	31.6118
2081.98	30.666
2082.22	34.4433
2082.47	33.5005
2082.71	36.3372
2082.96	33.5037
2083.2	34.4487
2083.45	32.5575
2083.69	31.6106
2083.93	38.2232
2084.18	32.553
2084.42	32.5528
2084.67	30.6619
2084.91	31.6067
2085.15	31.607
2085.4	33.4967
2085.64	31.6059
2085.89	34.4405
2086.13	32.5521
2086.37	37.2864
2086.62	32.5694
2086.86	30.6844
2087.11	31.6328
2087.35	31.636
2087.59	30.6943
2087.84	32.5893
2088.08	28.8034
2088.32	32.5888
2088.57	32.589
2088.81	32.5898
2089.06	30.6979
2089.3	31.6453
2089.54	32.5963
2089.79	32.6011
2090.03	35.4505
2090.28	30.7169
2090.52	31.6651
2090.76	29.772
2091.01	31.669
2091.25	32.6194
2091.5	33.5701
2091.74	30.7296
2091.98	30.7368
2092.23	28.8483
2092.47	32.6514
2092.72	33.6101
2092.96	26.976
2093.2	30.7807
2093.45	32.6873
2093.69	33.645
2093.93	31.7519
2094.18	32.7083
2094.42	29.8617
2094.66	30.8135
2094.91	32.7143
2095.15	33.6629
2095.39	30.8079
2095.64	29.8517
2095.88	34.5971
2096.13	28.8905
2096.37	33.637
2096.61	33.6339
2096.86	29.8321
2097.1	32.68
2097.34	33.6248
2097.59	34.5672
2097.83	29.8126
2098.07	28.8601
2098.32	27.9086
2098.56	29.8051
2098.8	28.8511
2099.05	30.7487
2099.29	30.7473
2099.53	30.7448
2099.78	33.5898
2100.02	30.7416
2100.27	31.6902
2100.51	32.6396
2100.75	30.7425
2101	30.7449
2101.24	37.3978
2101.48	30.757
2101.73	34.5592
2101.97	26.0123
2102.21	29.8109
2102.45	28.8598
2102.7	29.8091
2102.94	30.7564
2103.18	30.7509
2103.43	32.6428
2103.67	27.892
2103.92	33.5863
2104.16	28.8376
2104.4	31.6852
2104.64	30.7379
2104.89	31.6914
2105.13	30.7458
2105.37	32.6489
2105.62	36.4538
2105.86	29.8101
2106.1	32.6662
2106.35	31.7186
2106.59	30.7706
2106.83	27.9196
2107.08	31.7228
2107.32	31.7251
2107.56	32.6763
2107.8	30.7707
2108.05	33.6157
2108.29	34.5568
2108.53	28.8467
2108.78	33.587
2109.02	29.7812
2109.26	32.6265
2109.51	31.6777
2109.75	34.5344
2109.99	26.941
2110.23	32.6405
2110.48	31.6899
2110.72	31.6892
2110.96	30.7385
2111.21	34.5378
2111.45	30.7369
2111.69	29.7843
2111.93	30.7293
2112.18	29.7759
2112.42	32.6224
2112.66	30.7223
2112.91	32.6241
2113.15	29.7772
2113.39	28.8301
2113.63	28.8364
2113.88	29.792
2114.12	35.4972
2114.36	31.6927
2114.61	27.8878
2114.85	34.5389
2115.09	28.8375
2115.33	29.788
2115.58	31.6864
2115.82	35.4842
2116.06	26.9289
2116.31	32.6268
2116.55	27.8699
2116.79	30.7132
2117.03	28.8104
2117.28	30.7075
2117.52	30.7056
2117.76	31.6558
2118	28.8033
2118.25	27.8488
2118.49	26.8943
2118.73	30.6826
2118.97	27.8269
2119.22	30.6654
2119.46	28.7617
2119.7	28.7551
2119.94	31.5922
2120.19	26.8472
2120.43	26.8427
2120.67	33.4733
2120.91	23.9981
2121.16	32.5307
2121.4	30.6375
2121.64	29.6956
2121.88	34.4434
2122.13	28.7594
2122.37	29.7133
2122.61	30.667
2122.85	30.671
2123.1	28.7761
2123.34	30.6772
2123.58	29.7297
2123.82	33.5278
2124.07	25.93
2124.31	32.5709
2124.55	31.6157
2124.79	30.6581
2125.03	32.5423
2125.28	28.7344
2125.52	26.826
2125.76	27.7635
2126	30.5952
2126.25	27.7458
2126.49	30.5772
2126.73	28.6777
2126.97	30.563
2127.21	31.5016
2127.46	27.712
2127.7	31.491
2127.94	29.5978
2128.18	27.7045
2128.43	30.5368
2128.67	31.4795
2128.91	28.6431
2129.15	26.752
2129.39	32.4217
2129.64	28.6378
2129.88	30.5254
2130.12	30.5233
2130.36	29.5762
2130.6	28.6288
2130.85	29.5708
2131.09	27.6777
2131.33	31.4524
2131.57	26.7244
2131.81	28.6083
2132.06	26.7151
2132.3	29.5444
2132.54	28.5963
2132.78	24.8146
2133.02	30.4716
2133.27	27.6371
2133.51	28.5797
2133.75	32.3547
2133.99	28.5806
2134.23	30.4676
2134.48	27.637
2134.72	29.5247
2134.96	31.4107
2135.2	31.4091
2135.44	27.6328
2135.68	28.5743
2135.93	30.4579
2136.17	27.6219
2136.41	27.6129
2136.65	28.5468
2136.89	32.3127
2137.14	31.3707
2137.38	30.4285
2137.62	30.4284
2137.86	28.5452
2138.1	29.4937
2138.34	30.4339
2138.59	31.3673
2138.83	30.4175
2139.07	31.3651
2139.31	31.3744
2139.55	29.4944
2139.79	32.3076
2140.03	31.3524
2140.28	30.404
2140.52	29.4566
2140.76	31.3362
2141	29.4483
2141.24	30.3872
2141.49	26.617
2141.73	29.4421
2141.97	29.4355
2142.21	29.4282
2142.45	26.6011
2142.69	29.4243
2142.93	31.3123
2143.18	30.3748
2143.42	31.3411
2143.66	30.3861
2143.9	31.2498
2144.14	30.3093
2144.38	31.2541
2144.62	27.5035
2144.87	31.2742
2145.11	29.3983
2145.35	29.3809
2145.59	25.6217
2145.83	24.6818
2146.07	32.2016
2146.31	24.677
2146.55	28.4345
2146.8	32.1915
2147.04	29.3685
2147.28	30.3047
2147.52	29.3601
2147.76	30.2951
2148	31.2301
2148.24	29.3475
2148.48	31.2219
2148.73	30.2784
2148.97	27.4568
2149.21	26.513
2149.45	31.2003
2149.69	31.1923
2149.93	30.2406
2150.17	31.1709
2150.42	29.2866
2150.66	26.4678
2150.9	30.2136
2151.14	28.3378
2151.38	27.4021
2151.62	22.7183
2151.86	29.2832
2152.1	24.5982
2152.34	32.1019
2152.58	30.2298
2152.83	28.3489
2153.07	32.0951
2153.31	31.151
2153.55	29.2704
2153.79	32.0791
2154.03	27.3894
2154.27	33.0065
2154.51	30.1873
2154.75	27.3669
2154.99	28.2908
2155.24	26.4075
2155.48	32.0068
2155.72	31.061
2155.96	32.9206
2156.2	27.3046
2156.44	29.1674
2156.68	30.0978
2156.92	30.0958
2157.16	29.1602
2157.4	27.2913
2157.64	31.9637
2157.89	31.0331
2158.13	27.2999
2158.37	22.6302
2158.61	31.9777
2158.85	30.1073
2159.09	28.2359
2159.33	27.2982
2159.57	32.9009
2159.81	30.0919
2160.05	28.2169
2160.29	27.2755
2160.53	25.4006
2160.77	27.2613
2161.01	29.1219
2161.25	24.4521
2161.5	32.8482
2161.74	29.1123
2161.98	30.0418
2162.22	28.1742
2162.46	32.8379
2162.7	29.1057
2162.94	30.0374
2163.18	31.8997
2163.42	27.2313
2163.66	26.295
2163.9	25.3591
2164.14	32.8149
2164.38	30.9458
2164.62	30.9384
2164.86	29.066
2165.11	29.0606
2165.35	28.1293
2165.59	28.1314
2165.83	29.9947
2166.07	30.9263
2166.31	28.1303
2166.55	28.1264
2166.79	30.9176
2167.03	25.3232
2167.27	28.1115
2167.51	26.2443
2167.75	30.8924
2167.99	32.744
2168.23	28.0762
2168.47	28.993
2168.71	28.9878
2168.95	28.0568
2169.19	27.1279
2169.43	29.9203
2169.67	30.8557
2169.91	31.7939
2170.15	25.2897
2170.39	25.2987
2170.63	25.3036
2170.87	30.8929
2171.11	23.4402
2171.35	27.1592
2171.59	29.9489
2171.83	27.1445
2172.07	28.9848
2172.31	33.6214
2172.56	28.9673
2172.79	30.8201
2173.04	29.8862
2173.28	26.1682
2173.51	26.1671
2173.76	27.0951
2174	26.1672
2174.24	27.0991
2174.48	27.1009
2174.72	29.8896
2174.96	29.8893
2175.2	28.0296
2175.44	26.1696
2175.68	28.9552
2175.92	28.9526
2176.16	29.8802
2176.4	28.0195
2176.64	23.3709
2176.88	26.1535
2177.12	25.2222
2177.36	26.1505
2177.6	29.8663
2177.84	27.0792
2178.08	27.0779
2178.32	26.1493
2178.55	27.075
2178.8	28.9244
2179.03	28.9179
2179.28	27.0596
2179.52	30.774
2179.75	31.7023
2180	26.1309
2180.23	31.7011
2180.47	26.1292
2180.71	29.8416
2180.95	27.9822
2181.19	27.0514
2181.43	30.7633
2181.67	31.6889
2181.91	28.9
2182.15	30.7522
2182.39	27.0378
2182.63	26.1057
2182.87	28.8859
2183.11	29.8103
2183.35	30.7314
2183.59	24.2325
2183.83	32.5683
2184.07	24.219
2184.31	27.9214
2184.55	26.9901
2184.79	29.7678
2185.03	31.6212
2185.27	30.6969
2185.51	31.6253
2185.75	31.6271
2185.99	26.9956
2186.23	26.9994
2186.47	27.0035
2186.7	30.7173
2186.95	28.8699
2187.18	29.8058
2187.42	22.3877
2187.66	29.8218
2187.9	29.8276
2188.14	30.7573
2188.38	25.1811
2188.62	24.2476
2188.86	27.0273
2189.1	28.8772
2189.34	25.1579
2189.58	27.9334
2189.82	30.7058
2190.06	31.6238
2190.3	26.984
2190.54	32.544
2190.78	29.7631
2191.01	28.8378
2191.25	28.8395
2191.49	24.203
2191.73	28.8399
2191.97	28.8416
2192.21	26.9887
2192.45	26.9904
2192.69	28.847
2192.93	26.066
2193.17	28.8531
2193.41	24.2175
2193.65	27.9333
2193.89	30.7239
2194.13	27.95
2194.36	28.892
2194.6	29.8301
2194.84	27.0457
2195.08	27.9732
2195.32	25.1807
2195.56	32.613
2195.8	28.8901
2196.04	31.6705
2196.28	29.8033
2196.52	27.9353
2196.76	24.2129
2197	26.0623
2197.23	29.7679
2197.47	27.9069
2197.71	26.9747
2197.95	25.1191
2198.19	30.6844
2198.43	26.9764
2198.67	30.6937
2198.91	27.9164
2199.15	33.4944
2199.38	30.7191
2199.62	28.8693
2199.86	29.8075
2200.1	30.7463
2200.34	31.6904
2200.58	30.776
2200.82	29.8586
2201.06	29.87
2201.3	29.8782
2201.54	26.1571
2201.77	26.1457
2202.01	25.188
2202.25	26.0631
2202.49	34.371
2202.73	29.7528
2202.97	28.8738
2203.21	25.1746
2203.45	29.8168
2203.68	31.6696
2203.92	31.6963
2204.16	25.2616
2204.4	33.6226
2204.64	28.0249
2204.88	31.7593
2205.12	28.0093
2205.36	27.0528
2205.59	29.822
2205.83	32.5944
2206.07	27.0106
2206.31	28.87
2206.55	26.0861
2206.79	28.8763
2207.03	32.5836
2207.26	28.8661
2207.5	24.2205
2207.74	30.7345
2207.98	28.8797
2208.22	29.8157
2208.46	28.8908
2208.7	27.0343
2208.93	27.0385
2209.17	27.9729
2209.41	31.7001
2209.65	28.9075
2209.89	30.7697
2210.13	30.7682
2210.36	30.7687
2210.6	27.0462
2210.84	27.0494
2211.08	30.7801
2211.32	29.8525
2211.56	29.8564
2211.8	29.8608
2212.03	28.0017
2212.27	29.8723
2212.51	29.8762
2212.75	29.8778
2212.99	28.9424
2213.23	29.8715
2213.46	25.205
2213.7	29.8627
2213.94	27.0599
2214.18	25.1961
2214.42	24.2678
2214.66	27.0759
2214.89	28.019
2215.13	31.7551
2215.37	28.9567
2215.61	27.0908
2215.85	27.0914
2216.08	26.1578
2216.32	30.8256
2216.56	25.2226
2216.8	25.2213
2217.04	23.3523
2217.28	27.085
2217.51	28.0179
2217.75	27.0848
2217.99	23.3507
2218.23	24.2837
2218.47	28.0174
2218.7	23.3495
2218.94	26.1525
2219.18	28.0234
2219.42	23.3572
2219.66	23.3608
2219.9	24.2972
2220.13	28.0376
2220.37	26.1706
2220.61	28.9731
2220.85	27.1021
2221.09	29.9042
2221.32	27.0972
2221.56	25.2217
2221.8	28.9503
2222.04	29.8771
2222.27	28.0037
2222.51	27.9995
2222.75	26.1312
2222.99	27.066
2223.23	27.0693
2223.46	26.1388
2223.7	26.1426
2223.94	28.9508
2224.18	27.0896
2224.42	28.9669
2224.65	28.0395
2224.89	25.2398
2225.13	24.3092
2225.37	27.121
2225.6	29.9349
2225.84	25.2616
2226.08	30.8854
2226.32	29.0179
2226.56	29.9605
2226.79	31.8385
2227.03	27.1585
2227.27	29.038
2227.51	28.1045
2227.74	26.2318
2227.98	25.2952
2228.22	24.3562
2228.46	25.2914
2228.69	28.1019
2228.93	27.1618
2229.17	27.1597
2229.41	25.2827
2229.64	26.2195
2229.88	29.0362
2230.12	29.0432
2230.36	27.1734
2230.6	27.1776
2230.83	30.9361
2231.07	26.2484
2231.31	26.2533
2231.55	23.4414
2231.78	26.2645
2232.02	23.4503
2232.26	27.2133
2232.5	27.2181
2232.73	25.3425
2232.97	24.4062
2233.21	23.4697
2233.45	24.414
2233.68	29.1221
2233.92	27.2448
2234.16	25.3657
2234.39	28.1918
2234.63	22.5422
2234.87	26.3045
2235.11	26.3008
2235.34	27.2364
2235.58	27.2262
2235.82	25.338
2236.06	27.2187
2236.29	26.2788
2236.53	27.2201
2236.77	28.1616
2237	26.281
2237.24	30.0443
2237.48	24.4056
2237.72	28.1744
2237.95	29.126
2238.19	23.4865
2238.43	22.5526
2238.67	29.1554
2238.9	29.1625
2239.14	31.0567
2239.38	25.4072
2239.61	25.4083
2239.85	27.2922
2240.09	24.4582
2240.33	29.1658
2240.56	26.3299
2240.8	31.9821
2241.04	25.3937
2241.27	25.4027
2241.51	25.4037
2241.75	25.4047
2241.99	28.237
2242.22	26.3508
2242.46	26.3525
2242.7	29.1865
2242.93	24.4694
2243.17	25.4134
2243.41	27.2998
2243.64	24.4639
2243.88	23.5159
2244.12	26.3446
2244.36	28.2306
2244.59	28.231
2244.83	25.403
2245.07	26.354
2245.3	25.4195
2245.54	25.4281
2245.78	31.1043
2246.01	26.3832
2246.25	29.2247
2246.49	25.4471
2246.72	29.2345
2246.96	26.3988
2247.2	21.6714
2247.43	25.4592
2247.67	28.3005
2247.91	27.3547
2248.14	27.3538
2248.38	26.4053
2248.62	26.4031
2248.85	28.2935
2249.09	23.5601
2249.33	24.5044
2249.56	26.3951
2249.8	27.3455
2250.04	23.5623
2250.27	25.4544
2250.51	27.3433
2250.75	25.4451
2250.98	28.2773
2251.22	28.27
2251.46	29.2099
2251.69	27.3142
2251.93	23.5304
2252.17	24.4761
2252.4	25.4238
2252.64	26.3728
2252.88	25.4316
2253.11	25.4391
2253.35	25.4521
2253.59	27.3555
2253.82	29.2578
2254.06	29.2642
2254.3	25.4776
2254.53	24.5339
2254.77	26.433
2255.01	26.4329
2255.24	28.3259
2255.48	29.2749
2255.72	27.3782
2255.95	26.4304
2256.19	26.4309
2256.42	27.3833
2256.66	29.2851
2256.9	27.392
2257.13	30.2427
2257.37	28.349
2257.61	27.4037
2257.84	27.4074
2258.08	26.4603
2258.32	26.4612
2258.55	27.4114
2258.79	29.3121
2259.02	27.4147
2259.26	25.5181
2259.5	28.3716
2259.73	28.3738
2259.97	25.5247
2260.2	25.527
2260.44	27.4302
2260.68	26.4817
2260.91	27.4343
2261.15	27.438
2261.39	28.3973
2261.62	29.3541
2261.86	26.5006
2262.1	30.3077
2262.33	22.6968
2262.57	28.4083
2262.8	27.4599
2263.04	25.561
2263.28	24.6138
2263.51	27.4773
2263.75	28.438
2263.98	23.6815
2264.22	27.5044
2264.46	26.5603
2264.69	25.6147
2264.93	25.6215
2265.16	26.5819
2265.4	25.6318
2265.64	25.6357
2265.87	25.636
2266.11	25.6365
2266.34	22.7683
2266.58	30.4026
2266.81	22.7568
2267.05	24.6596
2267.29	25.608
2267.52	25.6032
2267.76	29.415
2267.99	27.502
2268.23	25.5879
2268.47	23.676
2268.7	30.3483
2268.94	27.4882
2269.17	27.4914
2269.41	29.4044
2269.65	21.7785
2269.88	28.465
2270.12	28.4729
2270.35	28.4822
2270.59	26.5799
2270.82	27.54
2271.06	23.7202
2271.3	25.6365
2271.53	30.4209
2271.77	21.8184
2272	29.4716
2272.24	23.7374
2272.47	25.6526
2272.71	26.6092
2272.95	25.6531
2273.18	29.4811
2273.42	24.698
2273.65	23.7418
2273.89	23.7425
2274.12	27.5713
2274.36	28.5292
2274.6	27.5729
2274.83	21.8306
2275.07	24.703
2275.3	23.7468
2275.54	26.6197
2275.77	23.7485
2276.01	30.4491
2276.24	24.7076
2276.48	25.6707
2276.72	27.5926
2276.95	24.7233
2277.18	25.6862
2277.42	28.5675
2277.66	25.6992
2277.89	25.7083
2278.13	26.6775
2278.36	26.6883
2278.6	23.8107
2278.83	22.8514
2279.07	22.8511
2279.3	27.6518
2279.54	24.7683
2279.78	27.6439
2280.01	25.7114
2280.24	25.7033
2280.48	28.5735
2280.72	29.5253
2280.95	21.8482
2281.19	26.638
2281.42	27.5935
2281.66	23.7553
2281.89	27.5862
2282.13	26.6301
2282.36	24.7142
2282.6	23.7584
2282.83	26.6394
2283.07	26.6451
2283.3	24.7318
2283.54	26.6576
2283.77	24.7474
2284.01	30.5217
2284.24	24.7682
2284.48	25.7407
2284.71	25.747
2284.95	27.6731
2285.19	22.8687
2285.42	26.7223
2285.65	23.8367
2285.89	26.724
2286.12	26.7177
2286.36	25.7452
2286.59	26.7056
2286.83	28.6308
2287.06	25.7487
2287.3	28.6477
2287.54	26.7326
2287.77	28.6621
2288	28.6647
2288.24	27.7086
2288.47	26.7426
2288.71	28.6645
2288.94	28.6596
2289.18	28.6539
2289.41	28.6446
2289.65	30.5578
2289.88	26.699
2290.12	24.7642
2290.35	29.5672
2290.59	28.6023
2290.82	30.5245
2291.06	25.7178
2291.29	26.6825
2291.53	26.689
2291.76	25.7352
2292	25.7405
2292.23	25.7444
2292.47	25.7482
2292.7	24.7897
2292.94	26.7213
2293.17	31.5433
2293.41	20.9496
2293.64	24.8068
2293.88	23.8452
2294.11	27.7014
2294.34	24.8074
2294.58	25.7675
2294.81	25.763
2295.05	24.7941
2295.28	30.5693
2295.52	28.6384
2295.75	27.6707
2295.99	27.6663
2296.22	25.737
2296.46	25.7303
2296.69	29.5677
2296.93	27.6413
2297.16	24.7566
2297.39	29.571
2297.63	27.6509
2297.86	29.582
2298.1	31.5158
2298.33	25.7461
2298.57	28.6418
2298.8	29.609
2299.04	23.831
2299.27	25.7648
2299.51	26.7342
2299.74	23.8447
2299.97	24.8111
2300.21	25.7748
2300.44	26.739
2300.68	24.8085
2300.91	28.6698
2301.15	26.7443
2301.38	27.7122
2301.61	27.7148
2301.85	25.7856
2302.08	26.7509
2302.32	24.819
2302.55	26.7465
2302.79	25.7789
2303.02	28.6744
2303.25	27.708
2303.49	27.7059
2303.72	25.7747
2303.96	27.7048
2304.19	27.707
2304.43	22.8843
2304.66	28.6805
2304.89	26.7519
2305.13	27.7209
2305.36	24.8277
2305.6	26.7621
2305.83	27.729
2306.07	24.832
2306.3	27.7337
2306.53	24.8371
2306.77	27.7372
2307	23.8709
2307.24	25.8031
2307.47	26.7682
2307.7	28.6981
2307.94	29.6602
2308.17	26.7586
2308.41	24.8231
2308.64	24.8204
2308.87	26.752
2309.11	25.7865
2309.34	25.7898
2309.58	26.7601
2309.81	24.8327
2310.04	25.807
2310.28	29.6811
2310.51	29.6834
2310.75	25.814
2310.98	26.7801
2311.21	27.7439
2311.45	24.8357
2311.68	29.6534
2311.92	26.736
2312.15	25.7603
2312.38	30.5798
2312.62	25.7488
2312.85	27.6737
2313.08	27.6694
2313.32	26.7036
2313.55	28.6361
2313.79	28.6442
2314.02	25.7578
2314.25	25.7648
2314.49	29.6369
2314.72	26.7457
2314.95	27.7221
2315.19	28.6982
2315.42	32.5725
2315.66	28.6944
2315.89	24.8187
2316.12	27.7134
2316.36	26.7388
2316.59	25.7576
2316.82	26.7153
2317.06	24.7797
2317.29	25.7441
2317.52	24.7792
2317.76	29.6085
2317.99	25.752
2318.23	23.8237
2318.46	29.6099
2318.69	26.7074
2318.93	25.7377
2319.16	30.5599
2319.39	26.6932
2319.63	29.5839
2319.86	28.615
2320.09	26.6825
2320.33	32.4715
2320.56	31.5069
2320.79	26.6813
2321.03	33.4387
2321.26	29.5823
2321.5	25.7252
2321.73	31.5228
2321.96	30.5633
2322.2	32.5035
2322.43	31.5468
2322.66	31.5545
2322.9	32.5238
2323.13	35.4218
2323.36	34.4562
2323.6	35.425
2323.83	34.4597
2324.06	35.4284
2324.3	39.297
2324.53	37.3608
2324.76	39.2923
2325	47.9823
2325.23	49.8995
2325.46	51.8132
2325.7	57.5954
2325.93	67.2398
2326.16	79.7767
2326.4	111.613
2326.63	146.33
2326.86	209.977
2327.09	288.066
2327.33	350.691
2327.56	343.862
2327.79	281.147
2328.03	209.771
2328.26	140.354
2328.49	114.336
2328.73	82.5294
2328.96	72.8922
2329.19	63.2401
2329.43	59.3731
2329.66	53.5771
2329.89	50.6819
2330.13	48.7528
2330.36	43.9424
2330.59	37.1963
2330.82	38.1558
2331.06	33.3364
2331.29	32.3716
2331.52	29.484
2331.76	31.4142
2331.99	28.5286
2332.22	27.5713
2332.46	28.5264
2332.69	29.4833
2332.92	29.4783
2333.16	24.659
2333.39	30.4318
2333.62	29.4647
2333.85	25.6105
2334.09	32.3447
2334.32	28.4902
2334.55	25.5982
2334.79	28.4766
2335.02	26.5481
2335.25	23.6596
2335.48	29.4281
2335.72	28.4642
2335.95	28.4646
2336.18	26.5426
2336.41	26.5411
2336.65	27.4992
2336.88	29.4198
2337.11	24.6104
2337.34	28.4547
2337.58	23.6454
2337.81	26.5279
2338.04	26.525
2338.28	29.4063
2338.51	25.5594
2338.74	30.3634
2338.97	24.595
2339.21	26.5176
2339.44	24.5952
2339.67	26.5169
2339.91	26.5154
2340.14	27.4737
2340.37	28.4306
2340.6	27.4643
2340.84	26.4982
2341.07	27.4521
2341.3	29.3641
2341.53	27.4342
2341.77	26.4635
2342	27.4144
2342.23	26.4497
2342.46	30.2803
2342.7	27.3987
2342.93	28.3536
2343.16	25.4754
2343.39	30.2672
2343.63	31.2255
2343.86	27.3891
2344.09	25.4703
2344.32	26.4285
2344.56	27.3883
2344.79	32.1819
2345.02	28.3458
2345.25	29.3019
2345.49	23.5473
2345.72	26.4177
2345.95	27.3682
2346.18	25.4467
2346.41	24.4835
2346.65	28.3117
2346.88	28.3094
2347.11	26.3922
2347.34	26.3892
2347.58	28.3013
2347.81	28.3001
2348.04	26.3852
2348.27	28.3012
2348.5	23.516
2348.74	23.5172
2348.97	29.2626
2349.2	27.344
2349.43	28.2962
2349.67	26.3694
2349.9	27.314
2350.13	29.2118
2350.36	26.3269
2350.59	23.4423
2350.83	29.1327
2351.06	26.2152
2351.29	27.2094
2351.52	25.3899
2351.75	29.2454
2351.99	27.2736
2352.22	27.2423
2352.45	26.2896
2352.68	29.1561
2352.91	26.2755
2353.15	28.157
2353.38	28.1363
2353.61	27.1902
2353.84	28.1397
2354.07	27.1812
2354.31	27.1809
2354.54	25.2744
2354.77	26.2327
2355	29.0971
2355.23	27.1898
2355.47	25.2817
2355.7	26.2315
2355.93	26.2284
2356.16	29.0823
2356.39	21.4575
2356.63	26.2102
2356.86	25.2454
2357.09	22.3813
2357.32	29.9846
2357.55	23.3224
2357.79	29.9732
2358.02	26.1656
2358.25	27.1117
2358.48	24.257
2358.71	26.155
2358.94	29.9491
2359.18	27.0953
2359.41	26.1428
2359.64	28.9903
2359.87	24.2372
2360.1	28.0308
2360.33	28.9735
2360.57	25.1692
2360.8	26.1117
2361.03	28.0025
2361.26	26.0981
2361.49	26.091
2361.72	25.1357
2361.96	27.9722
2362.19	22.2786
2362.42	27.0083
2362.65	29.8416
2362.88	29.8342
2363.11	27.9341
2363.34	28.8749
2363.58	25.0842
2363.81	26.0268
2364.04	30.754
2364.27	28.8576
2364.5	26.015
2364.73	24.1188
2364.97	23.1689
