#Acq. time (s)=	30
#Accumulations=	2
#Range (cm-¹)=	1200...2365
#Windows=	3
#Auto scanning=	Off
#Autofocus=	Off
#Macrospot=	Off
#AutoExposure=	Off
#Spike filter=	Multiple accum.
#Delay time (s)=	2
#Binning=	1
#Readout mode=	Signal
#DeNoise=	Off
#ICS correction=	On
#Dark correction=	Off
#Inst. Process=	Off
#Detector Gain=	Best Dynamic
#Detector ADC=	50 kHz HS
#Detector temperature (°C)=	-60.09
#Instrument=	LabRAM HR Evol
#Detector=	SIN-EM FIVIS
#Objective=	x100_VIS_LWD
#Grating=	1800 (450-850nm)
#ND Filter=	100%
#Laser=	532nm_Edge
#Hole=	100.021
#Temperature=	0
#Range=	Visible
#StageXY=	75x50mm Scan+
#StageZ=	Z motor
#X (µm)=	0
#Y (µm)=	0
#Z (µm)=	-56
#Full time(mm:ss)=	3:17
#Project=	21_11_26
#Sample=	BU19(2)w
#Site=	
#Title=	BU19(2)w-A-FF1-FI09-V_1800 (450-850nm)_532nm_Edge_100%_x100_VIS_LWD_H100um_30sX2
#Remark=	
#Date=	26.11.2021 16:30
#Acquired=	26.11.2021 16:30:03
1202.72	66.1382
1203	75.9259
1203.28	79.1824
1203.56	76.981
1203.84	75.8455
1204.11	73.6575
1204.39	71.4781
1204.67	76.8557
1204.95	75.7888
1205.23	76.8483
1205.5	72.5202
1205.78	77.8598
1206.06	70.3079
1206.34	69.2003
1206.61	68.0946
1206.89	71.2779
1207.17	77.6725
1207.45	69.0727
1207.73	69.0543
1208	76.531
1208.28	69.0249
1208.56	65.7994
1208.84	76.4776
1209.11	77.5255
1209.39	70.0194
1209.67	73.2177
1209.95	65.7301
1210.23	61.4471
1210.5	62.5027
1210.78	73.1596
1211.06	63.518
1211.34	75.2405
1211.61	78.4128
1211.89	74.121
1212.17	67.6918
1212.45	70.8631
1212.72	68.7115
1213	63.3635
1213.28	69.7344
1213.56	69.7197
1213.83	70.7748
1214.11	65.4362
1214.39	71.8261
1214.67	70.7633
1214.94	66.5048
1215.22	72.8913
1215.5	66.5
1215.78	70.754
1216.05	72.8764
1216.33	71.7927
1216.61	69.6386
1216.89	67.481
1217.16	70.6421
1217.44	68.4944
1217.72	74.8477
1218	67.3913
1218.27	64.1895
1218.55	68.4205
1218.83	66.2827
1219.1	66.2741
1219.38	69.4519
1219.66	69.4445
1219.94	70.4959
1220.21	70.4826
1220.49	65.1763
1220.77	67.297
1221.04	73.6559
1221.32	77.8896
1221.6	73.6337
1221.88	71.4994
1222.15	70.4181
1222.43	69.3304
1222.71	71.4156
1222.98	75.6125
1223.26	70.2864
1223.54	66.0241
1223.81	74.4514
1224.09	70.1982
1224.37	68.0602
1224.65	71.2104
1224.92	69.0845
1225.2	71.1855
1225.48	70.1271
1225.76	69.0792
1226.03	73.3089
1226.31	74.3735
1226.59	75.4244
1226.86	75.4181
1227.14	72.2361
1227.42	71.1675
1227.69	75.3494
1227.97	73.1684
1228.25	75.2298
1228.52	65.7123
1228.8	66.7007
1229.08	78.2081
1229.35	79.2517
1229.63	73.1269
1229.91	79.6152
1230.18	77.4301
1230.46	78.4096
1230.74	71.0083
1231.01	76.282
1231.29	73.078
1231.57	72.9336
1231.84	70.8444
1232.12	72.9438
1232.4	78.1944
1232.67	73.9815
1232.95	81.3334
1233.23	73.9738
1233.5	75.0163
1233.78	80.2657
1234.06	81.3198
1234.33	84.4781
1234.61	73.9787
1234.89	67.6835
1235.16	74.0001
1235.44	81.363
1235.71	81.3697
1235.99	69.8141
1236.27	79.2819
1236.54	83.4853
1236.82	78.2177
1237.1	79.2556
1237.37	79.2374
1237.65	75.0077
1237.93	78.1304
1238.2	79.1515
1238.48	84.369
1238.76	76.9947
1239.03	78.0212
1239.31	81.1525
1239.58	85.3341
1239.86	82.1795
1240.14	75.8839
1240.41	83.2179
1240.69	79.0239
1240.97	82.1699
1241.24	79.0286
1241.52	82.1756
1241.79	85.312
1242.07	83.1996
1242.35	74.806
1242.62	80.0461
1242.9	87.3862
1243.18	88.4458
1243.45	89.5051
1243.73	86.3582
1244	86.3581
1244.28	82.1696
1244.56	84.2645
1244.83	85.3064
1245.11	90.5379
1245.39	85.2778
1245.66	87.3509
1245.94	91.5089
1246.21	97.7594
1246.49	94.6042
1246.76	94.5959
1247.04	94.5956
1247.32	93.5461
1247.59	93.5374
1247.87	89.3482
1248.14	91.4307
1248.42	97.6725
1248.7	99.7445
1248.97	99.7388
1249.25	92.4227
1249.52	99.7506
1249.8	102.881
1250.08	96.6013
1250.35	98.6934
1250.63	97.6262
1250.9	98.6454
1251.18	101.758
1251.45	101.737
1251.73	94.4051
1252.01	110.057
1252.28	101.681
1252.56	91.2189
1252.83	101.641
1253.11	105.794
1253.39	103.686
1253.66	98.4574
1253.94	106.805
1254.21	106.821
1254.49	100.577
1254.76	100.598
1255.04	106.871
1255.31	104.782
1255.59	119.409
1255.87	108.966
1256.14	106.871
1256.42	116.274
1256.69	124.637
1256.97	137.188
1257.24	150.773
1257.52	159.12
1257.79	155.964
1258.07	155.949
1258.35	150.715
1258.62	136.085
1258.9	145.464
1259.17	149.604
1259.45	149.6
1259.72	160.054
1260	172.605
1260.27	177.897
1260.55	194.557
1260.82	207.035
1261.1	224.7
1261.37	235.076
1261.65	246.511
1261.92	288.274
1262.2	297.927
1262.48	317.136
1262.75	321.519
1263.02	322.037
1263.3	337.297
1263.58	319.415
1263.85	297.808
1264.13	281.322
1264.4	257.539
1264.68	225.24
1264.95	198.962
1265.23	191.596
1265.5	187.415
1265.78	174.857
1266.05	170.645
1266.33	158.105
1266.6	154.981
1266.88	167.542
1267.15	150.848
1267.43	152.973
1267.7	153.013
1267.98	149.919
1268.25	158.339
1268.53	143.752
1268.8	136.472
1269.08	148.021
1269.35	143.853
1269.63	150.157
1269.9	152.243
1270.18	156.399
1270.45	153.209
1270.73	148.987
1271	155.231
1271.28	154.157
1271.55	139.495
1271.83	152.032
1272.1	154.135
1272.38	146.844
1272.65	147.931
1272.93	145.893
1273.2	145.93
1273.47	155.398
1273.75	159.632
1274.03	154.431
1274.3	161.812
1274.57	159.741
1274.85	169.188
1275.12	167.082
1275.4	170.229
1275.67	175.492
1275.95	174.471
1276.22	175.551
1276.5	183.989
1276.77	188.221
1277.05	191.407
1277.32	193.534
1277.6	209.337
1277.87	216.743
1278.14	214.692
1278.42	225.246
1278.69	252.622
1278.97	255.849
1279.24	281.134
1279.52	327.468
1279.79	376.891
1280.07	421.038
1280.34	530.368
1280.61	629.207
1280.89	821.733
1281.16	1116.34
1281.44	1477.51
1281.71	2043.15
1281.99	2722.37
1282.26	3489.66
1282.53	4160.56
1282.81	4567.43
1283.08	4701.41
1283.36	4256.16
1283.63	3677.43
1283.91	2904.77
1284.18	2114.5
1284.45	1549.99
1284.73	1083.32
1285	840.1
1285.28	638.826
1285.55	519.504
1285.83	429.834
1286.1	362.459
1286.37	336.21
1286.65	283.552
1286.92	267.706
1287.2	254.014
1287.47	224.519
1287.75	223.433
1288.02	207.606
1288.29	200.217
1288.57	204.424
1288.84	193.905
1289.12	181.289
1289.39	190.789
1289.66	186.611
1289.94	168.744
1290.21	171.938
1290.49	174.074
1290.76	173.02
1291.03	162.467
1291.31	157.192
1291.58	143.497
1291.86	149.814
1292.13	157.18
1292.4	151.915
1292.68	137.178
1292.95	147.702
1293.22	149.796
1293.5	144.537
1293.77	137.209
1294.05	142.535
1294.32	127.833
1294.59	136.284
1294.87	129.956
1295.14	148.927
1295.42	141.571
1295.69	136.355
1295.96	129.039
1296.24	132.3
1296.51	139.752
1296.79	129.196
1297.06	114.401
1297.33	129.185
1297.61	130.219
1297.88	122.796
1298.15	118.542
1298.43	128.015
1298.7	125.917
1298.97	123.794
1299.25	131.164
1299.52	126.923
1299.79	119.513
1300.07	119.511
1300.34	126.922
1300.62	106.873
1300.89	120.602
1301.16	118.484
1301.44	104.754
1301.71	120.596
1301.98	115.336
1302.25	113.241
1302.53	116.419
1302.8	112.196
1303.08	109.025
1303.35	112.187
1303.62	103.725
1303.9	114.265
1304.17	104.757
1304.44	116.374
1304.72	107.926
1304.99	110.036
1305.26	106.855
1305.54	113.169
1305.81	112.087
1306.08	108.896
1306.35	110.979
1306.63	103.574
1306.9	102.509
1307.18	104.617
1307.45	103.571
1307.72	103.574
1308	97.2435
1308.27	108.844
1308.54	112.014
1308.81	109.897
1309.09	110.957
1309.36	100.425
1309.63	102.548
1309.91	105.728
1310.18	100.461
1310.45	101.513
1310.73	94.1192
1311	99.395
1311.27	105.731
1311.55	98.348
1311.82	106.795
1312.09	99.4149
1312.37	96.2644
1312.64	96.2779
1312.91	99.4517
1313.18	95.2232
1313.46	96.2633
1313.73	98.3707
1314	102.584
1314.28	102.575
1314.55	100.464
1314.82	99.4134
1315.09	99.4227
1315.37	93.0996
1315.64	95.222
1315.91	92.0657
1316.18	98.4145
1316.46	103.691
1316.73	101.571
1317	97.342
1317.28	93.1144
1317.55	100.506
1317.82	92.0702
1318.09	91.0223
1318.37	99.4786
1318.64	95.2563
1318.91	101.597
1319.18	88.9188
1319.46	83.6334
1319.73	88.9114
1320	96.3021
1320.28	94.1951
1320.55	102.647
1320.82	93.1334
1321.09	93.1194
1321.37	99.434
1321.64	94.1266
1321.91	94.0963
1322.18	96.1891
1322.46	97.2162
1322.73	95.0928
1323	99.2975
1323.27	92.9553
1323.55	100.317
1323.82	92.9468
1324.09	92.9502
1324.36	92.9512
1324.64	102.438
1324.91	88.7307
1325.18	88.7275
1325.45	96.1139
1325.73	93.9802
1326	92.8835
1326.27	92.8295
1326.54	94.8677
1326.81	89.5788
1327.09	99.0395
1327.36	91.7052
1327.63	99.1365
1327.9	97.0641
1328.18	92.8823
1328.45	88.7007
1328.72	94.0079
1328.99	89.8172
1329.27	98.2656
1329.54	89.8132
1329.81	90.8771
1330.08	91.9276
1330.35	98.249
1330.63	96.126
1330.9	98.217
1331.17	85.5407
1331.44	87.6225
1331.71	97.0707
1331.99	99.134
1332.26	99.0991
1332.53	96.9657
1332.8	99.0402
1333.07	100.057
1333.35	92.6605
1333.62	91.5784
1333.89	96.8041
1334.16	98.8768
1334.43	90.4467
1334.71	94.6221
1334.98	86.2006
1335.25	99.8253
1335.52	92.4602
1335.79	90.3439
1336.07	87.1806
1336.34	94.5065
1336.61	88.2002
1336.88	93.4298
1337.15	99.7084
1337.43	90.2641
1337.7	95.4965
1337.97	95.4853
1338.24	99.6521
1338.51	95.4383
1338.78	102.755
1339.06	92.2654
1339.33	96.4432
1339.6	98.5338
1339.87	95.3954
1340.14	99.5888
1340.42	92.2597
1340.69	97.4988
1340.96	93.3122
1341.23	95.4041
1341.5	90.1631
1341.77	91.2031
1342.04	87.0041
1342.32	97.4581
1342.59	97.4364
1342.86	87.9926
1343.13	90.061
1343.4	96.3235
1343.67	96.3155
1343.95	81.6698
1344.22	91.0809
1344.49	82.715
1344.76	92.127
1345.03	99.4383
1345.3	90.0109
1345.58	99.3982
1345.85	85.7807
1346.12	96.206
1346.39	97.2171
1346.66	89.8607
1346.93	101.311
1347.2	100.236
1347.47	96.0325
1347.75	94.9625
1348.02	101.199
1348.29	87.6351
1348.56	95.9647
1348.83	92.8305
1349.1	93.8572
1349.37	93.839
1349.65	95.9031
1349.92	96.9263
1350.19	98.9905
1350.46	102.095
1350.73	101.035
1351	88.5223
1351.27	106.185
1351.54	97.8457
1351.81	107.179
1352.09	101.971
1352.36	95.7296
1352.63	104.06
1352.9	96.8002
1353.17	95.7885
1353.44	109.332
1353.71	101.091
1353.98	100.142
1354.25	104.213
1354.53	105.097
1354.8	108.105
1355.07	104.999
1355.34	103.968
1355.61	104.97
1355.88	97.68
1356.15	109.141
1356.42	103.953
1356.69	97.6977
1356.96	103.92
1357.24	109.103
1357.51	103.899
1357.78	102.846
1358.05	104.906
1358.32	104.887
1358.59	98.6404
1358.86	109
1359.13	111.052
1359.4	111.03
1359.67	99.6047
1359.94	109.961
1360.22	115.116
1360.49	99.5345
1360.76	105.723
1361.03	117.098
1361.3	116.052
1361.57	108.798
1361.84	122.259
1362.11	111.894
1362.38	110.844
1362.65	129.471
1362.92	123.245
1363.19	131.523
1363.46	132.566
1363.73	138.802
1364	135.711
1364.28	138.835
1364.55	144.012
1364.82	127.429
1365.09	138.808
1365.36	128.427
1365.63	122.186
1365.9	126.297
1366.17	128.337
1366.44	133.48
1366.71	134.483
1366.98	129.273
1367.25	136.463
1367.52	142.643
1367.79	135.394
1368.06	156.083
1368.33	170.565
1368.6	243.968
1368.87	312.212
1369.15	336.009
1369.41	289.509
1369.68	237.829
1369.95	186.106
1370.23	160.24
1370.5	145.75
1370.77	150.878
1371.04	131.227
1371.31	140.499
1371.58	140.46
1371.85	135.25
1372.12	139.324
1372.39	145.46
1372.66	143.346
1372.93	153.618
1373.2	159.776
1373.47	149.447
1373.74	149.428
1374.01	144.259
1374.28	154.55
1374.55	162.781
1374.82	158.649
1375.09	164.817
1375.36	162.736
1375.63	161.711
1375.9	163.791
1376.17	173.059
1376.44	161.735
1376.71	182.293
1376.98	176.069
1377.25	185.275
1377.52	168.734
1377.79	179.046
1378.06	176.003
1378.33	195.638
1378.6	195.734
1378.87	192.748
1379.14	209.276
1379.41	201.02
1379.68	213.363
1379.95	224.67
1380.22	209.166
1380.49	230.707
1380.76	242.872
1381.03	244.817
1381.3	251.924
1381.57	265.336
1381.84	280.691
1382.11	287.755
1382.38	315.349
1382.65	324.459
1382.92	373.614
1383.19	402.202
1383.46	429.787
1383.73	494.27
1384	550.577
1384.27	664.298
1384.54	810.931
1384.81	964.802
1385.08	1249.05
1385.34	1707.93
1385.61	2425.92
1385.88	3568.01
1386.15	5262.87
1386.42	7539.06
1386.69	9709.75
1386.96	10381.4
1387.23	9281.21
1387.5	6931.77
1387.77	4615.7
1388.04	2880.69
1388.31	1859.03
1388.58	1290.24
1388.85	938.676
1389.12	754.099
1389.39	609.805
1389.66	519.497
1389.93	465.132
1390.2	403.382
1390.46	364.089
1390.73	343.448
1391	313.701
1391.27	298.199
1391.54	273.576
1391.81	258.179
1392.08	251.973
1392.35	237.567
1392.62	234.442
1392.89	219.044
1393.16	209.799
1393.43	204.657
1393.7	203.612
1393.97	188.241
1394.23	199.483
1394.5	191.282
1394.77	176.944
1395.04	178.983
1395.31	176.955
1395.58	175.961
1395.85	179.052
1396.12	183.155
1396.39	168.818
1396.66	163.686
1396.93	164.69
1397.2	169.784
1397.46	165.66
1397.73	162.56
1398	166.635
1398.27	159.474
1398.54	157.438
1398.81	162.571
1399.08	164.628
1399.35	158.498
1399.62	151.361
1399.89	158.541
1400.16	166.744
1400.42	161.624
1400.69	159.599
1400.96	160.663
1401.23	154.537
1401.5	155.555
1401.77	162.742
1402.04	158.644
1402.31	158.698
1402.58	159.812
1402.84	161.961
1403.11	158.953
1403.38	170.295
1403.65	173.4
1403.92	175.455
1404.19	177.472
1404.46	179.424
1404.73	184.58
1404.99	204.056
1405.26	201.98
1405.53	218.355
1405.8	226.518
1406.07	252.11
1406.34	278.722
1406.61	299.193
1406.87	321.718
1407.14	356.583
1407.41	386.335
1407.68	435.576
1407.95	484.813
1408.22	524.829
1408.49	533.062
1408.76	516.688
1409.02	499.294
1409.29	430.626
1409.56	356.814
1409.83	312.735
1410.1	270.695
1410.37	247.102
1410.63	207.054
1410.9	189.566
1411.17	174.132
1411.44	162.819
1411.71	157.667
1411.98	137.156
1412.25	135.102
1412.51	140.244
1412.78	120.811
1413.05	121.912
1413.32	123.084
1413.59	120.076
1413.86	112.798
1414.12	113.674
1414.39	109.597
1414.66	112.748
1414.93	97.4003
1415.2	110.74
1415.47	101.503
1415.73	111.77
1416	93.2924
1416.27	104.595
1416.54	103.577
1416.81	99.4787
1417.07	95.3804
1417.34	90.2552
1417.61	94.375
1417.88	102.605
1418.15	89.2521
1418.42	91.3087
1418.68	95.4226
1418.95	96.4545
1419.22	96.4555
1419.49	89.263
1419.76	99.5293
1420.02	92.3184
1420.29	91.2723
1420.56	90.2279
1420.83	92.2629
1421.1	87.1094
1421.36	94.2781
1421.63	89.1375
1421.9	89.1423
1422.17	86.0856
1422.44	95.3577
1422.7	92.3074
1422.97	86.189
1423.24	88.3203
1423.51	83.2493
1423.77	94.3528
1424.04	90.0543
1424.31	91.1038
1424.58	87.9421
1424.85	86.9179
1425.11	86.9425
1425.38	84.9514
1425.65	80.8593
1425.92	82.8986
1426.19	81.901
1426.45	83.9463
1426.72	78.8028
1426.99	75.7059
1427.26	78.7599
1427.52	78.7366
1427.79	81.7772
1428.06	70.485
1428.33	74.5689
1428.59	76.6114
1428.86	64.3254
1429.13	80.7121
1429.4	65.3578
1429.67	70.4857
1429.93	73.5693
1430.2	76.6584
1430.47	72.5792
1430.74	66.4439
1431	67.4891
1431.27	70.596
1431.54	70.6199
1431.81	68.5789
1432.07	75.7634
1432.34	69.5919
1432.61	65.4712
1432.87	72.6415
1433.14	61.3383
1433.41	69.5159
1433.68	68.4612
1433.95	64.3364
1434.21	68.4164
1434.48	70.457
1434.75	69.465
1435.01	63.3312
1435.28	67.4322
1435.55	62.3086
1435.82	64.3561
1436.08	64.3526
1436.35	66.3974
1436.62	60.245
1436.89	64.3368
1437.15	70.4763
1437.42	66.3726
1437.69	58.1762
1437.95	58.1692
1438.22	66.3587
1438.49	63.2891
1438.76	60.2254
1439.02	58.1816
1439.29	60.2319
1439.56	58.1856
1439.82	68.4412
1440.09	61.2819
1440.36	59.2482
1440.63	58.2298
1440.89	58.2329
1441.16	56.1825
1441.43	65.4148
1441.69	60.2822
1441.96	59.2463
1442.23	58.2155
1442.49	57.2016
1442.76	58.228
1443.03	64.3932
1443.3	54.1292
1443.56	62.3223
1443.83	60.2624
1444.1	54.1051
1444.36	61.2782
1444.63	59.2312
1444.9	61.2988
1445.16	61.3133
1445.43	56.2023
1445.7	52.0932
1445.97	55.1654
1446.23	60.2892
1446.5	54.1292
1446.77	57.2015
1447.03	52.0687
1447.3	52.064
1447.57	56.1598
1447.83	58.2027
1448.1	59.2215
1448.37	49.994
1448.63	53.0783
1448.9	47.9618
1449.17	56.1695
1449.43	47.963
1449.7	56.1629
1449.97	54.1041
1450.23	57.1706
1450.5	57.1606
1450.77	54.08
1451.03	54.0752
1451.3	48.9458
1451.57	57.1396
1451.83	50.985
1452.1	53.0286
1452.37	53.024
1452.63	54.0457
1452.9	51.9968
1453.17	50.9742
1453.43	52.0042
1453.7	49.959
1453.97	49.9588
1454.23	52.0043
1454.5	49.9514
1454.77	46.8767
1455.03	49.9503
1455.3	53.0224
1455.56	42.7719
1455.83	48.9202
1456.1	49.953
1456.36	47.9073
1456.63	52.0064
1456.9	52.0014
1457.16	53.0166
1457.43	49.9339
1457.7	51.9785
1457.96	50.9501
1458.23	43.7768
1458.49	50.9471
1458.76	42.7525
1459.03	44.8032
1459.29	45.8293
1459.56	40.7074
1459.82	45.8307
1460.09	50.9511
1460.36	51.9717
1460.62	47.8696
1460.89	49.9137
1461.16	47.8591
1461.42	42.7317
1461.69	50.9174
1461.95	48.8617
1462.22	45.7817
1462.49	43.7257
1462.75	47.8093
1463.02	42.6828
1463.28	44.7179
1463.55	50.8422
1463.82	46.7411
1464.08	46.7388
1464.35	45.7302
1464.61	47.7972
1464.88	41.6726
1465.15	43.7397
1465.41	42.6819
1465.68	44.6458
1465.94	45.6289
1466.21	40.5213
1466.48	45.6372
1466.74	44.6115
1467.01	39.4897
1467.27	42.5441
1467.54	43.5678
1467.8	47.6451
1468.07	46.6208
1468.34	45.598
1468.6	44.5765
1468.87	37.4345
1469.13	45.5915
1469.4	45.5862
1469.67	45.5799
1469.93	41.4921
1470.2	39.4429
1470.46	39.4346
1470.73	44.5235
1470.99	47.5742
1471.26	40.4382
1471.53	42.4693
1471.79	45.5156
1472.06	40.4168
1472.32	44.4864
1472.59	42.4474
1472.85	48.5549
1473.12	44.48
1473.39	40.4033
1473.65	46.5046
1473.92	42.4255
1474.18	40.3842
1474.45	40.3806
1474.71	41.3974
1474.98	41.4004
1475.24	39.3669
1475.51	39.3667
1475.78	40.3825
1476.04	40.378
1476.31	44.4422
1476.57	36.2972
1476.84	41.3802
1477.1	41.3728
1477.37	41.3653
1477.63	39.327
1477.9	39.3249
1478.16	38.3062
1478.43	37.2842
1478.69	42.3592
1478.96	43.3687
1479.22	44.3779
1479.49	40.3048
1479.76	40.2964
1480.02	39.2711
1480.29	40.2775
1480.55	40.2622
1480.82	41.2646
1481.08	42.2704
1481.35	36.178
1481.61	41.2433
1481.88	41.2463
1482.14	47.3406
1482.41	38.2144
1482.67	44.3123
1482.94	38.227
1483.2	41.2719
1483.47	38.2301
1483.73	46.3557
1484	39.2468
1484.26	43.3064
1484.53	43.288
1484.79	39.205
1485.06	40.1753
1485.32	38.0956
1485.59	44.1456
1485.85	41.078
1486.12	40.1603
1486.38	37.1309
1486.65	40.1857
1486.91	38.1165
1487.18	42.1884
1487.44	35.1004
1487.71	34.076
1487.97	37.1059
1488.24	45.2018
1488.5	46.2062
1488.77	40.1211
1489.03	36.062
1489.3	38.0783
1489.56	35.0378
1489.83	39.0809
1490.09	39.0774
1490.36	40.088
1490.62	41.0983
1490.89	42.1041
1491.15	39.0608
1491.42	41.0746
1491.68	37.0257
1491.95	42.0782
1492.21	45.1103
1492.48	42.0784
1492.74	43.0873
1493	40.0513
1493.27	42.071
1493.53	37.0155
1493.8	34.9904
1494.06	40.0424
1494.33	40.0422
1494.59	38.0223
1494.86	38.0247
1495.12	36.0005
1495.39	41.0479
1495.65	40.0244
1495.92	44.0497
1496.18	41.0065
1496.45	44.0272
1496.71	38.9726
1496.97	39.9764
1497.24	36.9422
1497.5	38.9596
1497.77	41.9863
1498.03	37.9463
1498.3	31.8894
1498.56	37.9441
1498.82	40.9719
1499.09	40.9725
1499.35	37.9456
1499.62	36.938
1499.88	35.9311
1500.15	38.9621
1500.41	36.9435
1500.68	41.9904
1500.94	40.9786
1501.2	40.9766
1501.47	40.9713
1501.73	35.9164
1502	39.95
1502.26	36.9206
1502.52	37.9275
1502.79	43.9771
1503.05	38.9229
1503.32	35.8885
1503.58	40.9258
1503.85	38.901
1504.11	41.925
1504.37	36.8863
1504.64	39.9125
1504.9	35.8783
1505.17	40.9179
1505.43	39.9045
1505.7	35.8649
1505.96	35.8539
1506.22	32.8176
1506.49	40.8741
1506.75	38.8572
1507.02	41.8806
1507.28	36.8478
1507.54	40.8791
1507.81	37.8571
1508.07	35.8406
1508.34	33.8221
1508.6	39.8649
1508.86	44.9029
1509.13	37.8503
1509.39	38.8578
1509.66	32.8106
1509.92	36.8402
1510.18	35.8358
1510.45	33.8218
1510.71	35.8297
1510.98	40.859
1511.24	37.827
1511.5	34.7948
1511.77	40.8189
1512.03	39.7904
1512.29	35.7466
1512.56	40.7529
1512.82	40.7347
1513.08	38.7146
1513.35	34.6884
1513.61	41.7081
1513.88	39.6962
1514.14	32.6765
1514.4	35.7019
1514.67	40.7274
1514.93	37.7086
1515.2	42.7201
1515.46	35.6802
1515.72	38.6813
1515.99	35.6584
1516.25	35.6468
1516.51	36.6413
1516.78	37.6396
1517.04	38.6385
1517.3	35.6272
1517.57	39.6359
1517.83	36.6279
1518.09	36.6298
1518.36	39.6445
1518.62	37.64
1518.88	37.642
1519.15	37.6434
1519.41	36.6429
1519.67	36.645
1519.94	38.6527
1520.2	36.6445
1520.47	42.6595
1520.73	38.6431
1520.99	35.6351
1521.26	41.6576
1521.52	35.6404
1521.78	40.658
1522.05	35.6387
1522.31	41.6544
1522.57	35.6298
1522.84	39.6369
1523.1	41.6379
1523.36	37.6189
1523.62	37.6067
1523.89	38.5929
1524.15	39.5835
1524.41	31.5612
1524.68	37.5635
1524.94	39.5594
1525.2	32.5532
1525.47	35.5584
1525.73	36.5605
1525.99	38.5685
1526.26	38.575
1526.52	35.5784
1526.78	33.5804
1527.05	36.5896
1527.31	38.5927
1527.57	35.5796
1527.84	37.5808
1528.1	41.5852
1528.36	39.5769
1528.63	37.5676
1528.89	37.5627
1529.15	37.5585
1529.41	38.5574
1529.68	32.5461
1529.94	36.5494
1530.2	35.5413
1530.47	36.5403
1530.73	37.5444
1530.99	40.5564
1531.25	42.5678
1531.52	40.5696
1531.78	41.5718
1532.04	38.5623
1532.31	32.5505
1532.57	41.5622
1532.83	37.5584
1533.09	38.5701
1533.36	35.5755
1533.62	40.6007
1533.88	31.5781
1534.15	35.5925
1534.41	37.5977
1534.67	39.601
1534.94	38.5941
1535.2	38.5892
1535.46	35.5764
1535.72	37.574
1535.99	36.552
1536.25	38.5437
1536.51	35.5292
1536.77	41.5236
1537.04	38.5044
1537.3	35.489
1537.56	33.4822
1537.82	37.4745
1538.09	39.4746
1538.35	34.4654
1538.61	38.4525
1538.87	39.4474
1539.14	31.4464
1539.4	40.4528
1539.66	33.4728
1539.92	40.5047
1540.19	39.5231
1540.45	36.5333
1540.71	37.5512
1540.97	31.5445
1541.24	35.5587
1541.5	36.5453
1541.76	36.5427
1542.02	37.5339
1542.29	36.5218
1542.55	32.5051
1542.81	37.5029
1543.07	41.4979
1543.34	33.4802
1543.6	35.4723
1543.86	37.4605
1544.12	39.4469
1544.39	33.4474
1544.65	39.4495
1544.91	35.4557
1545.17	35.4659
1545.43	35.473
1545.7	31.4816
1545.96	36.4952
1546.22	37.5009
1546.48	34.4992
1546.74	33.4947
1547.01	33.4955
1547.27	37.5059
1547.53	32.5
1547.79	39.5172
1548.06	36.5021
1548.32	31.4753
1548.58	42.489
1548.84	36.4823
1549.1	34.4891
1549.37	34.4558
1549.63	38.4176
1549.89	37.4087
1550.15	32.4288
1550.42	31.4615
1550.68	35.5199
1550.94	34.5553
1551.2	40.6169
1551.46	40.5883
1551.73	40.5916
1551.99	36.5669
1552.25	36.5544
1552.51	35.5662
1552.77	40.6026
1553.03	32.5619
1553.3	37.5717
1553.56	44.5662
1553.82	35.5298
1554.08	38.5352
1554.34	37.5236
1554.61	29.4911
1554.87	37.4982
1555.13	40.4896
1555.39	41.4854
1555.65	41.4818
1555.91	45.4876
1556.18	37.4755
1556.44	37.4751
1556.7	36.4669
1556.96	41.4748
1557.22	41.4768
1557.48	36.4695
1557.75	33.464
1558.01	35.4648
1558.27	39.4636
1558.53	40.4514
1558.79	36.4363
1559.06	40.4255
1559.32	31.4088
1559.58	33.3996
1559.84	38.3908
1560.1	33.3846
1560.36	32.3793
1560.63	37.3724
1560.89	36.3691
1561.15	34.3674
1561.41	36.3649
1561.67	31.3697
1561.93	36.3727
1562.19	34.3824
1562.46	39.3928
1562.72	37.3921
1562.98	36.3893
1563.24	35.3855
1563.5	36.3865
1563.76	34.3821
1564.02	32.3793
1564.29	40.3923
1564.55	30.401
1564.81	35.4079
1565.07	39.4075
1565.33	36.3836
1565.59	34.3207
1565.85	33.2388
1566.11	37.174
1566.38	32.3355
1566.64	34.3747
1566.9	36.3549
1567.16	33.3329
1567.42	32.3603
1567.68	34.3901
1567.94	35.3814
1568.2	36.3549
1568.47	37.3583
1568.73	37.3629
1568.99	38.3647
1569.25	38.3602
1569.51	31.3484
1569.77	38.3357
1570.03	34.338
1570.29	32.3412
1570.55	33.3406
1570.82	38.3373
1571.08	37.3363
1571.34	36.3344
1571.6	35.331
1571.86	34.3254
1572.12	36.3162
1572.38	37.3131
1572.64	36.3087
1572.9	37.2992
1573.17	39.2897
1573.43	36.2883
1573.69	35.2832
1573.95	33.2813
1574.21	36.2753
1574.47	33.2865
1574.73	35.2904
1574.99	39.2929
1575.25	33.3087
1575.51	35.3144
1575.78	37.3189
1576.04	30.3242
1576.3	37.3163
1576.56	35.3162
1576.82	36.3104
1577.08	42.2912
1577.34	34.2859
1577.6	32.2761
1577.86	37.2527
1578.12	40.2322
1578.38	36.2304
1578.64	40.2107
1578.9	39.2105
1579.17	40.2062
1579.43	37.2142
1579.69	37.2138
1579.95	38.2121
1580.21	36.2227
1580.47	40.2133
1580.73	40.2133
1580.99	35.2249
1581.25	35.2199
1581.51	35.2133
1581.77	35.2077
1582.03	36.1962
1582.29	36.1875
1582.55	36.1839
1582.81	32.1955
1583.07	37.1728
1583.33	38.1659
1583.59	36.1718
1583.85	37.166
1584.11	41.1451
1584.38	38.1564
1584.64	32.1828
1584.9	34.1763
1585.16	36.1692
1585.42	40.1524
1585.68	44.1335
1585.94	38.1553
1586.2	32.1751
1586.46	35.1537
1586.72	35.144
1586.98	35.1367
1587.24	28.1649
1587.5	40.1016
1587.76	35.1224
1588.02	36.1147
1588.28	37.109
1588.54	33.1312
1588.8	34.1294
1589.06	39.11
1589.32	37.1233
1589.58	37.1273
1589.84	32.152
1590.1	36.1348
1590.36	37.1295
1590.62	35.1403
1590.88	32.1562
1591.14	35.1462
1591.4	34.1484
1591.66	38.1308
1591.92	34.1441
1592.18	35.1353
1592.44	40.1039
1592.7	34.119
1592.96	35.1049
1593.22	33.109
1593.48	31.1068
1593.74	37.0575
1594	38.0345
1594.26	35.0435
1594.52	37.0243
1594.78	34.0437
1595.04	40.0072
1595.3	36.0403
1595.56	37.0381
1595.82	43.9931
1596.08	37.0192
1596.34	39.9972
1596.6	38.0099
1596.86	33.0432
1597.12	36.0234
1597.38	38.0118
1597.64	38.0144
1597.9	36.0299
1598.16	31.0607
1598.42	38.0105
1598.68	39.9891
1598.94	36.0054
1599.2	36.9883
1599.46	29.0402
1599.72	33.996
1599.98	41.9267
1600.24	37.9505
1600.5	31.9922
1600.76	33.9682
1601.02	36.933
1601.28	37.9116
1601.54	35.9163
1601.8	37.8844
1602.06	39.8535
1602.32	33.9041
1602.58	34.8863
1602.84	36.8569
1603.1	39.8149
1603.36	38.8159
1603.62	31.885
1603.88	34.8465
1604.14	35.8314
1604.4	38.7958
1604.66	37.8069
1604.92	34.8409
1605.17	33.8516
1605.43	41.7619
1605.69	34.8408
1605.95	34.8429
1606.21	31.8791
1606.47	30.8934
1606.73	33.8645
1606.99	33.8673
1607.25	34.8631
1607.51	33.9337
1607.77	33.0197
1608.03	35.0315
1608.29	34.9446
1608.55	33.8115
1608.81	38.4888
1609.07	36.8673
1609.32	37.4136
1609.58	39.5092
1609.84	34.2272
1610.1	36.8985
1610.36	36.6101
1610.62	35.5637
1610.88	37.0316
1611.14	39.94
1611.4	30.9834
1611.66	33.7944
1611.92	38.6735
1612.18	34.9265
1612.44	34.2026
1612.69	36.9004
1612.95	34.7164
1613.21	36.6794
1613.47	38.0164
1613.73	36.3475
1613.99	35.2225
1614.25	34.1674
1614.51	33.6903
1614.77	38.1244
1615.03	36.2485
1615.29	34.8348
1615.54	34.5578
1615.8	36.0468
1616.06	34.7666
1616.32	38.3015
1616.58	37.1378
1616.84	33.6248
1617.1	35.7338
1617.36	36.9229
1617.62	35.9783
1617.88	38.324
1618.13	35.956
1618.39	34.8237
1618.65	36.4059
1618.91	37.4165
1619.17	35.8016
1619.43	34.133
1619.69	36.7195
1619.95	37.2458
1620.2	37.1877
1620.46	36.1746
1620.72	36.4323
1620.98	34.505
1621.24	36.8684
1621.5	35.2911
1621.76	34.7121
1622.02	37.0504
1622.27	36.6335
1622.53	34.475
1622.79	34.0098
1623.05	34.881
1623.31	36.9421
1623.57	35.7222
1623.83	35.1299
1624.09	35.5203
1624.34	37.0894
1624.6	36.8317
1624.86	35.3798
1625.12	36.7511
1625.38	34.4675
1625.64	35.3689
1625.9	36.4692
1626.15	35.2251
1626.41	35.4213
1626.67	36.2439
1626.93	36.1885
1627.19	36.4367
1627.45	35.6301
1627.7	35.5951
1627.96	36.1348
1628.22	35.9056
1628.48	35.7419
1628.74	32.4709
1629	32.69
1629.26	35.1535
1629.51	34.8337
1629.77	34.6175
1630.03	32.4168
1630.29	35.0247
1630.55	38.1722
1630.81	34.3419
1631.06	36.6611
1631.32	33.3155
1631.53	37.9662
1631.79	36.0008
1632.05	36.0067
1632.31	34.041
1632.57	35.024
1632.84	35.0328
1633.1	34.0632
1633.36	37.0081
1633.62	36.9885
1633.88	37.9689
1634.14	37.9734
1634.4	36.9931
1634.66	37.9799
1634.93	40.9372
1635.19	36.9931
1635.45	38.9622
1635.71	37.9735
1635.97	35.9986
1636.23	38.9504
1636.49	36.9743
1636.75	36.9689
1637.02	38.9333
1637.28	34.9868
1637.54	35.9644
1637.8	33.9911
1638.06	36.9429
1638.32	38.9078
1638.58	34.9654
1638.84	37.915
1639.1	38.899
1639.37	36.9296
1639.63	34.9597
1639.89	36.9274
1640.15	34.9574
1640.41	34.9553
1640.67	37.9086
1640.93	33.9768
1641.19	40.8733
1641.46	32.0117
1641.72	35.9472
1641.98	35.9426
1642.24	37.9082
1642.5	34.9522
1642.76	39.8718
1643.02	38.885
1643.28	35.9299
1643.54	31.9911
1643.8	31.0052
1644.06	38.8754
1644.33	35.9181
1644.59	34.9278
1644.85	35.9063
1645.11	35.9043
1645.37	35.9063
1645.63	36.8942
1645.89	34.9281
1646.15	38.8641
1646.41	36.8915
1646.67	39.838
1646.93	34.9141
1647.19	34.911
1647.46	34.9067
1647.72	34.9021
1647.98	39.8153
1648.24	34.8966
1648.5	33.9137
1648.76	34.9024
1649.02	37.8597
1649.28	36.8934
1649.54	37.8844
1649.8	36.8951
1650.06	36.8902
1650.32	41.8107
1650.58	35.9146
1650.85	36.9072
1651.11	35.9282
1651.37	31.9932
1651.63	33.9673
1651.89	32.9829
1652.15	36.9241
1652.41	38.8943
1652.67	31.9965
1652.93	37.905
1653.19	38.885
1653.45	35.9264
1653.71	34.9405
1653.97	36.9118
1654.23	31.9877
1654.49	38.8873
1654.75	34.946
1655.01	34.9476
1655.27	36.9226
1655.53	32.9855
1655.8	35.9528
1656.06	37.938
1656.32	37.9462
1656.57	39.9253
1656.84	35.9798
1657.1	33.0192
1657.36	35.9788
1657.62	37.949
1657.88	32.0226
1658.14	34.9802
1658.4	33.9901
1658.66	35.959
1658.92	35.9532
1659.18	35.9472
1659.44	40.8723
1659.7	35.935
1659.96	34.943
1660.22	37.8919
1660.48	34.9367
1660.74	38.8842
1661	36.9172
1661.26	35.9366
1661.52	33.9695
1661.78	31.0155
1662.04	36.9381
1662.3	40.8876
1662.56	31.9761
1662.82	38.95
1663.08	33.0559
1663.34	36.0022
1663.6	35.0091
1663.86	36.9755
1664.12	36.8994
1664.38	35.9502
1664.64	34.9709
1664.9	37.9352
1665.16	33.0139
1665.42	36.9719
1665.68	33.9707
1665.94	31.9665
1666.2	36.9899
1666.46	33.0416
1666.72	36.0037
1666.98	37.9278
1667.24	35.8418
1667.5	33.9712
1667.76	35.9371
1668.02	36.9172
1668.28	37.8993
1668.54	33.946
1668.8	36.9058
1669.06	36.9215
1669.32	32.991
1669.58	35.9569
1669.84	31.0181
1670.1	33.9818
1670.36	35.9529
1670.62	41.8783
1670.88	35.9698
1671.14	35.9809
1671.4	33.9995
1671.66	38.938
1671.92	32.0171
1672.18	35.9712
1672.44	36.962
1672.69	32.0198
1672.95	33.0074
1673.21	33.9949
1673.47	38.9378
1673.73	33.0071
1673.99	34.9858
1674.25	36.9662
1674.51	37.9593
1674.77	36.9741
1675.03	38.9564
1675.29	35.9949
1675.55	35.9995
1675.81	40.95
1676.07	36.9912
1676.33	34.021
1676.59	35.0109
1676.85	35.0119
1677.11	28.0839
1677.37	36.0005
1677.63	36.9874
1677.89	34.0144
1678.14	36.9772
1678.4	35.98
1678.66	36.9605
1678.92	37.942
1679.18	34.9697
1679.44	34.9647
1679.7	32.9839
1679.96	35.945
1680.22	34.9522
1680.48	37.9135
1680.74	32.968
1681	38.8922
1681.26	31.9722
1681.52	32.9577
1681.78	37.8959
1682.03	34.931
1682.29	38.8817
1682.55	34.9296
1682.81	36.9054
1683.07	36.903
1683.33	34.9254
1683.59	36.8998
1683.85	37.8868
1684.11	34.9214
1684.37	34.9184
1684.63	37.8751
1684.89	41.8214
1685.14	33.9183
1685.4	31.9414
1685.66	36.8773
1685.92	29.9641
1686.18	34.9007
1686.44	31.9382
1686.7	39.8405
1686.96	37.8722
1687.22	33.9237
1687.48	38.8631
1687.73	33.9202
1687.99	35.8909
1688.25	34.8984
1688.51	34.8943
1688.77	36.8645
1689.03	32.9092
1689.29	41.7849
1689.55	37.8295
1689.81	37.8221
1690.06	35.8408
1690.32	28.9279
1690.58	32.8702
1690.84	35.8363
1691.1	37.8132
1691.36	38.8024
1691.62	39.7903
1691.88	36.8331
1692.13	32.8877
1692.39	38.8087
1692.65	32.8843
1692.91	31.8919
1693.17	37.8044
1693.43	34.836
1693.69	35.812
1693.95	34.8147
1694.2	37.7637
1694.46	37.7555
1694.72	41.6875
1694.98	35.7704
1695.24	35.769
1695.5	32.815
1695.76	34.7862
1696.01	35.7726
1696.27	34.7889
1696.53	33.8074
1696.79	35.7807
1697.05	30.852
1697.31	34.7899
1697.57	35.7679
1697.82	33.788
1698.08	39.6866
1698.34	35.7394
1698.6	36.7168
1698.86	36.7099
1699.12	35.7201
1699.38	37.6846
1699.63	39.6506
1699.89	39.652
1700.15	33.7474
1700.41	38.6672
1700.67	39.6432
1700.92	38.6568
1701.18	37.6704
1701.44	35.7
1701.7	35.696
1701.96	36.6728
1702.22	39.6146
1702.47	30.7589
1702.73	38.6151
1702.99	36.6418
1703.25	36.6388
1703.51	33.6891
1703.77	36.6337
1704.02	37.6119
1704.28	36.6263
1704.54	37.6113
1704.8	33.6848
1705.06	33.685
1705.32	35.6477
1705.57	40.5575
1705.83	32.6961
1706.09	34.6603
1706.35	35.6365
1706.61	35.6281
1706.86	36.6009
1707.12	30.7006
1707.38	36.5811
1707.64	39.5163
1707.9	35.5809
1708.16	40.4723
1708.41	29.6745
1708.67	34.5647
1708.93	37.4905
1709.19	34.5394
1709.44	36.489
1709.7	37.4618
1709.96	37.4583
1710.22	39.4147
1710.48	36.4777
1710.73	36.478
1710.99	37.4591
1711.25	37.4638
1711.51	35.5078
1711.77	32.5718
1712.02	34.5323
1712.28	32.573
1712.54	39.4243
1712.8	35.496
1713.06	33.5233
1713.31	37.4213
1713.57	38.3835
1713.83	33.4812
1714.09	31.5135
1714.34	30.5299
1714.6	37.3632
1714.86	35.4053
1715.12	38.3326
1715.38	39.3077
1715.63	38.3367
1715.89	37.3671
1716.15	36.3888
1716.41	35.4079
1716.66	39.3095
1716.92	39.3003
1717.18	31.4774
1717.44	37.3217
1717.69	37.3053
1717.95	36.3109
1718.21	36.2943
1718.47	36.2797
1718.72	34.3189
1718.98	38.2057
1719.24	34.3054
1719.5	39.1721
1719.75	33.3289
1720.01	33.3262
1720.27	35.275
1720.53	32.3545
1720.78	32.3504
1721.04	29.4235
1721.3	33.3073
1721.56	33.2995
1721.81	36.2102
1722.07	38.1462
1722.33	38.1359
1722.59	34.2371
1722.84	40.0584
1723.1	40.048
1723.36	37.1246
1723.62	36.1462
1723.87	40.0254
1724.13	38.082
1724.39	34.194
1724.64	39.046
1724.9	40.0096
1725.16	38.0573
1725.42	39.0117
1725.67	36.0877
1725.93	38.0121
1726.19	35.0945
1726.45	36.0584
1726.7	37.9984
1726.96	37.9947
1727.22	39.926
1727.47	35.0683
1727.73	30.2238
1727.99	38.949
1728.24	38.9457
1728.5	37.0012
1728.76	37.9546
1729.02	37.9018
1729.27	39.7736
1729.53	37.8209
1729.79	37.8415
1730.05	37.8602
1730.3	34.9753
1730.56	37.8502
1730.82	35.9083
1731.07	33.0082
1731.33	35.9433
1731.59	38.8442
1731.84	35.9447
1732.1	33.0436
1732.36	38.8392
1732.61	36.9019
1732.87	34.9647
1733.13	36.8907
1733.39	36.882
1733.64	33.0078
1733.9	34.9243
1734.16	35.8737
1734.41	35.862
1734.67	38.7425
1734.93	35.8377
1735.18	39.6794
1735.44	38.7027
1735.7	37.7281
1735.95	35.7939
1736.21	31.9372
1736.47	32.8959
1736.72	41.5534
1736.98	38.6601
1737.24	40.5784
1737.49	34.7996
1737.75	39.6034
1738.01	36.7123
1738.26	33.8203
1738.52	35.7351
1738.78	38.6103
1739.03	39.5623
1739.29	41.4736
1739.55	36.6584
1739.8	34.7237
1740.06	39.5057
1740.32	35.651
1740.57	36.5956
1740.83	36.5834
1741.09	33.6985
1741.34	35.6065
1741.6	38.4715
1741.86	39.4206
1742.11	39.4133
1742.37	35.5784
1742.63	36.5329
1742.88	36.5291
1743.14	35.5672
1743.4	30.7782
1743.65	37.4766
1743.91	39.3862
1744.16	36.5067
1744.42	42.2398
1744.68	39.363
1744.93	38.4028
1745.19	40.3149
1745.45	40.3147
1745.7	40.3138
1745.96	39.3544
1746.22	38.3923
1746.47	41.2522
1746.73	33.5935
1746.98	34.5382
1747.24	37.3956
1747.5	33.5637
1747.75	38.3296
1748.01	40.2292
1748.27	42.1329
1748.52	40.222
1748.78	34.4943
1749.03	34.4948
1749.29	35.451
1749.55	38.3185
1749.8	32.5942
1750.06	36.4203
1750.32	41.2045
1750.57	40.2577
1750.83	36.4422
1751.08	39.3119
1751.34	33.5797
1751.6	37.4038
1751.85	38.3541
1752.11	39.298
1752.36	37.3746
1752.62	43.0958
1752.88	32.5818
1753.13	38.3018
1753.39	37.338
1753.64	36.3758
1753.9	38.277
1754.15	34.4541
1754.41	34.4457
1754.67	40.1586
1754.92	37.2914
1755.18	40.1452
1755.43	36.327
1755.69	42.0399
1755.95	40.1263
1756.2	44.8804
1756.46	42.0112
1756.71	37.2381
1756.97	36.2734
1757.23	34.3578
1757.48	34.3471
1757.74	39.098
1757.99	34.337
1758.25	41.9474
1758.5	34.3476
1758.76	39.1076
1759.02	38.1561
1759.27	41.0105
1759.53	38.1555
1759.78	39.1082
1760.04	35.3003
1760.3	41.9577
1760.55	40.0503
1760.81	40.0457
1761.06	40.0403
1761.32	38.1308
1761.57	38.1223
1761.83	39.0655
1762.08	40.9612
1762.34	38.1055
1762.6	36.2021
1762.85	42.8623
1763.11	40.0139
1763.36	40.0139
1763.62	35.2574
1763.87	34.3069
1764.13	38.1121
1764.38	40.0174
1764.64	39.0736
1764.89	40.9905
1765.15	38.141
1765.4	40.049
1765.66	44.8117
1765.92	37.1978
1766.17	41.0066
1766.43	42.91
1766.68	36.2436
1766.94	41.9517
1767.19	36.2366
1767.45	37.1871
1767.7	43.8459
1767.96	38.129
1768.21	41.9286
1768.47	42.8744
1768.73	36.2104
1768.98	43.8172
1769.24	36.1913
1769.49	38.0712
1769.75	39.0007
1770	38.0369
1770.26	46.5834
1770.51	38.9952
1770.77	40.9043
1771.02	40.9042
1771.28	39.9563
1771.53	37.115
1771.79	38.0783
1772.04	37.1315
1772.3	38.0837
1772.55	38.0892
1772.81	37.1449
1773.06	40.0042
1773.32	43.8146
1773.57	37.1571
1773.83	43.8228
1774.08	40.0186
1774.34	41.925
1774.59	36.2144
1774.85	40.0237
1775.1	42.8852
1775.36	40.031
1775.61	40.0373
1775.87	39.1018
1776.12	42.9239
1776.38	40.0688
1776.63	41.0229
1776.89	38.1603
1777.14	37.2015
1777.4	41.0064
1777.65	39.0954
1777.91	42.8986
1778.16	47.6531
1778.42	40.0242
1778.67	39.064
1778.93	39.0549
1779.18	39.0438
1779.44	38.0806
1779.69	34.2681
1779.95	39.0235
1780.2	39.9856
1780.46	43.7945
1780.71	40.9416
1780.97	40.9445
1781.22	34.284
1781.47	40.9479
1781.73	34.2847
1781.98	39.0476
1782.24	35.2432
1782.49	40.0102
1782.75	38.1136
1783	36.213
1783.26	37.1694
1783.51	37.1728
1783.77	33.3642
1784.02	37.1809
1784.28	36.2321
1784.53	39.0988
1784.79	41.9697
1785.04	35.2973
1785.29	39.1159
1785.55	39.1151
1785.8	36.2501
1786.06	32.4296
1786.31	37.1948
1786.57	41.0102
1786.82	40.059
1787.08	37.2023
1787.33	37.2095
1787.58	36.2644
1787.84	39.1423
1788.09	42.9874
1788.35	37.2771
1788.6	35.3864
1788.86	36.358
1789.11	37.3209
1789.37	39.2442
1789.62	37.3422
1789.87	39.2675
1790.13	36.3966
1790.38	39.2762
1790.64	43.1153
1790.89	37.3629
1791.15	31.6086
1791.4	39.2681
1791.65	36.3698
1791.91	31.5771
1792.16	39.2345
1792.42	38.2766
1792.67	44.0238
1792.93	32.5321
1793.18	34.4513
1793.43	40.2015
1793.69	36.3696
1793.94	33.4951
1794.2	32.5406
1794.45	37.3322
1794.7	38.289
1794.96	37.3243
1795.21	32.5424
1795.47	36.4033
1795.72	35.4618
1795.97	38.3499
1796.23	34.5152
1796.48	31.6401
1796.74	38.3681
1796.99	33.572
1797.25	38.3821
1797.5	39.3495
1797.75	35.5106
1798.01	34.5533
1798.26	36.4792
1798.51	37.4433
1798.77	32.637
1799.02	42.2522
1799.28	34.557
1799.53	34.5524
1799.78	36.4688
1800.04	35.4998
1800.29	34.5316
1800.55	35.4867
1800.8	39.3243
1801.05	36.4383
1801.31	35.4748
1801.56	38.3544
1801.81	38.3536
1802.07	31.6304
1802.32	38.356
1802.58	35.4769
1802.83	36.4416
1803.08	38.369
1803.34	36.4535
1803.59	36.4606
1803.84	38.3894
1804.1	37.4305
1804.35	38.3935
1804.61	37.4358
1804.86	37.4421
1805.11	39.3728
1805.37	36.4935
1805.62	34.5764
1805.87	34.5841
1806.13	38.4435
1806.38	35.5596
1806.64	34.6009
1806.89	40.3868
1807.14	40.3896
1807.4	34.6076
1807.65	38.4623
1807.9	38.4617
1808.16	33.6423
1808.41	39.4252
1808.66	38.4615
1808.92	30.7507
1809.17	35.5708
1809.42	37.4993
1809.68	38.4639
1809.93	37.5007
1810.18	35.5733
1810.44	36.5379
1810.69	36.5375
1810.94	38.4632
1811.2	35.5682
1811.45	31.7107
1811.7	36.5294
1811.96	35.5641
1812.21	35.5637
1812.46	31.7082
1812.72	34.6035
1812.97	32.6789
1813.22	35.5776
1813.48	39.4407
1813.73	36.5481
1813.98	34.6227
1814.24	32.6994
1814.49	37.5343
1814.74	34.6471
1815	35.6238
1815.25	32.7314
1815.5	35.6347
1815.76	27.9056
1816.01	39.504
1816.26	41.4381
1816.52	35.6401
1816.77	38.5417
1817.02	36.6102
1817.27	37.574
1817.53	38.5343
1817.78	33.6851
1818.03	30.7757
1818.29	38.5029
1818.54	33.6791
1818.79	38.5187
1819.05	32.7255
1819.3	37.5549
1819.55	31.7582
1819.8	37.5606
1820.06	34.6642
1820.31	40.4673
1820.56	41.4382
1820.82	35.6409
1821.07	39.5126
1821.32	38.5483
1821.58	34.6833
1821.83	33.7205
1822.08	37.5953
1822.33	31.7921
1822.59	38.5696
1822.84	33.7316
1823.09	32.7646
1823.34	34.7016
1823.6	31.796
1823.85	35.6644
1824.1	37.5958
1824.36	37.594
1824.61	39.5321
1824.86	37.5988
1825.11	34.6969
1825.37	33.7313
1825.62	34.7025
1825.87	41.4832
1826.12	34.7042
1826.38	38.577
1826.63	38.5769
1826.88	37.6087
1827.14	35.6718
1827.39	35.6733
1827.64	37.6133
1827.89	36.6479
1828.15	34.7129
1828.4	32.7745
1828.65	37.6167
1828.9	39.5498
1829.16	34.7002
1829.41	33.7276
1829.66	38.5681
1829.91	37.5973
1830.17	37.5943
1830.42	34.6841
1830.67	43.3933
1830.92	34.6749
1831.18	34.6742
1831.43	38.5502
1831.68	38.5547
1831.93	39.5277
1832.19	35.6574
1832.44	35.6612
1832.69	36.6343
1832.94	41.4865
1833.2	39.5531
1833.45	38.5839
1833.7	40.5226
1833.95	34.7092
1834.2	38.5878
1834.46	35.6811
1834.71	37.6096
1834.96	36.6202
1835.21	37.5696
1835.47	39.4871
1835.72	37.5395
1835.97	32.6921
1836.22	35.5926
1836.48	34.6165
1836.73	40.5821
1836.98	35.7217
1837.23	37.612
1837.48	36.6242
1837.74	41.4395
1837.99	36.5738
1838.24	38.4695
1838.49	39.4114
1838.74	35.5412
1839	39.471
1839.25	36.5935
1839.5	42.4193
1839.75	35.6417
1840	37.584
1840.26	39.5313
1840.51	39.4942
1840.76	37.5302
1841.01	35.5727
1841.27	37.4873
1841.52	35.5363
1841.77	32.6221
1842.02	40.3317
1842.27	37.4208
1842.53	30.654
1842.78	32.5719
1843.03	36.4352
1843.28	40.2889
1843.53	35.4695
1843.78	34.5035
1844.04	36.4319
1844.29	38.3563
1844.54	30.639
1844.79	31.6066
1845.04	35.4651
1845.3	36.423
1845.55	33.5299
1845.8	39.3167
1846.05	42.2271
1846.3	33.5563
1846.55	36.466
1846.81	39.3903
1847.06	35.5038
1847.31	36.4166
1847.56	41.1689
1847.81	38.2667
1848.07	34.4162
1848.32	35.3959
1848.57	30.5938
1848.82	36.3556
1849.07	32.4939
1849.32	32.494
1849.57	33.4495
1849.83	33.439
1850.08	35.3519
1850.33	35.3406
1850.58	34.3651
1850.83	35.3153
1851.09	36.2661
1851.34	33.3754
1851.59	36.2497
1851.84	37.204
1852.09	37.1993
1852.34	35.2763
1852.59	35.2751
1852.84	36.2346
1853.1	31.4325
1853.35	35.2715
1853.6	38.1489
1853.85	37.1838
1854.1	30.4567
1854.35	33.3262
1854.6	34.2738
1854.86	31.3861
1855.11	34.257
1855.36	40.0032
1855.61	35.1985
1855.86	31.3536
1856.11	34.2207
1856.36	38.0483
1856.61	37.0876
1856.87	39.0024
1857.12	35.1701
1857.37	38.041
1857.62	32.2907
1857.87	30.3709
1858.12	31.3237
1858.37	32.2753
1858.63	34.1822
1858.88	29.389
1859.13	35.1215
1859.38	37.9814
1859.63	38.927
1859.88	34.1391
1860.13	37.9615
1860.38	32.2247
1860.63	29.3576
1860.89	31.2749
1861.14	35.1053
1861.39	32.2399
1861.64	35.1154
1861.89	33.2063
1862.14	35.1212
1862.39	36.0755
1862.64	34.1557
1862.9	37.0173
1863.15	32.2258
1863.4	36.998
1863.65	33.165
1863.9	38.8912
1864.15	31.2386
1864.4	29.3213
1864.65	36.9568
1864.9	37.9044
1865.15	32.1667
1865.4	35.976
1865.66	32.1472
1865.91	31.1816
1866.16	31.1688
1866.41	35.921
1866.66	33.9991
1866.91	36.8412
1867.16	31.1129
1867.41	31.0993
1867.66	39.6479
1867.91	36.7825
1868.16	34.8736
1868.41	34.8688
1868.67	35.8162
1868.92	33.9146
1869.17	32.9649
1869.42	32.013
1869.67	33.9118
1869.92	31.057
1870.17	31.0544
1870.42	37.7054
1870.67	28.1982
1870.92	34.8491
1871.17	31.0458
1871.42	37.6972
1871.67	35.793
1871.92	29.1366
1872.17	33.881
1872.42	35.7759
1872.68	33.8718
1872.93	35.7641
1873.18	33.857
1873.43	32.9021
1873.68	33.8491
1873.93	31.9471
1874.18	36.6872
1874.43	33.8327
1874.68	33.8243
1874.93	34.7635
1875.18	32.8572
1875.43	35.6912
1875.68	35.6804
1875.93	37.5615
1876.18	29.0182
1876.43	34.6856
1876.68	34.6741
1876.93	34.6648
1877.18	34.6591
1877.43	32.7501
1877.68	32.7294
1877.93	34.5785
1878.18	37.4394
1878.44	39.4709
1878.69	29.9486
1878.93	32.7729
1879.19	31.8218
1879.44	36.5861
1879.69	37.5497
1879.94	32.8017
1880.19	28.0566
1880.44	36.5756
1880.69	32.7853
1880.94	36.5797
1881.19	35.6239
1881.44	30.8877
1881.69	29.9277
1881.94	36.5329
1882.19	33.6776
1882.44	33.6586
1882.69	37.4155
1882.94	34.5575
1883.19	32.66
1883.44	34.5207
1883.69	32.8514
1883.94	35.5426
1884.19	28.8521
1884.44	34.5082
1884.69	38.3
1884.94	35.4512
1885.19	31.6922
1885.44	33.5945
1885.69	35.4855
1885.94	31.7147
1886.19	35.5059
1886.44	34.5691
1886.69	36.4627
1886.94	34.5694
1887.19	36.442
1887.44	34.5454
1887.69	32.6493
1887.94	31.6971
1888.19	33.5743
1888.44	34.5067
1888.69	33.5498
1888.94	31.653
1889.19	32.5839
1889.44	36.339
1889.69	33.5079
1889.94	33.5059
1890.19	37.2686
1890.44	33.5057
1890.69	36.3374
1890.94	33.5195
1891.19	34.4629
1891.43	33.5189
1891.68	40.1075
1891.94	40.1059
1892.18	37.2773
1892.43	32.5662
1892.68	32.5642
1892.93	37.2661
1893.18	33.4923
1893.43	32.5384
1893.68	34.4003
1893.93	40.9624
1894.18	33.4376
1894.43	35.3223
1894.68	36.2482
1894.93	37.1804
1895.18	35.2978
1895.43	36.2375
1895.68	29.6625
1895.93	36.2423
1896.18	32.4867
1896.43	33.43
1896.68	32.4947
1896.93	36.2611
1897.18	32.505
1897.42	35.33
1897.68	36.2732
1897.92	34.3927
1898.17	32.5104
1898.42	33.4482
1898.67	36.2649
1898.92	35.3174
1899.17	30.6079
1899.42	37.1784
1899.67	35.291
1899.92	35.2864
1900.17	38.0995
1900.42	33.397
1900.67	32.4556
1900.92	35.274
1901.16	38.0952
1901.41	35.2819
1901.66	35.2885
1901.91	37.1747
1902.16	36.2412
1902.41	38.13
1902.66	33.4341
1902.91	31.5524
1903.16	35.3112
1903.41	34.3662
1903.66	36.2421
1903.91	35.2977
1904.16	37.1751
1904.41	31.5313
1904.65	37.1706
1904.9	38.1086
1905.15	37.1656
1905.4	37.1633
1905.65	37.1619
1905.9	32.459
1906.15	35.2682
1906.4	37.134
1906.65	39.0067
1906.9	35.2445
1907.14	36.1791
1907.39	34.2976
1907.64	37.1143
1907.89	31.4811
1908.14	36.1806
1908.39	30.5502
1908.64	33.3704
1908.89	35.2506
1909.14	37.1328
1909.39	38.0778
1909.63	36.2047
1909.88	35.2729
1910.13	37.1638
1910.38	33.4119
1910.63	31.5405
1910.88	33.4325
1911.13	39.0895
1911.38	34.3856
1911.62	32.5044
1911.87	35.3308
1912.12	42.8656
1912.37	33.4427
1912.62	39.0907
1912.87	31.5543
1913.12	39.0882
1913.37	35.3201
1913.61	38.1463
1913.86	40.0354
1914.11	36.2769
1914.36	31.5746
1914.61	41.0096
1914.86	41.0174
1915.11	32.5364
1915.36	28.7682
1915.6	37.2638
1915.85	37.2652
1916.1	33.4891
1916.35	39.1468
1916.6	33.4829
1916.85	35.364
1917.1	35.3556
1917.34	35.3486
1917.59	34.3997
1917.84	35.3381
1918.09	32.507
1918.34	33.4498
1918.59	34.3966
1918.83	31.5741
1919.08	32.5252
1919.33	33.4779
1919.58	35.3759
1919.83	38.223
1920.08	34.457
1920.33	38.2424
1920.57	37.2984
1920.82	35.4036
1921.07	31.6257
1921.32	33.5233
1921.57	34.4768
1921.81	31.6447
1922.06	37.3224
1922.31	37.325
1922.56	37.3243
1922.81	36.3748
1923.06	34.4773
1923.31	39.1987
1923.55	36.3581
1923.8	36.3543
1924.05	35.4049
1924.3	35.3991
1924.55	37.2817
1924.79	32.5525
1925.04	36.3293
1925.29	37.2748
1925.54	35.3891
1925.79	35.3958
1926.04	33.5151
1926.28	36.3607
1926.53	33.5316
1926.78	34.4863
1927.03	37.3359
1927.28	35.4495
1927.52	35.4542
1927.77	34.5114
1928.02	34.515
1928.27	34.5182
1928.52	35.4685
1928.76	39.2598
1929.01	33.5791
1929.26	33.5827
1929.51	34.5351
1929.76	34.542
1930	36.4487
1930.25	34.5602
1930.5	37.4166
1930.75	35.5267
1931	34.5862
1931.24	35.5375
1931.49	38.3861
1931.74	35.5342
1931.99	37.4273
1932.24	36.4723
1932.48	33.6193
1932.73	34.5627
1932.98	36.454
1933.23	32.6567
1933.47	33.6001
1933.72	38.3447
1933.97	34.5593
1934.22	33.626
1934.46	37.4474
1934.71	36.5292
1934.96	35.6081
1935.21	31.8243
1935.46	36.6081
1935.7	32.8116
1935.95	36.637
1936.2	32.7992
1936.45	34.7012
1936.69	32.7922
1936.94	36.5988
1937.19	35.6377
1937.44	35.6281
1937.68	38.4767
1937.93	37.5158
1938.18	29.8928
1938.43	36.5479
1938.68	35.595
1938.92	36.5587
1939.17	29.8972
1939.42	33.7103
1939.67	39.43
1939.91	37.5292
1940.16	36.5819
1940.41	33.7242
1940.66	35.6377
1940.9	35.6457
1941.15	33.7608
1941.4	34.7274
1941.64	33.7722
1941.89	33.7671
1942.14	35.6618
1942.39	35.6395
1942.63	32.7909
1942.88	38.5516
1943.13	37.6051
1943.38	37.6059
1943.62	35.6808
1943.87	37.572
1944.12	37.5582
1944.37	34.7183
1944.61	33.7705
1944.86	42.3697
1945.11	36.6488
1945.35	38.5677
1945.6	36.6655
1945.85	31.8953
1946.1	35.7253
1946.34	36.6874
1946.59	35.7359
1946.84	30.9573
1947.09	37.6534
1947.33	35.739
1947.58	29.9971
1947.83	37.6431
1948.07	34.7728
1948.32	33.8155
1948.57	34.7706
1948.82	32.8547
1949.06	32.8555
1949.31	39.5553
1949.56	33.8232
1949.8	34.7864
1950.05	39.5796
1950.3	35.7602
1950.54	38.6477
1950.79	33.8741
1951.04	33.8854
1951.29	32.9391
1951.53	31.9927
1951.78	33.9235
1952.03	32.9731
1952.27	37.7796
1952.52	34.9037
1952.77	38.7504
1953.01	32.0253
1953.26	33.9516
1953.51	33.9595
1953.76	36.8309
1954	36.8161
1954.25	31.9935
1954.49	34.8518
1954.74	34.8325
1954.99	35.7738
1955.24	38.6418
1955.48	35.7658
1955.73	33.8531
1955.98	38.6533
1956.22	39.6281
1956.47	35.8178
1956.72	32.9481
1956.96	34.8781
1957.21	30.0824
1957.46	37.7722
1957.7	35.8582
1957.95	31.0602
1958.2	38.7516
1958.44	34.9106
1958.69	36.8346
1958.94	37.797
1959.18	37.7931
1959.43	32.0193
1959.68	37.7804
1959.92	34.8957
1960.17	32.9682
1960.42	32.0016
1960.66	34.8771
1960.91	38.7112
1961.16	37.743
1961.4	32.9361
1961.65	31.9705
1961.9	37.7243
1962.14	35.8054
1962.39	38.6859
1962.63	33.8877
1962.88	37.7278
1963.13	37.7286
1963.37	38.6893
1963.62	35.81
1963.87	38.6905
1964.11	36.7716
1964.36	38.6958
1964.61	34.8582
1964.85	35.817
1965.1	36.7736
1965.35	37.7338
1965.59	33.8909
1965.84	39.6521
1966.08	34.8538
1966.33	37.7413
1966.58	37.749
1966.82	39.6786
1967.07	36.8009
1967.32	35.8436
1967.56	38.7253
1967.81	39.6861
1968.05	39.6888
1968.3	40.651
1968.55	35.8452
1968.79	36.805
1969.04	30.0718
1969.29	38.7157
1969.53	31.0182
1969.78	37.7316
1970.02	34.8379
1970.27	39.6282
1970.52	33.8601
1970.76	36.7335
1971.01	37.6858
1971.25	31.9229
1971.5	34.7963
1971.75	36.7104
1971.99	30.952
1972.24	36.7087
1972.48	38.6301
1972.73	36.7126
1972.98	35.7521
1973.22	34.7889
1973.47	37.6596
1973.71	40.5271
1973.96	36.6839
1974.21	38.5954
1974.45	41.4668
1974.7	39.5474
1974.94	37.6298
1975.19	36.6719
1975.44	42.4259
1975.68	37.6369
1975.93	34.7653
1976.17	40.5234
1976.42	39.5677
1976.66	40.5287
1976.91	43.4072
1977.16	37.6511
1977.4	36.69
1977.65	40.5234
1977.89	39.5589
1978.14	40.5109
1978.39	36.6684
1978.63	37.6212
1978.88	39.5333
1979.12	38.5715
1979.37	41.4461
1979.61	40.4881
1979.86	41.4461
1980.1	38.5713
1980.35	42.4055
1980.6	42.4006
1980.84	41.4339
1981.09	35.6771
1981.33	38.5474
1981.58	39.4991
1981.82	38.536
1982.07	36.617
1982.31	39.4882
1982.56	40.4435
1982.81	41.3939
1983.05	42.3435
1983.3	43.2899
1983.54	36.5779
1983.79	46.1361
1984.03	43.261
1984.28	40.3873
1984.52	42.2955
1984.77	43.2467
1985.02	42.2859
1985.26	40.3657
1985.51	37.4866
1985.75	36.5253
1986	42.2593
1986.24	40.3495
1986.49	37.4864
1986.73	41.3165
1986.98	43.2317
1987.22	39.4045
1987.47	45.1443
1987.71	44.1796
1987.96	43.21
1988.21	47.0167
1988.45	45.0878
1988.7	44.1123
1988.94	50.7169
1989.19	38.3873
1989.43	43.1217
1989.68	40.3128
1989.92	42.8277
1990.17	40.4334
1990.41	47.5634
1990.66	42.4699
1990.9	43.913
1991.15	43.9377
1991.39	45.7939
1991.64	43.8481
1991.88	42.5979
1992.13	42.8454
1992.37	42.1739
1992.62	45.6782
1992.86	47.5392
1993.11	39.8155
1993.35	42.514
1993.6	48.7887
1993.84	45.8848
1994.09	45.548
1994.33	46.6505
1994.58	46.5362
1994.82	48.2655
1995.07	47.0364
1995.31	48.0277
1995.56	45.4404
1995.8	42.3809
1996.05	46.9968
1996.29	45.3792
1996.54	47.3981
1996.78	46.7973
1997.03	42.9583
1997.27	45.8616
1997.52	46.3948
1997.76	45.5852
1998.01	48.4851
1998.25	47.2258
1998.5	45.4599
1998.74	49.1875
1998.99	45.7252
1999.23	48.3819
1999.48	47.5067
1999.72	48.0003
1999.97	46.6007
2000.21	45.7622
2000.46	47.9576
2000.7	48.8642
2000.95	48.65
2001.19	49.4307
2001.43	48.2239
2001.68	50.1049
2001.92	48.4492
2002.17	46.5674
2002.41	48.8609
2002.66	48.7798
2002.9	48.5065
2003.15	44.4002
2003.39	49.4353
2003.64	50.121
2003.88	47.6999
2004.13	46.1046
2004.37	49.2628
2004.61	49.4697
2004.86	47.1954
2005.1	47.9736
2005.35	49.9184
2005.59	49.2201
2005.84	45.1259
2006.08	46.7359
2006.33	47.4744
2006.57	50.1018
2006.81	49.6094
2007.06	50.0334
2007.3	50.0433
2007.55	46.6147
2007.79	48.6394
2008.04	48.5999
2008.28	45.2553
2008.53	48.8903
2008.77	48.9793
2009.01	46.7604
2009.26	47.8621
2009.5	47.3536
2009.75	48.9778
2009.99	49.8859
2010.24	50.1841
2010.48	43.2221
2010.73	45.2138
2010.97	50.4106
2011.21	52.2919
2011.46	54.3489
2011.7	48.2512
2011.95	48.3246
2012.19	49.2387
2012.43	51.1231
2012.68	50.1769
2012.92	47.3481
2013.17	45.4552
2013.42	47.321
2013.67	47.297
2013.91	52.9247
2014.16	48.2052
2014.41	51.0021
2014.66	50.9748
2014.9	50.9506
2015.15	49.0667
2015.4	51.884
2015.64	44.3817
2015.89	47.2053
2016.14	51.9051
2016.39	50.9603
2016.63	41.5824
2016.88	48.1908
2017.13	47.2575
2017.37	46.3144
2017.62	47.2467
2017.87	49.1142
2018.11	48.1595
2018.36	48.1406
2018.61	47.1819
2018.86	42.4738
2019.1	47.1465
2019.35	46.19
2019.6	50.8579
2019.84	44.2899
2020.09	38.663
2020.34	46.1526
2020.58	49.8977
2020.83	48.0218
2021.08	45.2099
2021.33	43.3389
2021.57	46.1511
2021.82	41.4677
2022.07	51.768
2022.31	41.4611
2022.56	43.3276
2022.81	44.2552
2023.05	48.9239
2023.3	46.1026
2023.55	45.1568
2023.8	44.2111
2024.04	43.266
2024.29	45.1259
2024.54	46.0515
2024.78	44.1672
2025.03	44.1516
2025.27	46.004
2025.52	46.9226
2025.77	43.1755
2026.02	40.3645
2026.26	42.2152
2026.51	46.8825
2026.76	40.3681
2027	43.1942
2027.25	39.4892
2027.5	41.393
2027.74	47.0289
2027.99	36.7307
2028.23	43.2521
2028.48	45.0801
2028.73	44.0255
2028.98	40.4059
2029.22	38.6781
2029.47	38.6006
2029.72	45.1916
2029.96	43.2428
2030.21	45.0629
2030.45	43.1458
2030.7	44.0757
2030.95	43.1074
2031.19	39.4078
2031.44	40.3639
2031.69	45.0227
2031.93	41.2904
2032.18	41.2912
2032.43	39.436
2032.67	43.1833
2032.92	39.4626
2033.17	41.3439
2033.41	44.1579
2033.66	38.5579
2033.91	44.1793
2034.15	43.2501
2034.4	42.2925
2034.64	37.5931
2034.89	40.3539
2035.14	42.2088
2035.38	39.4265
2035.63	41.3068
2035.87	40.3956
2036.12	39.4897
2036.37	39.5095
2036.61	43.2485
2036.86	34.8125
2037.11	40.4221
2037.35	43.2366
2037.6	38.5605
2037.84	39.4932
2038.09	39.489
2038.34	41.3533
2038.58	38.543
2038.83	42.2747
2039.08	35.7269
2039.32	41.3261
2039.57	42.2526
2039.81	36.6416
2040.06	41.3015
2040.31	40.356
2040.55	41.2776
2040.8	41.2666
2041.04	42.1889
2041.29	36.5847
2041.54	41.2396
2041.78	38.4391
2042.03	40.3007
2042.27	34.7023
2042.52	38.4257
2042.77	38.4172
2043.01	39.3454
2043.26	40.2765
2043.5	40.2797
2043.75	41.2222
2044	38.441
2044.24	34.7253
2044.49	36.5961
2044.73	39.3927
2044.98	40.3156
2045.23	34.7034
2045.47	40.2608
2045.72	38.4444
2045.96	39.3888
2046.21	41.3129
2046.45	39.5082
2046.7	35.7342
2046.95	38.5017
2047.19	36.6062
2047.44	36.6073
2047.68	38.4624
2047.93	37.4989
2048.17	41.2193
2048.42	35.6273
2048.67	39.3577
2048.91	37.4952
2049.16	34.7014
2049.4	39.3734
2049.65	37.5156
2049.89	40.3255
2050.14	32.8717
2050.39	40.3504
2050.63	37.5593
2050.88	35.6965
2051.12	37.5664
2051.37	31.0242
2051.61	40.3577
2051.86	35.6768
2052.11	34.7423
2052.35	42.2126
2052.6	41.2848
2052.84	33.8147
2053.09	39.4227
2053.33	38.4945
2053.58	36.633
2053.82	34.7727
2054.07	35.7239
2054.31	36.6655
2054.56	40.4117
2054.8	39.4772
2055.05	40.4114
2055.3	39.4735
2055.54	37.5997
2055.79	34.785
2056.03	34.7807
2056.28	31.0388
2056.52	37.5796
2056.77	38.5099
2057.01	35.7029
2057.26	37.5717
2057.5	34.7688
2057.75	35.706
2058	38.5149
2058.24	40.3906
2058.49	35.7202
2058.73	40.4061
2058.98	39.4792
2059.22	37.6152
2059.47	33.8765
2059.71	37.6227
2059.96	35.752
2060.2	40.4335
2060.45	35.7476
2060.69	40.4216
2060.94	32.93
2061.18	36.6774
2061.43	39.4907
2061.67	34.8133
2061.92	37.6233
2062.16	33.8786
2062.41	34.8157
2062.65	33.8815
2062.9	36.6942
2063.14	39.5089
2063.39	32.958
2063.63	37.648
2063.88	29.2188
2064.12	35.7821
2064.37	37.6594
2064.61	32.9752
2064.86	33.9162
2065.1	35.7961
2065.35	37.6798
2065.59	38.629
2065.84	35.8241
2066.08	33.0165
2066.33	35.8392
2066.57	38.6608
2066.82	32.0888
2067.06	30.2136
2067.31	33.9737
2067.55	36.7943
2067.8	35.8593
2068.04	34.9253
2068.29	33.0502
2068.53	34.9331
2068.78	35.8748
2069.02	33.0596
2069.27	36.82
2069.51	36.8144
2069.76	35.8637
2070	34.9085
2070.25	33.9631
2070.49	34.9051
2070.73	31.1608
2070.98	35.8767
2071.22	34.9543
2071.47	39.6541
2071.71	35.8809
2071.96	33.0975
2072.2	31.2271
2072.45	35.9329
2072.69	34.0467
2072.94	32.162
2073.18	35.9249
2073.43	34.0414
2073.67	37.8051
2073.92	36.8649
2074.16	32.158
2074.4	33.1011
2074.65	31.221
2074.89	34.9941
2075.14	33.1187
2075.38	37.8423
2075.63	33.1441
2075.87	30.3309
2076.12	28.4538
2076.36	34.1226
2076.6	33.179
2076.85	33.1801
2077.09	36.008
2077.34	34.1127
2077.58	34.1046
2077.83	35.0316
2078.07	35.9702
2078.31	33.1448
2078.56	32.2083
2078.8	34.0976
2079.05	35.0438
2079.29	35.0484
2079.54	33.1686
2079.78	35.0725
2080.03	34.1346
2080.27	36.0296
2080.51	35.0902
2080.76	33.2044
2081	34.1495
2081.25	35.0905
2081.49	33.198
2081.74	30.3622
2081.98	30.3614
2082.22	37.9182
2082.47	34.1413
2082.71	32.2537
2082.96	32.2551
2083.2	35.0904
2083.45	36.0345
2083.69	34.1427
2083.93	38.8656
2084.18	32.2507
2084.42	36.9756
2084.67	36.9748
2084.91	33.1951
2085.15	35.0858
2085.4	36.9758
2085.64	33.1952
2085.89	35.085
2086.13	33.1969
2086.37	35.0958
2086.62	31.324
2086.86	32.2767
2087.11	27.5497
2087.35	31.337
2087.59	34.1806
2087.84	33.2372
2088.08	35.1298
2088.32	29.4517
2088.57	30.3985
2088.81	33.2389
2089.06	35.1333
2089.3	35.1347
2089.54	30.4061
2089.79	30.4109
2090.03	31.3657
2090.28	30.421
2090.52	31.3695
2090.76	33.2661
2091.01	35.1638
2091.25	34.2197
2091.5	33.2755
2091.74	34.2264
2091.98	31.3907
2092.23	32.3478
2092.47	32.3578
2092.72	35.2147
2092.96	28.5815
2093.2	35.2357
2093.45	31.4449
2093.69	34.3028
2093.93	35.2611
2094.18	35.268
2094.42	36.225
2094.66	32.4238
2094.91	34.3248
2095.15	39.0764
2095.39	37.1719
2095.64	33.3633
2095.88	34.3071
2096.13	32.4015
2096.37	27.6471
2096.61	38.0946
2096.86	32.393
2097.1	36.1911
2097.34	30.487
2097.59	28.5813
2097.83	35.2212
2098.07	33.3191
2098.32	34.2663
2098.56	32.3657
2098.8	30.4624
2099.05	27.6147
2099.29	34.2573
2099.53	30.4587
2099.78	30.4569
2100.02	34.2519
2100.27	35.2009
2100.51	33.3035
2100.75	37.1013
2101	34.2571
2101.24	33.3157
2101.48	35.221
2101.73	30.4763
2101.97	33.3273
2102.21	35.2265
2102.45	33.3257
2102.7	34.2753
2102.94	33.3231
2103.18	27.6197
2103.43	31.4113
2103.67	34.2553
2103.92	32.3554
2104.16	33.3024
2104.4	30.4549
2104.64	34.2544
2104.89	35.2088
2105.13	37.113
2105.37	30.4694
2105.62	25.7246
2105.86	33.3313
2106.1	31.4365
2106.35	27.6377
2106.59	32.393
2106.83	34.2955
2107.08	30.4939
2107.32	25.7426
2107.56	31.4478
2107.8	31.4439
2108.05	35.2395
2108.29	32.3793
2108.53	31.42
2108.78	34.2603
2109.02	39.0004
2109.26	32.3506
2109.51	32.3515
2109.75	34.2589
2109.99	36.1654
2110.23	29.5156
2110.48	37.1152
2110.72	34.2647
2110.96	34.2643
2111.21	35.2139
2111.45	36.1632
2111.69	37.1102
2111.93	33.3056
2112.18	32.3521
2112.42	34.249
2112.66	33.2988
2112.91	34.2514
2113.15	36.1543
2113.39	32.3583
2113.63	34.2663
2113.88	32.3721
2114.12	38.0778
2114.36	32.3725
2114.61	32.3693
2114.85	33.3185
2115.09	32.3693
2115.33	33.3201
2115.58	32.3675
2115.82	31.414
2116.06	33.3116
2116.31	36.1588
2116.55	37.101
2116.79	30.4452
2117.03	33.291
2117.28	35.1881
2117.52	31.3879
2117.76	34.2377
2118	30.4357
2118.25	33.2786
2118.49	34.2219
2118.73	33.2635
2118.97	36.0994
2119.22	35.1423
2119.46	30.3931
2119.7	28.4901
2119.94	30.3796
2120.19	34.1645
2120.43	32.264
2120.67	34.157
2120.91	33.21
2121.16	36.0582
2121.4	34.1656
2121.64	28.4846
2121.88	31.336
2122.13	33.2395
2122.37	33.246
2122.61	34.2006
2122.85	33.2564
2123.1	35.1588
2123.34	28.5176
2123.58	31.3676
2123.82	36.1154
2124.07	33.2642
2124.31	27.5648
2124.55	33.254
2124.79	30.3986
2125.03	31.3346
2125.28	29.4233
2125.52	31.305
2125.76	35.0827
2126	32.2308
2126.25	28.4344
2126.49	35.9978
2126.73	29.3664
2126.97	34.0898
2127.21	35.9736
2127.46	32.1833
2127.7	33.1255
2127.94	31.2325
2128.18	27.4485
2128.43	31.2264
2128.67	28.3882
2128.91	30.2784
2129.15	29.3329
2129.39	32.167
2129.64	31.2188
2129.88	32.1614
2130.12	29.3243
2130.36	29.3225
2130.6	29.3203
2130.85	34.987
2131.09	32.1487
2131.33	33.0891
2131.57	28.3611
2131.81	32.1338
2132.06	34.9616
2132.3	34.9578
2132.54	33.0652
2132.78	34.0022
2133.02	27.3896
2133.27	30.2174
2133.51	29.2729
2133.75	33.0483
2133.99	32.1054
2134.23	34.9364
2134.48	29.2751
2134.72	27.3881
2134.96	30.2182
2135.2	35.8792
2135.44	25.497
2135.68	32.1009
2135.93	31.1537
2136.17	32.0913
2136.41	31.138
2136.65	31.1283
2136.89	33.0086
2137.14	32.0669
2137.38	33.0106
2137.62	32.068
2137.86	32.0711
2138.1	32.0776
2138.34	30.1886
2138.59	33.9507
2138.83	29.2302
2139.07	33.9488
2139.31	28.301
2139.55	32.0803
2139.79	32.0639
2140.03	32.9938
2140.28	30.1608
2140.52	32.9822
2140.76	34.8616
2141	30.1478
2141.24	32.9705
2141.49	32.9675
2141.73	29.2004
2141.97	31.0772
2142.21	33.894
2142.45	33.8906
2142.69	34.8315
2142.93	31.0719
2143.18	32.9596
2143.42	33.9285
2143.66	32.0305
2143.9	33.8294
2144.14	31.9495
2144.38	31.9551
2144.62	31.0256
2144.87	29.1548
2145.11	31.0416
2145.35	31.0233
2145.59	34.7864
2145.83	31.9668
2146.07	29.1438
2146.31	29.141
2146.55	33.8384
2146.8	30.0752
2147.04	32.8921
2147.28	31.0088
2147.52	31.9437
2147.76	33.8181
2148	32.874
2148.24	30.0521
2148.48	27.2304
2148.73	32.8616
2148.97	29.1008
2149.21	30.0348
2149.45	32.8442
2149.69	30.959
2149.93	34.6979
2150.17	34.6895
2150.42	32.8044
2150.66	35.6095
2150.9	33.7309
2151.14	31.8552
2151.38	35.6069
2151.62	29.0498
2151.86	35.6157
2152.1	31.8697
2152.34	35.6228
2152.58	28.1237
2152.83	29.9947
2153.07	34.6786
2153.31	31.8591
2153.55	35.6029
2153.79	25.2892
2154.03	31.8469
2154.27	33.7152
2154.51	32.7697
2154.75	29.9485
2154.99	28.9993
2155.24	32.7302
2155.48	35.5209
2155.72	31.7692
2155.96	32.694
2156.2	31.7507
2156.44	34.5471
2156.68	28.9378
2156.92	36.4094
2157.16	36.408
2157.4	30.8029
2157.64	28.0021
2157.89	29.8742
2158.13	32.6828
2158.37	31.753
2158.61	31.7539
2158.85	31.7532
2159.09	30.8167
2159.33	31.7482
2159.57	32.6782
2159.81	32.6724
2160.05	32.6654
2160.29	34.5247
2160.53	32.6483
2160.77	28.9068
2161.01	30.7672
2161.25	35.4293
2161.5	27.9619
2161.74	32.624
2161.98	30.7546
2162.22	35.4176
2162.46	33.5512
2162.7	32.618
2162.94	33.5499
2163.18	33.5465
2163.42	30.7435
2163.66	31.6722
2163.9	32.6011
2164.14	33.5295
2164.38	31.6604
2164.62	30.7211
2164.86	31.6444
2165.11	31.6388
2165.35	33.5031
2165.59	35.3697
2165.83	34.4379
2166.07	34.4379
2166.31	32.5741
2166.55	28.8428
2166.79	34.4292
2167.03	32.5606
2167.27	37.2103
2167.51	29.7548
2167.75	32.5403
2167.99	34.3916
2168.23	30.6534
2168.47	30.6394
2168.71	32.4935
2168.95	31.5626
2169.19	32.4937
2169.43	35.2871
2169.67	32.5038
2169.91	34.3731
2170.15	29.7314
2170.39	34.3975
2170.63	28.8175
2170.87	30.6822
2171.11	30.6796
2171.35	28.811
2171.59	36.2558
2171.83	30.6572
2172.07	28.7754
2172.31	26.9051
2172.56	33.4054
2172.79	33.3992
2173.04	31.536
2173.28	30.6055
2173.51	32.4628
2173.76	28.7456
2174	29.6764
2174.24	30.609
2174.48	27.8234
2174.72	31.5418
2174.96	29.6829
2175.2	29.6823
2175.44	31.5401
2175.68	28.7496
2175.92	31.5351
2176.16	33.392
2176.4	35.2483
2176.64	30.5993
2176.88	29.6651
2177.12	32.4495
2177.36	33.3781
2177.6	30.5917
2177.84	30.5918
2178.08	36.1644
2178.32	31.5204
2178.55	28.7303
2178.8	29.6507
2179.03	32.4297
2179.28	35.2138
2179.52	31.501
2179.75	37.072
2180	35.215
2180.23	31.5004
2180.47	36.1422
2180.71	30.5699
2180.95	28.7106
2181.19	28.7084
2181.43	32.4205
2181.67	37.0594
2181.91	25.9165
2182.15	31.4815
2182.39	33.3354
2182.63	33.3307
2182.87	33.327
2183.11	32.3958
2183.35	25.8962
2183.59	28.672
2183.83	29.5902
2184.07	32.3641
2184.31	32.3586
2184.55	32.3534
2184.79	30.4984
2185.03	33.2787
2185.27	32.3549
2185.51	29.5767
2185.75	34.2127
2185.99	34.2165
2186.23	28.6592
2186.47	32.3731
2186.7	33.3058
2186.95	28.6763
2187.18	30.5405
2187.42	31.4774
2187.66	26.8433
2187.9	31.4925
2188.14	31.4938
2188.38	32.4188
2188.62	31.4842
2188.86	32.406
2189.1	31.4705
2189.34	32.3904
2189.58	30.5257
2189.82	32.3701
2190.06	34.215
2190.3	32.356
2190.54	30.5003
2190.78	27.7196
2191.01	32.3569
2191.25	33.2863
2191.49	31.4316
2191.73	32.3603
2191.97	34.2172
2192.21	36.0746
2192.45	33.295
2192.69	30.5147
2192.93	35.1553
2193.17	30.5217
2193.41	32.3826
2193.65	30.5312
2193.89	32.3944
2194.13	28.6929
2194.36	30.5647
2194.6	32.4333
2194.84	31.509
2195.08	27.7883
2195.32	36.1504
2195.56	29.6403
2195.8	34.2817
2196.04	30.5575
2196.28	31.4773
2196.52	35.18
2196.76	35.1683
2197	37.0151
2197.23	30.5131
2197.47	30.5075
2197.71	35.1402
2197.95	35.14
2198.19	34.2131
2198.43	33.2887
2198.67	32.3684
2198.91	31.4481
2199.15	30.5287
2199.38	33.325
2199.62	33.3343
2199.86	29.6277
2200.1	32.426
2200.34	39.882
2200.58	31.5276
2200.82	30.6109
2201.06	33.4173
2201.3	34.3585
2201.54	35.2986
2201.77	30.6258
2202.01	34.3165
2202.25	27.7431
2202.49	34.194
2202.73	32.3597
2202.97	36.1334
2203.21	33.3706
2203.45	33.3608
2203.68	31.4939
2203.92	35.2433
2204.16	30.6883
2204.4	31.5827
2204.64	29.7151
2204.88	32.5174
2205.12	32.4949
2205.36	36.1899
2205.59	38.0216
2205.83	36.1404
2206.07	33.3454
2206.31	32.4161
2206.55	34.283
2206.79	32.4238
2207.03	29.6225
2207.26	34.2725
2207.5	32.4175
2207.74	32.4232
2207.98	33.3597
2208.22	34.297
2208.46	30.5815
2208.7	31.5181
2208.93	38.0405
2209.17	33.3899
2209.41	31.5306
2209.65	33.3948
2209.89	31.532
2210.13	28.7368
2210.36	35.2568
2210.6	33.3981
2210.84	34.3341
2211.08	35.2711
2211.32	30.6169
2211.56	34.3494
2211.8	32.4904
2212.03	32.4971
2212.27	33.4364
2212.51	32.5083
2212.75	32.5104
2212.99	32.5078
2213.23	28.7734
2213.46	35.2986
2213.7	30.6303
2213.94	33.4214
2214.18	32.4906
2214.42	29.699
2214.66	32.5097
2214.89	30.6553
2215.13	37.1922
2215.37	29.727
2215.61	25.0607
2215.85	30.6632
2216.08	33.4647
2216.32	27.8625
2216.56	29.729
2216.8	30.6615
2217.04	33.4606
2217.28	33.4589
2217.51	32.5249
2217.75	29.725
2217.99	30.6597
2218.23	29.7256
2218.47	31.5922
2218.7	25.991
2218.94	27.8608
2219.18	29.7322
2219.42	30.6712
2219.66	27.8737
2219.9	34.4173
2220.13	29.7486
2220.37	32.5551
2220.61	32.554
2220.85	28.814
2221.09	31.6162
2221.32	27.8749
2221.56	30.6706
2221.8	33.464
2222.04	27.8536
2222.27	30.6487
2222.51	32.5115
2222.75	30.6433
2222.99	30.6452
2223.23	31.5829
2223.46	33.4549
2223.7	28.7903
2223.94	25.06
2224.18	32.5429
2224.42	30.683
2224.65	35.3668
2224.89	32.5694
2225.13	32.5762
2225.37	29.7757
2225.6	25.1029
2225.84	29.791
2226.08	30.7337
2226.32	32.6132
2226.56	26.9987
2226.79	30.7506
2227.03	27.9452
2227.27	29.8251
2227.51	27.9544
2227.74	33.5836
2227.98	27.9589
2228.22	30.7711
2228.46	33.5815
2228.69	34.5164
2228.93	32.6386
2229.17	29.824
2229.41	32.6344
2229.64	30.7591
2229.88	31.7016
2230.12	33.5854
2230.36	32.6551
2230.6	32.6606
2230.83	27.9741
2231.07	27.9795
2231.31	32.6796
2231.55	25.1739
2231.78	31.7552
2232.02	30.8215
2232.26	29.8876
2232.5	33.6529
2232.73	31.779
2232.97	30.8442
2233.21	30.8497
2233.45	30.855
2233.68	29.9194
2233.92	30.8658
2234.16	28.0463
2234.39	32.7556
2234.63	30.871
2234.87	30.8682
2235.11	32.7463
2235.34	28.0356
2235.58	30.8471
2235.82	31.7792
2236.06	30.8392
2236.29	28.9594
2236.53	32.7225
2236.77	30.843
2237	33.6656
2237.24	30.8453
2237.48	34.6157
2237.72	34.6227
2237.95	32.7528
2238.19	33.708
2238.43	32.7784
2238.67	29.9598
2238.9	29.0246
2239.14	30.9191
2239.38	32.8168
2239.61	27.1581
2239.85	34.7023
2240.09	32.8109
2240.33	30.9154
2240.56	30.9076
2240.8	30.9037
2241.04	32.8027
2241.27	29.9845
2241.51	25.2687
2241.75	32.8185
2241.99	30.9335
2242.22	27.1603
2242.46	26.2185
2242.7	31.8845
2242.93	30.0001
2243.17	33.7767
2243.41	31.887
2243.64	34.7142
2243.88	29.9898
2244.12	30.9309
2244.36	32.8171
2244.59	30.9304
2244.83	30.9348
2245.07	35.6644
2245.3	32.845
2245.54	30.022
2245.78	32.8641
2246.01	29.089
2246.25	28.1493
2246.49	31.9377
2246.72	26.2673
2246.96	32.8917
2247.2	30.0579
2247.43	31.0085
2247.67	36.6899
2247.91	31.0124
2248.14	31.0117
2248.38	30.0634
2248.62	31.0076
2248.85	30.059
2249.09	32.8959
2249.33	28.1626
2249.56	32.8921
2249.8	34.7902
2250.04	32.9013
2250.27	30.0612
2250.51	30.0571
2250.75	30.051
2250.98	31.9365
2251.22	30.9828
2251.46	32.868
2251.69	31.9175
2251.93	30.97
2252.17	32.8618
2252.4	30.0284
2252.64	30.0327
2252.88	32.8763
2253.11	33.8327
2253.35	34.7975
2253.59	32.9163
2253.82	31.9784
2254.06	24.4044
2254.3	31.9913
2254.53	31.0492
2254.77	32.0012
2255.01	35.7943
2255.24	29.1538
2255.48	33.8957
2255.72	36.7402
2255.95	28.2074
2256.19	29.1565
2256.42	32.9549
2256.66	34.8581
2256.9	29.1712
2257.13	33.9203
2257.37	32.9767
2257.61	35.8296
2257.84	29.1889
2258.08	30.1413
2258.32	34.8908
2258.55	32.9927
2258.79	28.246
2259.02	32.0477
2259.26	29.2021
2259.5	31.1064
2259.73	31.1091
2259.97	31.1114
2260.2	32.0651
2260.44	31.1177
2260.68	32.0711
2260.91	35.8768
2261.15	29.2259
2261.39	33.9909
2261.62	32.095
2261.86	31.1448
2262.1	30.1949
2262.33	30.1971
2262.57	34.0062
2262.8	31.1552
2263.04	33.0656
2263.28	32.1205
2263.51	31.1762
2263.75	32.1383
2263.98	30.243
2264.22	32.1618
2264.46	29.3119
2264.69	31.2303
2264.93	31.2391
2265.16	32.2012
2265.4	31.2526
2265.64	31.2578
2265.87	32.2138
2266.11	28.3938
2266.34	27.4361
2266.58	32.2047
2266.81	29.3325
2267.05	30.2795
2267.29	29.3182
2267.52	32.1755
2267.76	30.2624
2267.99	35.9807
2268.23	30.2503
2268.47	29.2913
2268.7	24.5218
2268.94	28.3363
2269.17	35.9692
2269.41	32.1611
2269.65	28.3529
2269.88	30.2695
2270.12	32.1877
2270.35	33.1537
2270.59	29.3424
2270.82	32.2144
2271.06	31.2626
2271.3	31.2691
2271.53	32.2305
2271.77	36.0592
2272	30.326
2272.24	34.1576
2272.47	30.3343
2272.71	30.3346
2272.95	32.2492
2273.18	31.2939
2273.42	28.4249
2273.65	31.2968
2273.89	30.3413
2274.12	28.4286
2274.36	31.301
2274.6	31.3022
2274.83	28.432
2275.07	33.2195
2275.3	32.2643
2275.54	33.2232
2275.77	30.3527
2276.01	32.2663
2276.24	31.3132
2276.48	31.3205
2276.72	31.328
2276.95	33.2512
2277.18	33.2577
2277.42	31.3475
2277.66	31.3575
2277.89	32.3285
2278.13	36.1801
2278.36	28.5136
2278.6	31.3987
2278.83	33.3217
2279.07	31.4009
2279.3	30.439
2279.54	30.4367
2279.78	29.4707
2280.01	35.2158
2280.24	30.4077
2280.48	32.3177
2280.72	26.5557
2280.95	24.6325
2281.19	30.3808
2281.42	32.2948
2281.66	31.3319
2281.89	32.287
2282.13	30.3732
2282.36	30.3751
2282.6	33.2555
2282.83	31.3439
2283.07	29.4326
2283.3	32.3174
2283.54	31.3667
2283.77	28.4986
2284.01	34.2749
2284.24	29.4843
2284.48	29.4979
2284.71	27.5822
2284.95	32.3942
2285.19	34.3256
2285.42	30.4839
2285.65	32.4107
2285.89	32.4114
2286.12	32.4041
2286.36	27.5824
2286.59	31.4284
2286.83	35.278
2287.06	28.5492
2287.3	36.2624
2287.54	31.4619
2287.77	34.3555
2288	35.3222
2288.24	37.2585
2288.47	37.2556
2288.71	36.2865
2288.94	35.3176
2289.18	41.0885
2289.41	38.1878
2289.65	37.2109
2289.88	33.35
2290.12	32.3743
2290.35	33.3308
2290.59	34.2885
2290.82	35.2497
2291.06	32.3661
2291.29	35.2551
2291.53	35.2642
2291.76	28.541
2292	34.3212
2292.23	34.327
2292.47	32.4073
2292.7	30.4875
2292.94	30.4945
2293.17	37.2444
2293.41	32.4331
2293.64	34.3651
2293.88	29.5497
2294.11	31.4788
2294.34	33.4038
2294.58	31.4721
2294.81	27.6128
2295.05	32.424
2295.28	29.5294
2295.52	31.4512
2295.75	32.4093
2295.99	32.4045
2296.22	32.4003
2296.46	31.4299
2296.69	32.3788
2296.93	30.4526
2297.16	31.417
2297.39	31.4211
2297.63	33.3517
2297.86	28.5454
2298.1	31.4422
2298.33	32.416
2298.57	27.6051
2298.8	35.3183
2299.04	29.5417
2299.27	32.4415
2299.51	32.4483
2299.74	33.4183
2299.97	30.5274
2300.21	30.5267
2300.44	32.4558
2300.68	29.5608
2300.91	29.564
2301.15	32.4636
2301.38	35.3626
2301.61	34.4012
2301.85	33.4381
2302.08	38.2649
2302.32	31.5067
2302.55	31.5035
2302.79	30.536
2303.02	32.4667
2303.25	36.3261
2303.49	30.5334
2303.72	30.5326
2303.96	34.3932
2304.19	35.3615
2304.43	28.6098
2304.66	31.5106
2304.89	33.4451
2305.13	32.4839
2305.36	29.5919
2305.6	34.4254
2305.83	30.5623
2306.07	29.5983
2306.3	28.6354
2306.53	32.5046
2306.77	36.372
2307	31.5396
2307.24	35.4051
2307.47	32.504
2307.7	31.5343
2307.94	30.5636
2308.17	33.4598
2308.41	35.3888
2308.64	36.3517
2308.87	30.5546
2309.11	35.3865
2309.34	31.5263
2309.58	33.4644
2309.81	33.4725
2310.04	35.417
2310.28	31.5553
2310.51	33.4928
2310.75	31.5587
2310.98	34.4596
2311.21	32.521
2311.45	29.6119
2311.68	30.5611
2311.92	31.5069
2312.15	34.392
2312.38	37.2789
2312.62	31.4821
2312.85	35.3362
2313.08	35.3313
2313.32	28.5763
2313.55	34.3693
2313.79	33.4142
2314.02	36.3241
2314.25	32.4707
2314.49	27.6486
2314.72	33.4563
2314.95	33.4686
2315.19	35.4143
2315.42	31.5503
2315.66	31.5416
2315.89	31.5333
2316.12	32.4934
2316.36	31.5177
2316.59	37.2961
2316.82	36.3193
2317.06	30.5203
2317.29	36.3127
2317.52	35.3487
2317.76	33.4191
2317.99	35.3597
2318.23	33.4335
2318.46	35.3533
2318.69	37.2784
2318.93	33.411
2319.16	36.3015
2319.39	38.2255
2319.63	38.2195
2319.86	38.215
2320.09	35.3171
2320.33	38.2117
2320.56	40.1424
2320.79	36.282
2321.03	40.1455
2321.26	38.2208
2321.5	30.504
2321.73	44.0272
2321.96	39.2077
2322.2	46.9472
2322.43	43.0962
2322.66	47.9404
2322.9	43.1114
2323.13	46.9759
2323.36	46.0111
2323.6	47.9479
2323.83	52.785
2324.06	55.6893
2324.3	57.6249
2324.53	59.5561
2324.76	69.2223
2325	65.3383
2325.23	75.948
2325.46	79.7847
2325.7	96.1847
2325.93	99.0625
2326.16	126.075
2326.4	162.728
2326.63	218.666
2326.86	301.594
2327.09	465.516
2327.33	645.762
2327.56	799.89
2327.79	831.587
2328.03	702.286
2328.26	524.869
2328.49	369.716
2328.73	239.599
2328.96	178.88
2329.19	132.587
2329.43	107.509
2329.66	90.1418
2329.89	82.4277
2330.13	75.6819
2330.36	65.0959
2330.59	56.4222
2330.82	57.3804
2331.06	51.5965
2331.29	47.7424
2331.52	43.8931
2331.76	38.1199
2331.99	44.8697
2332.22	38.135
2332.46	41.9775
2332.69	37.1529
2332.92	40.9993
2333.16	40.0303
2333.39	34.2479
2333.62	39.0566
2333.85	32.3139
2334.09	36.1604
2334.32	35.1926
2334.55	32.2997
2334.79	38.0625
2335.02	34.2092
2335.25	38.0521
2335.48	29.3954
2335.72	35.163
2335.95	32.2791
2336.18	36.1279
2336.41	36.1264
2336.65	36.1222
2336.88	36.1195
2337.11	36.1175
2337.34	31.3084
2337.58	37.075
2337.81	36.1117
2338.04	37.0696
2338.28	32.2604
2338.51	33.2197
2338.74	34.1789
2338.97	32.2552
2339.21	31.2949
2339.44	32.2565
2339.67	36.1008
2339.91	34.177
2340.14	36.096
2340.37	37.0522
2340.6	35.1239
2340.84	32.2354
2341.07	35.1092
2341.3	37.0193
2341.53	28.368
2341.77	36.0329
2342	33.1443
2342.23	35.056
2342.46	28.3374
2342.7	34.0853
2342.93	36.957
2343.16	34.0786
2343.39	35.0361
2343.63	33.1189
2343.86	32.1584
2344.09	35.0323
2344.32	27.364
2344.56	35.0345
2344.79	33.1181
2345.02	33.1168
2345.25	33.1142
2345.49	33.1103
2345.72	34.0629
2345.95	35.0116
2346.18	35.9626
2346.41	29.2514
2346.65	26.3759
2346.88	34.0349
2347.11	32.1177
2347.34	31.157
2347.58	31.1541
2347.81	32.1105
2348.04	30.196
2348.27	30.1975
2348.5	35.9464
2348.74	32.1182
2348.97	35.9485
2349.2	31.1567
2349.43	32.1086
2349.67	30.1804
2349.9	34.9501
2350.13	33.9759
2350.36	29.1773
2350.59	31.0652
2350.83	32.9314
2351.06	31.9091
2351.29	34.819
2351.52	33.9825
2351.75	34.975
2351.99	32.0363
2352.22	31.9999
2352.45	31.0479
2352.68	36.779
2352.91	36.756
2353.15	32.9093
2353.38	31.9331
2353.61	33.8464
2353.84	35.7482
2354.07	33.8361
2354.31	36.6936
2354.54	31.9296
2354.77	30.0319
2355	32.8975
2355.23	32.8961
2355.47	33.8464
2355.7	35.7485
2355.93	36.6973
2356.16	33.835
2356.39	30.9716
2356.63	29.057
2356.86	33.8009
2357.09	29.9825
2357.32	34.7313
2357.55	33.774
2357.79	26.162
2358.02	33.7626
2358.25	31.8565
2358.48	34.7038
2358.71	31.8498
2358.94	27.0919
2359.18	29.9388
2359.41	34.686
2359.64	37.5333
2359.87	31.8296
2360.1	33.723
2360.33	35.6141
2360.57	30.8594
2360.8	31.8008
2361.03	34.6393
2361.26	34.6307
2361.49	32.7251
2361.72	32.7166
2361.96	33.6557
2362.19	29.8561
2362.42	32.6892
2362.65	34.5743
2362.88	31.7254
2363.11	32.6652
2363.34	33.6054
2363.58	32.6534
2363.81	35.4879
2364.04	33.5912
2364.27	34.5329
2364.5	30.7438
2364.73	36.4134
2364.97	27.8968
