#Acq. time (s)=	60
#Accumulations=	2
#Range (cm-¹)=	100...4000
#Windows=	1
#Auto scanning=	Off
#Autofocus=	Off
#Macrospot=	Off
#AutoExposure=	Off
#Spike filter=	Multiple accum.
#Delay time (s)=	2
#Binning=	1
#Readout mode=	Signal
#DeNoise=	Off
#ICS correction=	On
#Dark correction=	Off
#Inst. Process=	Off
#Detector Gain=	Best Dynamic
#Detector ADC=	50 kHz HS
#Detector temperature (°C)=	-60.09
#Instrument=	LabRAM HR Evol
#Detector=	SIN-EM FIVIS
#Objective=	x100_VIS
#Grating=	150 (500nm)
#ND Filter=	100%
#Laser=	633nm_Edge
#Hole=	49.98
#Temperature=	0
#Range=	Visible
#StageXY=	75x50mm Scan+
#StageZ=	Z motor
#X (µm)=	0
#Y (µm)=	0
#Z (µm)=	-271
#Full time(mm:ss)=	2:04
#Project=	21_11_04
#Sample=	BU19w
#Site=	
#Title=	BU19w-E-FF11-FI07-V_150 (500nm)_633nm_Edge_100%_x100_VIS_H50um_60sX2
#Remark=	
#Date=	04.11.2021 16:01
#Acquired=	04.11.2021 16:01:34
102.881	320.82
106.139	282.81
109.397	261.959
112.653	252.543
115.908	231.647
119.161	220.259
122.414	226.077
125.664	221.367
128.914	212.831
132.162	197.569
135.409	214.821
138.654	203.34
141.898	187.076
145.14	182.313
148.383	202.429
151.622	203.418
154.861	234.115
158.098	245.67
161.335	240.953
164.569	201.734
167.801	177.813
171.034	139.488
174.264	133.735
177.494	128.919
180.721	118.342
183.949	120.196
187.173	113.42
190.396	106.634
193.62	112.281
196.84	116.021
200.061	116.918
203.279	107.368
206.496	110.22
209.712	113.059
212.926	119.713
216.139	126.368
219.352	149.225
222.562	186.362
225.772	234.878
228.979	289.924
232.185	299.25
235.392	253.445
238.595	202.944
241.797	170.547
244.999	150.578
248.199	160.051
251.397	155.254
254.595	159.945
257.791	165.596
260.985	160.817
264.178	162.683
267.371	165.507
270.561	160.753
273.75	177.819
276.939	176.871
280.125	179.702
283.31	177.774
286.494	154.983
289.678	146.405
292.859	139.711
296.039	145.332
299.217	139.594
302.396	152.775
305.572	167.827
308.746	198.935
311.919	247.023
315.093	322.459
318.263	412.94
321.433	482.681
324.601	422.227
327.768	330.652
330.935	272.143
334.099	211.753
337.262	175.889
340.423	176.813
343.584	162.646
346.743	164.492
349.902	175.764
353.058	181.358
356.213	187.873
359.367	185.903
362.52	172.639
365.671	166.907
368.821	134.867
371.971	118.831
375.119	112.193
378.265	115.889
381.41	106.45
384.553	104.546
387.696	103.621
390.837	113.044
393.976	118.747
397.116	116.965
400.253	119.929
403.389	117.234
406.524	129.611
409.657	141.07
412.789	138.36
415.92	145.061
419.05	155.573
422.178	173.62
425.305	194.423
428.431	198.033
431.555	198.75
434.678	196.634
437.8	176.614
440.921	182.985
444.04	181.811
447.158	181.555
450.275	174.724
453.391	189.446
456.505	184.533
459.618	154.47
462.73	136.629
465.84	122.58
468.949	113.206
472.057	113.175
475.164	103.859
478.27	108.533
481.374	108.541
484.477	113.204
487.579	115.073
490.679	113.219
493.778	127.216
496.876	121.634
499.973	133.769
503.068	144.061
506.162	161.817
509.255	158.13
512.346	162.856
515.436	168.526
518.525	181.705
521.613	167.827
524.7	167.979
527.785	162.534
530.869	156.167
533.952	153.564
537.033	148.134
540.113	132.298
543.192	128.658
546.27	122.155
549.347	112.759
552.423	108.087
555.497	111.905
558.568	104.34
561.64	92.0111
564.711	95.7129
567.78	94.6736
570.848	94.5535
573.915	96.2923
576.979	99.8842
580.043	104.403
583.107	107.065
586.169	122.806
589.228	126.408
592.287	151.494
595.345	146.753
598.402	144.865
601.458	144.923
604.511	144.095
607.565	153.541
610.617	145.28
613.667	146.373
616.716	135.344
619.764	138.354
622.811	129.181
625.856	119.058
628.9	109.779
631.944	115.517
634.986	108.948
638.026	108.931
641.066	103.222
644.104	110.655
647.14	112.451
650.177	111.422
653.211	115.988
656.244	108.33
659.276	106.312
662.308	96.8124
665.336	85.4802
668.365	82.5759
671.393	75.0566
674.418	71.338
677.443	66.6795
680.467	67.6087
683.489	72.2949
686.511	67.6669
689.53	68.66
692.549	68.736
695.567	67.8784
698.582	72.6403
701.598	66.1488
704.611	59.6391
707.624	68.1473
710.635	65.363
713.646	69.0988
716.655	62.4977
719.662	69.9914
722.669	68.098
725.674	65.245
728.679	67.0654
731.681	64.1939
734.683	61.3275
737.683	64.0779
740.683	64.9568
743.681	64.9036
746.678	66.7264
749.673	65.753
752.669	69.4644
755.661	71.3078
758.654	65.7305
761.645	64.8491
764.635	63.0566
767.623	65.0165
770.611	66.046
773.597	65.2048
776.582	69.9886
779.565	56.8988
782.549	64.4785
785.53	71.1158
788.511	66.4448
791.489	69.3033
794.466	63.6622
797.444	65.5525
800.419	66.4816
803.394	69.2833
806.366	60.7663
809.339	70.1468
812.309	63.504
815.278	70.0205
818.247	67.1264
821.214	66.1101
824.18	74.4579
827.145	76.2347
830.108	73.3577
833.072	73.3355
836.033	66.8009
838.992	71.5061
841.952	75.3208
844.909	70.7025
847.865	76.3926
850.822	74.6005
853.776	75.6288
856.728	80.4291
859.681	73.0025
862.631	81.5925
865.58	81.7052
868.528	94.1133
871.476	86.6451
874.422	95.2435
877.366	96.2421
880.311	101.027
883.253	92.5163
886.194	106.759
889.134	100.106
892.074	97.2361
895.012	94.3576
897.948	94.2925
900.883	97.978
903.818	97.8594
906.751	94.9063
909.683	92.8935
912.614	104.073
915.543	103.002
918.473	96.3393
921.4	100.045
924.326	103.788
927.251	106.617
930.174	126.425
933.098	118.037
936.019	132.296
938.94	152.324
941.859	163.939
944.777	175.602
947.693	191.132
950.61	195.319
953.525	199.497
956.438	198.89
959.35	196.325
962.261	207.115
965.171	218.829
968.08	232.474
970.988	273.908
973.894	312.439
976.801	348.955
979.705	389.132
982.608	402.322
985.51	390.523
988.411	360.519
991.311	324.805
994.209	285.313
997.107	256.418
1000	250.506
1002.9	234.137
1005.79	241.667
1008.68	226.377
1011.58	263.647
1014.47	259.013
1017.36	269.625
1020.25	264.998
1023.13	255.673
1026.02	231.089
1028.9	195.928
1031.79	168.361
1034.67	173.406
1037.55	151.545
1040.43	149.853
1043.31	149.117
1046.19	139.689
1049.07	135.034
1051.94	132.276
1054.82	123.675
1057.69	120.86
1060.56	107.325
1063.44	120.956
1066.31	116.076
1069.17	109.258
1072.04	112.155
1074.91	127.659
1077.77	139.254
1080.64	156.647
1083.5	173.053
1086.37	180.724
1089.23	215.549
1092.09	252.286
1094.95	258.991
1097.8	243.414
1100.66	222.051
1103.52	187.187
1106.37	170.809
1109.22	151.472
1112.08	139.947
1114.93	123.671
1117.78	133.604
1120.63	128.929
1123.48	126.154
1126.32	130.191
1129.17	138.168
1132.01	142.251
1134.86	153.201
1137.7	167.106
1140.54	199.708
1143.38	207.784
1146.22	237.424
1149.06	275.986
1151.89	264.324
1154.73	205.296
1157.56	159.983
1160.4	125.475
1163.23	120.443
1166.06	103.629
1168.89	100.59
1171.72	90.6899
1174.55	75.9072
1177.38	81.6967
1180.2	76.7369
1183.03	79.6136
1185.85	75.6853
1188.67	77.6391
1191.49	71.7868
1194.31	70.8498
1197.13	68.9408
1199.95	66.0765
1202.77	66.177
1205.58	61.3767
1208.4	60.5081
1211.21	64.5631
1214.02	63.7087
1216.84	58.9013
1219.65	64.0005
1222.46	64.1551
1225.27	58.328
1228.07	57.4666
1230.88	60.5983
1233.68	60.7195
1236.49	68.8735
1239.29	64.9531
1242.09	63.0141
1244.89	62.0617
1247.69	65.1303
1250.49	70.2012
1253.29	71.2308
1256.08	81.3265
1258.88	75.2353
1261.67	72.1561
1264.47	68.072
1267.26	69.036
1270.05	101.205
1272.84	192.649
1275.63	302.988
1278.42	170.144
1281.2	79.7137
1283.99	74.6286
1286.77	70.5642
1289.56	67.5156
1292.34	69.4801
1295.12	62.4655
1297.9	65.4573
1300.68	62.4589
1303.46	59.4803
1306.23	60.5191
1309.01	55.5713
1311.78	57.6563
1314.56	59.755
1317.33	61.8632
1320.1	59.9545
1322.87	64.1027
1325.64	63.218
1328.41	56.2511
1331.18	61.4434
1333.94	58.5033
1336.71	57.5857
1339.47	59.7206
1342.24	59.7976
1345	63.9561
1347.76	54.8006
1350.52	65.1044
1353.28	63.1065
1356.04	66.2291
1358.79	64.2081
1361.55	68.3403
1364.3	67.3206
1367.06	67.3158
1369.81	71.4155
1372.56	76.5377
1375.31	171.025
1378.06	395.902
1380.81	347.557
1383.56	132.934
1386.3	73.3781
1389.05	69.2566
1391.79	70.2811
1394.53	65.1627
1397.28	74.4557
1400.02	83.7595
1402.76	78.6741
1405.5	68.4428
1408.23	66.4411
1410.97	59.2855
1413.71	56.2497
1416.44	57.3467
1419.17	59.4801
1421.91	58.5152
1424.64	60.6641
1427.37	62.8173
1430.1	49.3845
1432.83	58.8168
1435.55	58.8912
1438.28	52.7034
1441.01	54.8539
1443.73	61.2042
1446.45	60.2293
1449.17	56.0899
1451.89	49.8318
1454.62	55.1047
1457.33	60.3705
1460.05	55.1289
1462.77	58.2796
1465.48	55.1241
1468.2	56.1655
1470.91	55.108
1473.63	59.3016
1476.34	53.006
1479.05	57.2158
1481.76	50.9277
1484.47	48.8427
1487.17	58.3215
1489.88	63.6117
1492.59	57.3431
1495.29	61.6052
1497.99	54.2824
1500.7	57.5034
1503.4	54.3972
1506.1	56.5761
1508.8	57.7104
1511.5	56.7293
1514.19	52.5667
1516.89	62.2229
1519.59	56.9996
1522.28	63.4983
1524.97	49.7134
1527.67	58.3655
1530.36	58.4698
1533.05	60.7339
1535.74	59.7648
1538.42	62.007
1541.11	58.8525
1543.8	62.156
1546.48	58.945
1549.16	56.7926
1551.85	60.0301
1554.53	54.5931
1557.21	58.8747
1559.89	62.082
1562.57	62.0532
1565.25	62.0221
1567.93	64.1456
1570.6	60.8786
1573.28	55.4627
1575.95	52.211
1578.62	60.8186
1581.29	54.361
1583.97	60.8249
1586.64	64.0653
1589.3	55.4651
1591.97	66.2595
1594.64	63.0586
1597.3	58.7851
1599.97	62.064
1602.63	57.7967
1605.3	56.7724
1607.96	55.7585
1610.62	61.2582
1613.28	61.359
1615.94	60.382
1618.59	67.0385
1621.25	60.6152
1623.91	57.448
1626.56	59.749
1629.21	65.3528
1631.87	56.6679
1634.52	51.2463
1637.17	59.0394
1639.82	56.866
1642.47	62.4295
1645.12	58.0574
1647.76	59.2051
1650.41	59.2406
1653.05	52.6253
1655.7	65.9457
1658.34	57.0929
1660.98	62.6462
1663.62	64.8731
1666.26	61.5499
1668.9	67.0969
1671.54	64.8796
1674.18	61.5529
1676.81	61.5451
1679.45	67.0865
1682.08	61.526
1684.71	59.2824
1687.34	60.3627
1689.98	64.7689
1692.61	60.3272
1695.23	62.5419
1697.86	60.3486
1700.49	61.5109
1703.12	65.0028
1705.74	55.1349
1708.36	65.3016
1710.99	66.3632
1713.61	62.991
1716.23	63.0419
1718.85	74.3277
1721.47	63.2216
1724.09	64.3816
1726.7	66.6855
1729.32	66.7556
1731.94	65.7019
1734.55	66.8926
1737.16	65.8318
1739.77	65.895
1742.39	70.4677
1745	70.5351
1747.61	52.521
1750.21	66.1201
1752.82	66.1601
1755.43	65.0634
1758.03	66.2168
1760.64	66.2282
1763.24	65.1064
1765.84	65.1205
1768.44	58.341
1771.05	62.8915
1773.64	65.1794
1776.24	61.8065
1778.84	59.5749
1781.44	69.8396
1784.03	64.2135
1786.63	60.858
1789.22	60.9243
1791.81	65.5522
1794.41	74.7574
1797	71.4184
1799.59	65.7941
1802.18	69.3215
1804.76	69.4185
1807.35	68.3594
1809.94	76.4861
1812.52	70.8109
1815.11	61.6659
1817.69	67.5042
1820.27	61.7992
1822.85	71.1193
1825.43	61.9384
1828.01	67.8048
1830.59	57.4428
1833.17	59.8351
1835.74	68.0574
1838.32	62.3082
1840.89	75.1906
1843.47	65.9241
1846.04	70.652
1848.61	75.3834
1851.18	62.5791
1853.75	74.3158
1856.32	73.1991
1858.89	66.2275
1861.45	66.292
1864.02	61.658
1866.58	72.308
1869.15	71.202
1871.71	74.7926
1874.27	63.0565
1876.83	70.1755
1879.39	70.2168
1881.95	74.9831
1884.51	73.8381
1887.07	70.3279
1889.63	75.0701
1892.18	72.7085
1894.74	76.2564
1897.29	69.1714
1899.84	69.1937
1902.39	69.2436
1904.94	68.1249
1907.49	77.6792
1910.04	67.0911
1912.59	71.9513
1915.14	76.8403
1917.68	72.1852
1920.23	75.7954
1922.77	72.2662
1925.32	68.7502
1927.86	70.0144
1930.4	71.2802
1932.94	76.1439
1935.48	67.8089
1938.02	71.466
1940.56	65.5066
1943.09	69.1555
1945.63	74.0062
1948.16	72.8388
1950.7	76.4775
1953.23	82.5199
1955.76	65.6674
1958.29	76.5229
1960.82	77.7366
1963.35	78.9463
1965.88	70.5101
1968.41	82.5509
1970.93	70.4818
1973.46	80.0968
1975.98	77.6666
1978.51	71.6266
1981.03	72.809
1983.55	73.9921
1986.07	73.9741
1988.59	73.9592
1991.11	73.946
1993.63	70.3292
1996.15	72.7274
1998.66	71.5248
2001.18	81.1462
2003.69	71.5387
2006.2	73.9627
2008.72	72.7821
2011.23	78.8301
2013.74	77.6579
2016.25	76.4855
2018.76	77.7107
2021.27	77.7351
2023.77	81.3914
2026.28	80.2349
2028.78	76.6693
2031.29	68.2748
2033.79	70.7595
2036.29	75.6697
2038.79	78.1668
2041.3	77.0319
2043.79	80.7546
2046.29	73.5482
2048.79	80.9327
2051.29	79.8023
2053.78	87.1716
2056.28	75.0512
2058.77	82.4651
2061.27	78.8879
2063.76	81.4251
2066.25	76.6156
2068.74	81.6066
2071.23	74.3217
2073.72	83.0095
2076.21	86.7869
2078.69	77.0136
2081.18	78.3183
2083.66	75.9143
2086.15	83.3811
2088.63	84.6684
2091.11	77.3149
2093.59	88.5334
2096.07	84.9147
2098.55	73.8432
2101.03	82.6289
2103.51	82.7328
2105.99	82.8416
2108.46	79.2133
2110.94	76.829
2113.41	88.2073
2115.89	82.0792
2118.36	79.6968
2120.83	79.8193
2123.3	84.9744
2125.77	83.8381
2128.24	80.169
2130.71	76.4843
2133.17	89.2397
2135.64	76.6735
2138.11	78.03
2140.57	85.7369
2143.03	83.287
2145.49	84.6421
2147.96	85.9905
2150.42	79.6793
2152.88	87.3864
2155.34	87.437
2157.79	83.6496
2160.25	93.9054
2162.71	79.8768
2165.16	88.8414
2167.62	87.5733
2170.07	79.9182
2172.52	79.9476
2174.97	90.2157
2177.43	85.1239
2179.88	77.4517
2182.32	90.2568
2184.77	83.8455
2187.22	83.8442
2189.67	87.6948
2192.11	87.7156
2194.56	85.1783
2197	82.6532
2199.44	83.9838
2201.89	82.7593
2204.33	93.0984
2206.77	90.6106
2209.21	86.8409
2211.64	75.3431
2214.08	81.8727
2216.52	80.6808
2218.95	91.1227
2221.39	84.7682
2223.82	95.2429
2226.26	90.1741
2228.69	91.588
2231.12	86.5013
2233.55	90.5185
2235.98	86.7208
2238.41	89.4417
2240.84	97.3968
2243.26	88.358
2245.69	92.4044
2248.12	87.2734
2250.54	90.0115
2252.96	92.7529
2255.39	90.2322
2257.81	90.3505
2260.23	87.8258
2262.65	87.9306
2265.07	86.7003
2267.49	90.7581
2269.9	84.2046
2272.32	81.6137
2274.74	90.9624
2277.15	87.0299
2279.57	89.7312
2281.98	92.4218
2284.39	93.7715
2286.8	88.461
2289.21	87.144
2291.62	97.7995
2294.03	91.156
2296.44	95.1661
2298.84	92.5374
2301.25	85.9162
2303.66	95.2944
2306.06	98.0334
2308.46	86.1042
2310.87	100.89
2313.27	92.9716
2315.67	94.4207
2318.07	97.2242
2320.47	97.3473
2322.87	108.222
2325.26	100.29
2327.66	84.2505
2330.06	88.4169
2332.45	95.3089
2334.85	95.455
2337.24	98.3167
2339.63	83.531
2342.02	95.9156
2344.41	86.5408
2346.8	96.264
2349.19	88.2258
2351.58	89.749
2353.97	95.384
2356.35	81.7754
2358.74	92.895
2361.12	87.4706
2363.51	86.1826
2365.89	90.4193
2368.27	89.1357
2370.65	90.6125
2373.03	94.8584
2375.41	96.3388
2377.79	83.9474
2380.17	96.5105
2382.55	96.5767
2384.92	95.2344
2387.3	92.4953
2389.67	93.9187
2392.05	91.1536
2394.42	102.303
2396.79	99.5204
2399.16	100.91
2401.53	96.7366
2403.9	96.7257
2406.27	91.1499
2408.64	96.7337
2411.01	89.8356
2413.37	99.6913
2415.74	106.866
2418.1	104.371
2420.47	98.9766
2422.83	97.6806
2425.19	90.7028
2427.55	89.3927
2429.91	99.3728
2432.27	95.2711
2434.63	103.89
2436.99	104.049
2439.34	105.625
2441.7	95.8425
2444.05	100.251
2446.41	91.8559
2448.76	106.257
2451.11	102.133
2453.47	90.8371
2455.82	95.2658
2458.17	99.7099
2460.51	92.6703
2462.86	95.6832
2465.21	94.3775
2467.56	94.5061
2469.9	98.9645
2472.25	106.321
2474.59	93.4214
2476.94	96.4466
2479.28	95.1214
2481.62	95.24
2483.96	98.2642
2486.3	107.111
2488.64	99.9286
2490.98	107.331
2493.32	95.7452
2495.65	109.019
2497.99	101.805
2500.32	98.9705
2502.66	107.868
2504.99	96.211
2507.32	99.23
2509.66	97.8339
2511.99	97.9012
2514.32	105.329
2516.65	102.446
2518.98	105.471
2521.3	109.986
2523.63	99.7321
2525.96	107.199
2528.28	102.841
2530.61	107.362
2532.93	101.527
2535.25	94.2038
2537.57	101.721
2539.89	97.364
2542.22	107.88
2544.53	110.971
2546.85	103.641
2549.17	108.233
2551.49	106.859
2553.8	106.975
2556.12	110.071
2558.43	107.171
2560.75	110.285
2563.06	111.908
2565.37	109.038
2567.68	103.15
2569.99	103.286
2572.3	109.462
2574.61	106.578
2576.92	109.733
2579.23	105.306
2581.53	108.442
2583.84	99.4144
2586.14	107.073
2588.45	111.691
2590.75	116.281
2593.05	107.215
2595.35	105.764
2597.66	108.9
2599.96	113.554
2602.26	107.528
2604.55	107.594
2606.85	107.656
2609.15	100.077
2611.44	103.171
2613.74	110.857
2616.03	104.781
2618.33	114.013
2620.62	106.406
2622.91	112.583
2625.2	106.513
2627.49	114.242
2629.78	109.731
2632.07	117.525
2634.36	114.586
2636.64	110.123
2638.93	110.3
2641.22	101.2
2643.5	113.742
2645.78	110.833
2648.07	120.321
2650.35	118.95
2652.63	114.466
2654.91	122.391
2657.19	106.897
2659.47	117.921
2661.75	108.634
2664.03	110.271
2666.3	119.725
2668.58	115.125
2670.85	113.66
2673.13	113.796
2675.4	115.542
2677.67	115.787
2679.95	116.09
2682.22	119.529
2684.49	116.627
2686.76	121.664
2689.03	126.716
2691.29	110.993
2693.56	117.601
2695.83	124.091
2698.09	117.801
2700.36	114.725
2702.62	122.877
2704.89	118.172
2707.15	121.502
2709.41	121.609
2711.67	112.04
2713.93	110.53
2716.19	112.281
2718.45	130.178
2720.7	109.262
2722.96	115.84
2725.22	120.786
2727.47	128.977
2729.73	116.063
2731.98	96.6192
2734.23	106.411
2736.49	114.575
2738.74	121.112
2740.99	117.924
2743.24	122.878
2745.49	121.334
2747.73	113.281
2749.98	124.812
2752.23	118.478
2754.47	121.911
2756.72	122.038
2758.96	112.306
2761.21	117.303
2763.45	117.402
2765.69	114.23
2767.93	115.994
2770.17	121.034
2772.41	129.398
2774.65	124.597
2776.89	114.847
2779.13	115.005
2781.36	118.515
2783.6	122.033
2785.84	123.904
2788.07	115.782
2790.3	120.975
2792.54	111.138
2794.77	118.002
2797	118.161
2799.23	109.926
2801.46	115.1
2803.69	123.639
2805.92	128.819
2808.14	122.204
2810.37	125.692
2812.59	122.428
2814.82	124.209
2817.04	119.226
2819.27	124.395
2821.49	129.575
2823.71	124.598
2825.93	121.312
2828.15	128.202
2830.37	124.902
2832.59	128.395
2834.81	119.975
2837.03	108.138
2839.24	126.962
2841.46	127.054
2843.67	115.204
2845.89	117.014
2848.1	120.54
2850.31	137.772
2852.53	117.366
2854.74	127.804
2856.95	122.813
2859.16	129.843
2861.37	126.573
2863.57	116.41
2865.78	137.32
2867.99	127.157
2870.19	106.562
2872.4	120.607
2874.6	134.699
2876.81	127.949
2879.01	128.159
2881.21	124.885
2883.41	121.607
2885.61	127.088
2887.81	125.556
2890.01	131.046
2892.21	111.883
2894.41	115.598
2896.6	112.275
2898.8	131.973
2901	118.016
2903.19	134.204
2905.38	130.848
2907.58	127.479
2909.77	116.951
2911.96	127.815
2914.15	131.537
2916.34	122.722
2918.53	124.662
2920.72	119.429
2922.91	132.166
2925.09	123.343
2927.28	130.734
2929.47	129.12
2931.65	129.314
2933.83	133.106
2936.02	140.515
2938.2	115.25
2940.38	111.722
2942.56	117.283
2944.74	133.765
2946.92	128.393
2949.1	115.725
2951.28	126.754
2953.46	134.146
2955.63	126.935
2957.81	106.918
2959.98	130.771
2962.16	134.531
2964.33	125.478
2966.5	132.919
2968.68	129.368
2970.85	127.651
2973.02	142.478
2975.19	122.371
2977.36	144.588
2979.52	141.036
2981.69	124.572
2983.86	141.347
2986.03	119.322
2988.19	126.887
2990.36	110.366
2992.52	129.099
2994.68	142.299
2996.85	118.293
2999.01	127.806
3001.17	141.092
3003.33	141.328
3005.49	130.32
3007.65	141.809
3009.8	130.754
3011.96	151.672
3014.12	144.374
3016.27	137.065
3018.43	141.103
3020.58	131.873
3022.74	135.9
3024.89	136.111
3027.04	134.393
3029.19	126.933
3031.34	140.467
3033.49	138.708
3035.64	131.182
3037.79	137.039
3039.94	121.845
3042.09	139.259
3044.23	143.232
3046.38	147.207
3048.52	145.408
3050.67	149.386
3052.81	136.007
3054.95	141.924
3057.09	153.653
3059.24	159.592
3061.38	150.051
3063.51	150.183
3065.65	148.376
3067.79	158.212
3069.93	154.464
3072.07	154.6
3074.2	164.472
3076.34	164.625
3078.47	174.53
3080.61	174.692
3082.74	149.456
3084.87	155.487
3087	143.919
3089.14	165.675
3091.27	160.02
3093.39	160.263
3095.52	158.556
3097.65	162.761
3099.78	165.001
3101.91	159.341
3104.03	169.54
3106.16	165.882
3108.28	154.253
3110.41	180.481
3112.53	166.854
3114.65	171.18
3116.77	171.518
3118.89	165.825
3121.01	158.115
3123.13	172.582
3125.25	164.869
3127.37	173.353
3129.49	167.665
3131.61	168.079
3133.72	174.617
3135.84	172.992
3137.95	187.766
3140.06	177.906
3142.18	192.721
3144.29	186.925
3146.4	172.81
3148.51	187.665
3150.62	194.233
3152.73	192.455
3154.84	190.664
3156.95	190.945
3159.06	184.955
3161.16	176.858
3163.27	191.796
3165.37	183.667
3167.48	192.315
3169.58	196.763
3171.69	178.09
3173.79	197.315
3175.89	199.632
3177.99	201.926
3180.09	187.275
3182.19	197.997
3184.29	189.653
3186.39	202.492
3188.49	204.694
3190.58	204.833
3192.68	173.136
3194.77	186.045
3196.87	203.278
3198.96	180.116
3201.06	201.799
3203.15	182.9
3205.24	189.662
3207.33	179.305
3209.42	190.422
3211.51	173.56
3213.6	176.085
3215.69	172.143
3217.78	192.038
3219.86	181.55
3221.95	186.27
3224.04	184.458
3226.12	182.646
3228.2	191.777
3230.29	183.36
3232.37	181.523
3234.45	175.23
3236.53	168.912
3238.61	175.863
3240.7	187.301
3242.77	169.914
3244.85	176.982
3246.93	168.4
3249.01	162.017
3251.08	171.21
3253.16	160.247
3255.23	169.411
3257.31	165.11
3259.38	165.372
3261.46	172.406
3263.53	170.455
3265.6	182.114
3267.67	171.327
3269.74	176.148
3271.81	149.241
3273.88	160.898
3275.95	165.62
3278.02	140.639
3280.08	161.384
3282.15	161.548
3284.21	159.419
3286.28	154.988
3288.34	164.333
3290.41	155.288
3292.47	146.218
3294.53	162.479
3296.59	158.005
3298.65	160.458
3300.71	149.082
3302.77	167.734
3304.83	147.057
3306.89	154.156
3308.95	145.021
3311	152.117
3313.06	152.243
3315.11	157.042
3317.17	159.51
3319.22	164.335
3321.27	162.176
3323.33	155.368
3325.38	155.557
3327.43	148.74
3329.48	148.936
3331.53	163.285
3333.58	168.293
3335.63	154.442
3337.67	147.629
3339.72	157.294
3341.77	155.114
3343.81	143.421
3345.86	172.044
3347.9	136.552
3349.95	155.696
3351.99	179.625
3354.03	155.965
3356.07	146.602
3358.11	149.155
3360.15	158.877
3362.19	156.67
3364.23	144.867
3366.27	161.796
3368.31	149.97
3370.34	154.937
3372.38	155.087
3374.42	152.816
3376.45	160.158
3378.48	143.402
3380.52	160.385
3382.55	148.425
3384.58	146.105
3386.61	143.778
3388.64	155.952
3390.68	131.842
3392.7	139.173
3394.73	158.637
3396.76	149.058
3398.79	139.469
3400.82	171.115
3402.84	156.63
3404.87	159.131
3406.89	147.057
3408.92	147.127
3410.94	137.449
3412.96	149.671
3414.98	139.991
3417	161.97
3419.03	154.723
3421.05	162.091
3423.06	159.706
3425.08	159.763
3427.1	140.317
3429.12	142.835
3431.14	145.366
3433.15	133.24
3435.17	150.466
3437.18	143.243
3439.2	145.821
3441.21	148.405
3443.22	151.006
3445.23	148.719
3447.25	134.141
3449.26	129.38
3451.27	139.411
3453.28	137.133
3455.28	142.288
3457.29	140.046
3459.3	152.702
3461.31	138.046
3463.31	143.273
3465.32	146.022
3467.32	123.776
3469.33	146.528
3471.33	149.279
3473.33	149.455
3475.34	127.035
3477.34	149.903
3479.34	134.991
3481.34	135.193
3483.34	137.921
3485.34	127.981
3487.33	153.539
3489.33	141.042
3491.33	125.966
3493.32	143.968
3495.32	131.384
3497.32	134.086
3499.31	139.342
3501.3	124.124
3503.3	142.159
3505.29	142.279
3507.28	144.94
3509.27	139.877
3511.26	142.493
3513.25	134.835
3515.24	129.739
3517.23	147.766
3519.22	137.526
3521.2	132.422
3523.19	140.177
3525.18	140.229
3527.16	124.842
3529.15	130.017
3531.13	124.93
3533.11	148.23
3535.1	145.788
3537.08	133.033
3539.06	133.198
3541.04	143.696
3543.02	125.691
3545	143.956
3546.98	136.284
3548.96	149.37
3550.93	136.457
3552.91	141.664
3554.89	136.509
3556.86	146.98
3558.84	149.667
3560.81	139.345
3562.78	134.233
3564.76	129.124
3566.73	137.079
3568.7	137.243
3570.67	150.466
3572.64	145.381
3574.61	150.788
3576.58	132.592
3578.55	138.027
3580.52	159.284
3582.48	154.247
3584.45	138.634
3586.41	146.774
3588.38	131.099
3590.35	155.161
3592.31	142.105
3594.27	136.991
3596.23	147.846
3598.2	132.047
3600.16	148.24
3602.12	140.406
3604.08	137.904
3606.04	119.298
3608	140.899
3609.95	130.296
3611.91	119.671
3613.87	135.956
3615.83	130.694
3617.78	133.519
3619.74	117.434
3621.69	136.414
3623.64	128.36
3625.6	136.511
3627.55	120.331
3629.5	128.479
3631.45	131.203
3633.4	139.347
3635.35	125.857
3637.3	139.454
3639.25	131.413
3641.2	136.948
3643.15	112.65
3645.09	123.63
3647.04	134.662
3648.98	134.695
3650.93	129.315
3652.87	129.39
3654.82	126.725
3656.76	124.057
3658.7	129.567
3660.64	126.893
3662.58	140.585
3664.53	135.182
3666.47	140.715
3668.4	132.59
3670.34	124.448
3672.28	127.245
3674.22	124.594
3676.16	124.693
3678.09	124.807
3680.03	135.917
3681.96	141.569
3683.9	125.231
3685.83	125.405
3687.76	106.26
3689.69	131.284
3691.63	142.545
3693.56	126.103
3695.49	134.578
3697.42	118.09
3699.35	129.378
3701.28	146.273
3703.2	135.29
3705.13	127.097
3707.06	135.668
3708.98	116.248
3710.91	127.627
3712.83	127.801
3714.76	144.831
3716.68	136.549
3718.6	131.057
3720.53	136.834
3722.45	122.847
3724.37	137.092
3726.29	137.209
3728.21	117.507
3730.13	131.78
3732.05	129.071
3733.97	140.552
3735.88	137.845
3737.8	123.748
3739.72	121.009
3741.63	126.807
3743.55	129.762
3745.46	129.862
3747.38	144.235
3749.29	124.322
3751.2	141.549
3753.11	133.036
3755.02	115.918
3756.93	118.821
3758.84	133.175
3760.75	136.072
3762.66	127.509
3764.57	138.999
3766.48	107.498
3768.39	121.87
3770.29	133.394
3772.2	127.713
3774.1	124.897
3776.01	127.824
3777.91	127.888
3779.81	125.089
3781.72	130.93
3783.62	128.152
3785.52	125.371
3787.42	139.885
3789.32	131.32
3791.22	131.41
3793.12	134.404
3795.02	120.061
3796.92	143.347
3798.81	126.098
3800.71	129.131
3802.61	120.554
3804.5	143.953
3806.4	123.739
3808.29	126.798
3810.18	126.939
3812.08	106.622
3813.97	118.426
3815.86	124.398
3817.75	121.592
3819.64	115.843
3821.53	130.627
3823.42	118.988
3825.31	127.898
3827.2	142.713
3829.09	125.165
3830.97	134.127
3832.86	128.354
3834.75	125.518
3836.63	110.847
3838.52	113.894
3840.4	119.904
3842.28	117.088
3844.17	108.271
3846.05	102.393
3847.93	138.049
3849.81	129.188
3851.69	135.175
3853.57	123.316
3855.45	117.404
3857.33	126.333
3859.21	129.302
3861.08	141.208
3862.96	123.399
3864.84	135.384
3866.71	123.61
3868.59	138.685
3870.46	123.901
3872.34	123.936
3874.21	117.993
3876.08	129.983
3877.95	130.023
3879.82	133.054
3881.69	124.127
3883.56	124.175
3885.44	121.236
3887.3	127.285
3889.17	127.35
3891.04	118.429
3892.91	127.514
3894.77	133.646
3896.64	130.752
3898.51	124.835
3900.37	130.955
3902.23	119.006
3904.1	119.087
3905.96	128.228
3907.82	122.273
3909.69	116.319
3911.55	113.396
3913.41	128.623
3915.27	113.594
3917.13	119.773
3918.99	116.868
3920.84	129.168
3922.7	135.414
3924.56	132.525
3926.42	105.223
3928.27	108.387
3930.13	123.779
3931.98	114.715
3933.84	130.108
3935.69	127.14
3937.54	124.162
3939.4	127.333
3941.25	112.095
3943.1	130.662
3944.95	121.558
3946.8	130.914
3948.65	121.784
3950.5	118.794
3952.35	125.056
3954.19	106.6
3956.04	115.945
3957.89	109.823
3959.73	131.532
3961.58	131.584
3963.42	116.148
3965.27	128.577
3967.11	128.604
3968.96	110.022
3970.8	125.534
3972.64	116.255
3974.48	119.377
3976.32	116.295
3978.16	110.104
3980	122.512
3981.84	119.403
3983.68	122.498
3985.52	103.89
3987.36	125.592
3989.19	116.289
3991.03	122.506
3992.86	119.431
3994.7	116.363
3996.53	113.307
3998.37	110.256
