#Acq. time (s)=	30
#Accumulations=	2
#Range (cm-¹)=	1200...2365
#Windows=	3
#Auto scanning=	Off
#Autofocus=	Off
#Macrospot=	Off
#AutoExposure=	Off
#Spike filter=	Multiple accum.
#Delay time (s)=	2
#Binning=	1
#Readout mode=	Signal
#DeNoise=	Off
#ICS correction=	On
#Dark correction=	Off
#Inst. Process=	Off
#Detector Gain=	Best Dynamic
#Detector ADC=	50 kHz HS
#Detector temperature (°C)=	-60.09
#Instrument=	LabRAM HR Evol
#Detector=	SIN-EM FIVIS
#Objective=	x100_VIS_LWD
#Grating=	1800 (450-850nm)
#ND Filter=	100%
#Laser=	532nm_Edge
#Hole=	49.98
#Temperature=	0
#Range=	Visible
#StageXY=	75x50mm Scan+
#StageZ=	Z motor
#X (µm)=	0
#Y (µm)=	0
#Z (µm)=	-9.4
#Full time(mm:ss)=	3:15
#Project=	21_11_26
#Sample=	BU19(2)w
#Site=	
#Title=	BU19(2)w-A-FF1-FI02-V_1800 (450-850nm)_532nm_Edge_100%_x100_VIS_LWD_H50um_30sX2
#Remark=	
#Date=	26.11.2021 11:57
#Acquired=	26.11.2021 11:57:19
1202.72	769.462
1203	780.224
1203.28	779.362
1203.56	748.706
1203.84	778.214
1204.11	762.741
1204.39	793.572
1204.67	766.691
1204.95	772.112
1205.23	788.042
1205.5	794.145
1205.78	781.959
1206.06	795.507
1206.34	777.912
1206.61	763.561
1206.89	779.237
1207.17	775.61
1207.45	779.55
1207.73	773.952
1208	778.004
1208.28	770.341
1208.56	741.243
1208.84	772.003
1209.11	771.748
1209.39	790.751
1209.67	759.605
1209.95	773.429
1210.23	795.765
1210.5	784.87
1210.78	769.542
1211.06	807.636
1211.34	775.303
1211.61	757.889
1211.89	771.488
1212.17	788.197
1212.45	778.256
1212.72	783.328
1213	793.71
1213.28	777.451
1213.56	793.225
1213.83	783.496
1214.11	796.061
1214.39	784.342
1214.67	789.65
1214.94	764.065
1215.22	766.143
1215.5	768.198
1215.78	791.535
1216.05	794.619
1216.33	776.279
1216.61	756.809
1216.89	792.591
1217.16	762.468
1217.44	784.504
1217.72	768.299
1218	777.59
1218.27	767.809
1218.55	771.839
1218.83	759.957
1219.1	763.007
1219.38	780.948
1219.66	773.402
1219.94	778.565
1220.21	780.504
1220.49	798.465
1220.77	772.968
1221.04	797.274
1221.32	792.907
1221.6	768.334
1221.88	792.533
1222.15	793.318
1222.43	788.725
1222.71	767.141
1222.98	805.871
1223.26	783.227
1223.54	794.456
1223.81	782.454
1224.09	769.455
1224.37	788.15
1224.65	779.464
1224.92	802.495
1225.2	796.009
1225.48	782.219
1225.76	785.438
1226.03	766.472
1226.31	778.143
1226.59	762.216
1226.86	791.679
1227.14	786.206
1227.42	809.245
1227.69	790.848
1227.97	773.178
1228.25	794.782
1228.52	782.703
1228.8	778.757
1229.08	779.166
1229.35	795.87
1229.63	787.27
1229.91	783.63
1230.18	790.225
1230.46	783.108
1230.74	786.997
1231.01	787.039
1231.29	793.898
1231.57	789.133
1231.84	783.979
1232.12	793.377
1232.4	751.273
1232.67	816.279
1232.95	753.177
1233.23	763.595
1233.5	801.292
1233.78	772.865
1234.06	806.479
1234.33	784.445
1234.61	809.696
1234.89	781.398
1235.16	793.045
1235.44	793.064
1235.71	794.144
1235.99	804.711
1236.27	793.168
1236.54	796.264
1236.82	779.299
1237.1	783.335
1237.37	800.983
1237.65	799.616
1237.93	795.082
1238.2	776.906
1238.48	801.764
1238.76	786.743
1239.03	792.772
1239.31	803.074
1239.58	792.434
1239.86	793.355
1240.14	788.017
1240.41	796.332
1240.69	788.946
1240.97	772.152
1241.24	786.824
1241.52	787.857
1241.79	784.596
1242.07	804.32
1242.35	798.944
1242.62	798.914
1242.9	786.343
1243.18	797.94
1243.45	798.002
1243.73	814.719
1244	802.102
1244.28	808.401
1244.56	786.332
1244.83	797.766
1245.11	787.161
1245.39	783.801
1245.66	779.367
1245.94	796.854
1246.21	805.965
1246.49	808.946
1246.76	791.042
1247.04	796.235
1247.32	798.268
1247.59	796.062
1247.87	803.328
1248.14	828.311
1248.42	822.726
1248.7	794.281
1248.97	808.84
1249.25	815.12
1249.52	804.677
1249.8	806.67
1250.08	811.828
1250.35	803.425
1250.63	799.028
1250.9	774.731
1251.18	798.551
1251.45	774.313
1251.73	796.072
1252.01	820.959
1252.28	813.452
1252.56	809.08
1252.83	829.763
1253.11	795.096
1253.39	814.727
1253.66	826.08
1253.94	817.691
1254.21	806.298
1254.49	821.021
1254.76	806.539
1255.04	810.741
1255.31	811.741
1255.59	792.964
1255.87	819.026
1256.14	803.278
1256.42	811.624
1256.69	806.423
1256.97	801.275
1257.24	798.136
1257.52	815.806
1257.79	849.063
1258.07	819.703
1258.35	848.832
1258.62	822.614
1258.9	849.618
1259.17	852.503
1259.45	831.563
1259.72	822.222
1260	822.299
1260.27	847.664
1260.55	830.692
1260.82	840.884
1261.1	825.924
1261.37	828.806
1261.65	854.703
1261.92	875.644
1262.2	862.812
1262.48	873.318
1262.75	871.737
1263.02	897.408
1263.3	873.322
1263.58	869.745
1263.85	896.655
1264.13	869.101
1264.4	880.338
1264.68	860.865
1264.95	843.548
1265.23	861.062
1265.5	867.286
1265.78	850.445
1266.05	850.245
1266.33	833.478
1266.6	827.224
1266.88	853.419
1267.15	845.174
1267.43	852.647
1267.7	812.047
1267.98	843.626
1268.25	855.373
1268.53	832.681
1268.8	844.463
1269.08	828.874
1269.35	848.872
1269.63	827.979
1269.9	833.124
1270.18	849.654
1270.45	836.781
1270.73	853.307
1271	793.392
1271.28	846.583
1271.55	845.435
1271.83	841.091
1272.1	833.786
1272.38	840.218
1272.65	850.883
1272.93	822.891
1273.2	820.968
1273.47	829.526
1273.75	824.466
1274.03	835.126
1274.3	846.842
1274.57	830.157
1274.85	856.377
1275.12	848.955
1275.4	846.816
1275.67	838.475
1275.95	855.357
1276.22	850.219
1276.5	822.042
1276.77	847.346
1277.05	833.817
1277.32	852.795
1277.6	833.006
1277.87	831.066
1278.14	863.803
1278.42	850.269
1278.69	869.31
1278.97	862.157
1279.24	890.654
1279.52	885.498
1279.79	889.613
1280.07	889.496
1280.34	909.328
1280.61	946.059
1280.89	993.42
1281.16	1006.1
1281.44	1068.38
1281.71	1174.98
1281.99	1298.25
1282.26	1471.86
1282.53	1742.5
1282.81	2011.13
1283.08	2219.17
1283.36	2274.85
1283.63	2220.25
1283.91	2082.78
1284.18	1760.09
1284.45	1555.97
1284.73	1327.39
1285	1186.39
1285.28	1045.13
1285.55	992.965
1285.83	964.149
1286.1	917.799
1286.37	947.444
1286.65	908.428
1286.92	909.266
1287.2	861.831
1287.47	887.001
1287.75	858.405
1288.02	873.995
1288.29	870.699
1288.57	863.28
1288.84	872.732
1289.12	856.966
1289.39	860.211
1289.66	851.901
1289.94	850.964
1290.21	845.835
1290.49	842.78
1290.76	826.932
1291.03	866.823
1291.31	842.506
1291.58	825.599
1291.86	853.983
1292.13	821.259
1292.4	837.021
1292.68	848.619
1292.95	842.207
1293.22	826.3
1293.5	830.513
1293.77	834.959
1294.05	852.129
1294.32	833.475
1294.59	832.476
1294.87	844.035
1295.14	844.987
1295.42	830.334
1295.69	815.875
1295.96	862.735
1296.24	853.811
1296.51	832.99
1296.79	859.461
1297.06	837.245
1297.33	834.996
1297.61	845.374
1297.88	843.044
1298.15	835.412
1298.43	825.642
1298.7	843.652
1298.97	831.925
1299.25	801.122
1299.52	812.581
1299.79	836.684
1300.07	803.909
1300.34	832.516
1300.62	838.895
1300.89	815.647
1301.16	847.241
1301.44	820.771
1301.71	838.719
1301.98	814.532
1302.25	856.867
1302.53	832.604
1302.8	806.178
1303.08	843.096
1303.35	825.042
1303.62	816.458
1303.9	829.993
1304.17	858.43
1304.44	857.351
1304.72	834.08
1304.99	810.796
1305.26	811.708
1305.54	838.967
1305.81	839.786
1306.08	837.442
1306.35	831.917
1306.63	811.668
1306.9	814.716
1307.18	849.473
1307.45	831.577
1307.72	815.738
1308	815.684
1308.27	816.69
1308.54	832.514
1308.81	847.187
1309.09	829.26
1309.36	818.801
1309.63	829.427
1309.91	834.783
1310.18	812.658
1310.45	845.309
1310.73	823.051
1311	818.788
1311.27	817.726
1311.55	813.506
1311.82	808.224
1312.09	823.026
1312.37	837.908
1312.64	828.488
1312.91	812.665
1313.18	791.468
1313.46	814.524
1313.73	828.177
1314	840.725
1314.28	807.899
1314.55	833.187
1314.82	834.25
1315.09	823.735
1315.37	816.407
1315.64	823.855
1315.91	808.082
1316.18	869.409
1316.46	835.53
1316.73	821.704
1317	820.57
1317.28	828.952
1317.55	815.18
1317.82	823.706
1318.09	845.928
1318.37	852.279
1318.64	817.409
1318.91	809.991
1319.18	842.702
1319.46	821.506
1319.73	835.162
1320	845.653
1320.28	835.104
1320.55	823.451
1320.82	836.039
1321.09	805.242
1321.37	811.351
1321.64	839.579
1321.91	835.044
1322.18	834.848
1322.46	821.906
1322.73	817.53
1323	854.284
1323.27	834.077
1323.55	832.815
1323.82	800.184
1324.09	826.539
1324.36	807.53
1324.64	816.952
1324.91	819.031
1325.18	835.835
1325.45	810.538
1325.73	819.771
1326	805.653
1326.27	835.679
1326.54	805.563
1326.81	824.217
1327.09	820.954
1327.36	809.615
1327.63	843.815
1327.9	821.954
1328.18	821.152
1328.45	842.518
1328.72	800.626
1328.99	853.591
1329.27	829.364
1329.54	841.875
1329.81	827.152
1330.08	840.789
1330.35	816.412
1330.63	837.357
1330.9	844.539
1331.17	821.096
1331.44	795.505
1331.71	832.024
1331.99	815.813
1332.26	829.169
1332.53	846.783
1332.8	817.016
1333.07	828.256
1333.35	839.478
1333.62	811.825
1333.89	852.512
1334.16	843.816
1334.43	837.232
1334.71	813.864
1334.98	838.811
1335.25	830.192
1335.52	842.577
1335.79	829.782
1336.07	852.666
1336.34	816.82
1336.61	852.305
1336.88	802.866
1337.15	844.661
1337.43	813.089
1337.7	838.131
1337.97	809.697
1338.24	826.213
1338.51	834.355
1338.78	834.187
1339.06	830.861
1339.33	829.678
1339.6	857.881
1339.87	823.316
1340.14	825.414
1340.42	832.718
1340.69	829.566
1340.96	798.132
1341.23	858.814
1341.5	826.267
1341.77	836.635
1342.04	844.873
1342.32	831.082
1342.59	822.482
1342.86	823.262
1343.13	835.552
1343.4	848.987
1343.67	824.823
1343.95	826.843
1344.22	827.838
1344.49	838.269
1344.76	823.583
1345.03	840.195
1345.3	795.051
1345.58	840.82
1345.85	848.865
1346.12	837.11
1346.39	830.509
1346.66	831.087
1346.93	821.379
1347.2	832.559
1347.47	816.606
1347.75	841.354
1348.02	833.856
1348.29	826.407
1348.56	842.965
1348.83	843.901
1349.1	817.672
1349.37	853.936
1349.65	854.763
1349.92	830.606
1350.19	843.945
1350.46	844.79
1350.73	830.016
1351	838.089
1351.27	834.707
1351.54	818.921
1351.81	811.383
1352.09	843.511
1352.36	832.015
1352.63	805.031
1352.9	841.572
1353.17	853.237
1353.44	843.967
1353.71	859.238
1353.98	838.12
1354.25	852.893
1354.53	856.742
1354.8	819.437
1355.07	826.76
1355.34	862.117
1355.61	885.656
1355.88	850.136
1356.15	842.077
1356.42	841.062
1356.69	848.105
1356.96	858.363
1357.24	862.398
1357.51	833.189
1357.78	843.418
1358.05	849.469
1358.32	839.933
1358.59	842.847
1358.86	836.431
1359.13	812.351
1359.4	855.712
1359.67	829.615
1359.94	828.425
1360.22	847.86
1360.49	851.705
1360.76	833.803
1361.03	842.922
1361.3	881.136
1361.57	863.469
1361.84	825.067
1362.11	863.297
1362.38	852.792
1362.65	855.762
1362.92	856.668
1363.19	834.851
1363.46	849.358
1363.73	858.784
1364	877.495
1364.28	851.666
1364.55	861.972
1364.82	861.869
1365.09	903.16
1365.36	869.814
1365.63	878.89
1365.9	860.002
1366.17	862.863
1366.44	842.964
1366.71	840.648
1366.98	838.287
1367.25	866.889
1367.52	868.774
1367.79	850.041
1368.06	868.717
1368.33	869.776
1368.6	868.753
1368.87	861.528
1369.15	888.417
1369.41	921.535
1369.68	946.373
1369.95	902.79
1370.23	883
1370.5	870.449
1370.77	852.606
1371.04	860.714
1371.31	860.508
1371.58	885.005
1371.85	864.011
1372.12	871.873
1372.39	871.488
1372.66	856.694
1372.93	877.038
1373.2	871.687
1373.47	852.972
1373.74	855.911
1374.01	874.325
1374.28	862.871
1374.55	881.31
1374.82	861.633
1375.09	873.882
1375.36	879.906
1375.63	889.17
1375.9	874.818
1376.17	860.33
1376.44	872.7
1376.71	870.367
1376.98	872.164
1377.25	867.706
1377.52	893.017
1377.79	881.769
1378.06	899.457
1378.33	884.333
1378.6	886.799
1378.87	897.567
1379.14	887.368
1379.41	870.795
1379.68	890.22
1379.95	890.046
1380.22	897.027
1380.49	913.069
1380.76	893.743
1381.03	889.161
1381.3	902.146
1381.57	907.399
1381.84	882.435
1382.11	927.194
1382.38	939.004
1382.65	927.262
1382.92	936.111
1383.19	928.517
1383.46	953.851
1383.73	978.135
1384	958.432
1384.27	989.006
1384.54	1004.38
1384.81	1063.89
1385.08	1093.79
1385.34	1128.93
1385.61	1241.19
1385.88	1392.38
1386.15	1568.22
1386.42	1898
1386.69	2501.24
1386.96	3327.27
1387.23	4111.92
1387.5	4162.99
1387.77	3434.76
1388.04	2535.09
1388.31	1903.99
1388.58	1479.52
1388.85	1290.17
1389.12	1176.81
1389.39	1079.99
1389.66	1048.2
1389.93	1004.13
1390.2	991.421
1390.46	961.864
1390.73	965.562
1391	932.673
1391.27	926.09
1391.54	941.338
1391.81	927.884
1392.08	932.746
1392.35	894.557
1392.62	916.838
1392.89	924.827
1393.16	908.273
1393.43	893.793
1393.7	888.539
1393.97	925.256
1394.23	892.388
1394.5	899.444
1394.77	886.042
1395.04	882.894
1395.31	868.623
1395.58	852.354
1395.85	876.983
1396.12	897.457
1396.39	884.078
1396.66	883.959
1396.93	897.113
1397.2	908.208
1397.46	881.39
1397.73	898.569
1398	871.845
1398.27	900.432
1398.54	881.017
1398.81	871.875
1399.08	889.288
1399.35	878.04
1399.62	864.848
1399.89	894.583
1400.16	888.488
1400.42	891.507
1400.69	859.861
1400.96	895.879
1401.23	879.562
1401.5	874.366
1401.77	871.36
1402.04	908.18
1402.31	898.21
1402.58	860.765
1402.84	908.448
1403.11	874.958
1403.38	852.622
1403.65	896.86
1403.92	881.428
1404.19	887.358
1404.46	878.595
1404.73	870.479
1404.99	880.617
1405.26	894.829
1405.53	888.472
1405.8	925.175
1406.07	888.056
1406.34	928.872
1406.61	927.705
1406.87	914.263
1407.14	883.516
1407.41	938.893
1407.68	920.482
1407.95	923.574
1408.22	949.221
1408.49	1008.71
1408.76	1005.65
1409.02	990.303
1409.29	995.483
1409.56	985.27
1409.83	971.974
1410.1	949.421
1410.37	929.892
1410.63	917.355
1410.9	906.801
1411.17	902.369
1411.44	882.642
1411.71	899.862
1411.98	872.038
1412.25	883.234
1412.51	862.83
1412.78	886.618
1413.05	872.792
1413.32	876.91
1413.59	872.285
1413.86	859.234
1414.12	885.706
1414.39	866.384
1414.66	852.576
1414.93	859.106
1415.2	864.14
1415.47	883.639
1415.73	892.843
1416	848.682
1416.27	869.25
1416.54	860.05
1416.81	832.368
1417.07	842.689
1417.34	857.135
1417.61	844.872
1417.88	856.228
1418.15	862.404
1418.42	870.602
1418.68	864.434
1418.95	843.883
1419.22	855.16
1419.49	831.5
1419.76	868.362
1420.02	868.154
1420.29	857.663
1420.56	862.593
1420.83	878.801
1421.1	866.245
1421.36	881.437
1421.63	884.394
1421.9	856.695
1422.17	855.864
1422.44	906.448
1422.7	868.711
1422.97	852.707
1423.24	835.934
1423.51	857.254
1423.77	868.474
1424.04	860.405
1424.31	869.835
1424.58	883.272
1424.85	855.577
1425.11	866.04
1425.38	863.546
1425.65	834.902
1425.92	870.634
1426.19	863.725
1426.45	850.284
1426.72	827.524
1426.99	867.254
1427.26	837.239
1427.52	866.666
1427.79	835.527
1428.06	857.734
1428.33	848.335
1428.59	840.048
1428.86	879.953
1429.13	877.919
1429.4	824.706
1429.67	855.49
1429.93	850.467
1430.2	838.321
1430.47	852.862
1430.74	832.509
1431	864.52
1431.27	836.151
1431.54	862.064
1431.81	845.757
1432.07	860.09
1432.34	833.206
1432.61	857.586
1432.87	862.541
1433.14	838.644
1433.41	851.605
1433.68	851.192
1433.95	865.144
1434.21	829.043
1434.48	854.516
1434.75	861.035
1435.01	837.616
1435.28	849.909
1435.55	849.876
1435.82	858.014
1436.08	857.933
1436.35	855.789
1436.62	869.008
1436.89	840.2
1437.15	828.807
1437.42	857.374
1437.69	855.261
1437.95	861.268
1438.22	828.412
1438.49	849.924
1438.76	822.363
1439.02	839.818
1439.29	860.295
1439.56	851.083
1439.82	871.675
1440.09	862.617
1440.36	845.4
1440.63	878.282
1440.89	823.951
1441.16	842.384
1441.43	865.981
1441.69	846.39
1441.96	852.356
1442.23	855.315
1442.49	868.788
1442.76	824.678
1443.03	857.631
1443.3	848.249
1443.56	860.363
1443.83	836.616
1444.1	863.143
1444.36	842.568
1444.63	873.338
1444.9	825.363
1445.16	836.815
1445.43	865.784
1445.7	844.124
1445.97	870.675
1446.23	827.475
1446.5	836.594
1446.77	843.668
1447.03	858.944
1447.3	835.248
1447.57	842.298
1447.83	851.376
1448.1	849.197
1448.37	840.949
1448.63	841.063
1448.9	822.759
1449.17	830.977
1449.43	858.618
1449.7	837.991
1449.97	845.016
1450.23	816.125
1450.5	845.674
1450.77	884.511
1451.03	846.475
1451.3	857.639
1451.57	855.473
1451.83	843.047
1452.1	858.291
1452.37	834.618
1452.63	810.977
1452.9	861.151
1453.17	851.933
1453.43	829.451
1453.7	823.344
1453.97	850.981
1454.23	840.632
1454.5	844.643
1454.77	842.553
1455.03	839.44
1455.3	836.3
1455.56	841.326
1455.83	844.378
1456.1	850.639
1456.36	836.334
1456.63	828.092
1456.9	862.825
1457.16	851.361
1457.43	859.375
1457.7	847.998
1457.96	850.974
1458.23	852.946
1458.49	855.984
1458.76	849.819
1459.03	847.78
1459.29	861.1
1459.56	840.6
1459.82	884.636
1460.09	859.971
1460.36	836.309
1460.62	814.693
1460.89	854.531
1461.16	821.619
1461.42	823.515
1461.69	869.443
1461.95	849.819
1462.22	850.654
1462.49	845.333
1462.75	864.558
1463.02	859.206
1463.28	852.823
1463.55	856.66
1463.82	855.408
1464.08	838.978
1464.35	861.709
1464.61	841.619
1464.88	858.268
1465.15	874.007
1465.41	866.106
1465.68	851.15
1465.94	838.138
1466.21	863.523
1466.48	868.863
1466.74	859.55
1467.01	839.73
1467.27	829.37
1467.54	816.149
1467.8	860.941
1468.07	852.674
1468.34	833.213
1468.6	818.875
1468.87	838.195
1469.13	855.442
1469.4	852.252
1469.67	862.3
1469.93	860.047
1470.2	845.524
1470.46	856.525
1470.73	835.981
1470.99	814.44
1471.26	863.24
1471.53	853.906
1471.79	851.652
1472.06	829.085
1472.32	847.31
1472.59	843.161
1472.85	866.514
1473.12	834.881
1473.39	840.882
1473.65	812.208
1473.92	836.468
1474.18	847.515
1474.45	833.163
1474.71	877.895
1474.98	847.403
1475.24	827.063
1475.51	876.906
1475.78	838.159
1476.04	836.002
1476.31	846.018
1476.57	861.152
1476.84	834.579
1477.1	868.984
1477.37	875.913
1477.63	836.131
1477.9	838.092
1478.16	861.417
1478.43	851.103
1478.69	846.821
1478.96	852.748
1479.22	853.59
1479.49	811.733
1479.76	856.234
1480.02	859.046
1480.29	847.644
1480.55	835.102
1480.82	857.136
1481.08	878.226
1481.35	836.5
1481.61	867.757
1481.88	814.026
1482.14	855.723
1482.41	852.799
1482.67	840.758
1482.94	831.716
1483.2	854.006
1483.47	840.873
1483.73	844.951
1484	840.849
1484.26	836.714
1484.53	857.635
1484.79	865.209
1485.06	851.029
1485.32	820.437
1485.59	840.209
1485.85	842.521
1486.12	832.359
1486.38	834.59
1486.65	869.347
1486.91	850.115
1487.18	841.407
1487.44	856.699
1487.71	829.038
1487.97	837.911
1488.24	841.797
1488.5	859.837
1488.77	848.461
1489.03	857.313
1489.3	845.972
1489.56	853.925
1489.83	847.735
1490.09	830.433
1490.36	858.71
1490.62	833.363
1490.89	836.249
1491.15	839.066
1491.42	840.872
1491.68	850.856
1491.95	869.982
1492.21	835.562
1492.48	834.546
1492.74	860.76
1493	873.813
1493.27	866.662
1493.53	854.486
1493.8	840.228
1494.06	845.206
1494.33	827.99
1494.59	864.397
1494.86	849.265
1495.12	856.264
1495.39	877.304
1495.65	851.729
1495.92	849.345
1496.18	854.095
1496.45	844.801
1496.71	834.542
1496.97	840.447
1497.24	865.516
1497.5	863.446
1497.77	851.283
1498.03	885.502
1498.3	866.263
1498.56	857.145
1498.82	866.204
1499.09	858.117
1499.35	866.188
1499.62	872.26
1499.88	859.174
1500.15	862.237
1500.41	839.006
1500.68	833.908
1500.94	859.074
1501.2	869.098
1501.47	871.985
1501.73	845.526
1502	869.647
1502.26	859.485
1502.52	863.443
1502.79	861.296
1503.05	846.938
1503.32	856.805
1503.58	860.69
1503.85	862.502
1504.11	838.255
1504.37	871.573
1504.64	821.149
1504.9	862.459
1505.17	850.274
1505.43	887.445
1505.7	846.934
1505.96	827.492
1506.22	854.343
1506.49	856.252
1506.75	864.241
1507.02	838.043
1507.28	860.294
1507.54	881.447
1507.81	869.352
1508.07	848.14
1508.34	854.082
1508.6	857.012
1508.86	855.979
1509.13	829.77
1509.39	823.694
1509.66	861.928
1509.92	884.049
1510.18	859.922
1510.45	868
1510.71	845.616
1510.98	868.571
1511.24	852.202
1511.5	859.964
1511.77	826.342
1512.03	824.838
1512.29	823.336
1512.56	851.005
1512.82	861.636
1513.08	848.302
1513.35	867.132
1513.61	842.82
1513.88	854.75
1514.14	852.909
1514.4	833.123
1514.67	867.32
1514.93	861.146
1515.2	845.834
1515.46	854.589
1515.72	844.28
1515.99	867.046
1516.25	836.638
1516.51	850.449
1516.78	817.226
1517.04	868.252
1517.3	885.194
1517.57	818.952
1517.83	849.003
1518.09	852.033
1518.36	869.202
1518.62	873.22
1518.88	857.194
1519.15	843.16
1519.41	839.183
1519.67	867.3
1519.94	877.335
1520.2	870.248
1520.47	857.08
1520.73	856.974
1520.99	846.951
1521.26	854.019
1521.52	850.044
1521.78	841.001
1522.05	860.99
1522.31	848.826
1522.57	850.69
1522.84	848.533
1523.1	830.344
1523.36	824.139
1523.62	860.928
1523.89	866.538
1524.15	850.223
1524.41	851.995
1524.68	841.78
1524.94	856.617
1525.2	844.66
1525.47	875.704
1525.73	886.712
1525.99	846.739
1526.26	841.853
1526.52	847.056
1526.78	852.208
1527.05	851.234
1527.31	857.184
1527.57	854.006
1527.84	854.907
1528.1	849.778
1528.36	869.701
1528.63	866.543
1528.89	844.363
1529.15	866.276
1529.41	884.217
1529.68	851.103
1529.94	845.993
1530.2	848.811
1530.47	835.71
1530.73	868.797
1530.99	870.943
1531.25	831.012
1531.52	834.11
1531.78	870.16
1532.04	878.072
1532.31	870.038
1532.57	876.886
1532.83	868.936
1533.09	847.087
1533.36	877.443
1533.62	855.623
1533.88	851.695
1534.15	857.743
1534.41	864.714
1534.67	852.583
1534.94	844.445
1535.2	871.387
1535.46	887.307
1535.72	888.089
1535.99	885.576
1536.25	874.23
1536.51	860.958
1536.77	822.553
1537.04	885.244
1537.3	863.883
1537.56	856.709
1537.82	843.454
1538.09	866.426
1538.35	858.196
1538.61	860.868
1538.87	846.738
1539.14	856.603
1539.4	848.809
1539.66	855.28
1539.92	855.896
1540.19	867.326
1540.45	885.706
1540.71	847.976
1540.97	860.211
1541.24	879.324
1541.5	852.833
1541.76	881.815
1542.02	864.482
1542.29	861.207
1542.55	854.926
1542.81	856.66
1543.07	861.412
1543.34	865.168
1543.6	864.9
1543.86	868.561
1544.12	846.207
1544.39	861.204
1544.65	851.214
1544.91	868.365
1545.17	887.611
1545.43	832.725
1545.7	874.085
1545.96	856.215
1546.22	861.297
1546.48	854.343
1546.74	852.243
1547.01	872.277
1547.27	852.302
1547.53	867.396
1547.79	833.381
1548.06	868.209
1548.32	844.658
1548.58	871.649
1548.84	864.645
1549.1	873.886
1549.37	848.973
1549.63	866.997
1549.89	870.75
1550.15	880.221
1550.42	882.147
1550.68	875.491
1550.94	827.282
1551.2	852.204
1551.46	875.65
1551.73	854.612
1551.99	872.457
1552.25	870.117
1552.51	857.432
1552.77	883.876
1553.03	837.513
1553.3	863.32
1553.56	896.724
1553.82	876.467
1554.08	837.226
1554.34	856.057
1554.61	861.77
1554.87	857.412
1555.13	824.986
1555.39	853.883
1555.65	852.778
1555.91	869.758
1556.18	861.758
1556.44	877.753
1556.7	864.546
1556.96	866.517
1557.22	858.52
1557.48	850.515
1557.75	869.521
1558.01	853.399
1558.27	859.199
1558.53	863.874
1558.79	895.634
1559.06	855.243
1559.32	868.927
1559.58	855.636
1559.84	847.396
1560.1	836.197
1560.36	865.014
1560.63	867.873
1560.89	859.76
1561.15	851.667
1561.41	874.599
1561.67	881.615
1561.93	866.749
1562.19	861.958
1562.46	841.183
1562.72	847.149
1562.98	871.064
1563.24	867.945
1563.5	839.943
1563.76	873.812
1564.02	875.712
1564.29	863.991
1564.55	868.305
1564.81	856.366
1565.07	860.263
1565.33	847.703
1565.59	862.055
1565.85	873.742
1566.11	869.545
1566.38	871.3
1566.64	859.367
1566.9	849.861
1567.16	862.207
1567.42	882.902
1567.68	862.676
1567.94	884.427
1568.2	842.743
1568.47	875.799
1568.73	903.882
1568.99	845.907
1569.25	847.777
1569.51	852.399
1569.77	871.147
1570.03	849.126
1570.29	862.145
1570.55	852.128
1570.82	878.082
1571.08	851.035
1571.34	852.95
1571.6	834.836
1571.86	888.605
1572.12	868.414
1572.38	876.332
1572.64	851.201
1572.9	870.952
1573.17	851.802
1573.43	863.61
1573.69	861.418
1573.95	851.264
1574.21	841.259
1574.47	854.353
1574.73	857.513
1574.99	836.715
1575.25	847.884
1575.51	855.051
1575.78	862.168
1576.04	840.181
1576.3	861.058
1576.56	863.994
1576.82	880.832
1577.08	860.516
1577.34	858.123
1577.6	856.751
1577.86	883.331
1578.12	857.055
1578.38	852.75
1578.64	851.541
1578.9	843.466
1579.17	869.333
1579.43	873.269
1579.69	879.214
1579.95	872.244
1580.21	857.377
1580.47	854.408
1580.73	866.347
1580.99	870.253
1581.25	845.176
1581.51	883.868
1581.77	877.719
1582.03	839.616
1582.29	849.344
1582.55	845.247
1582.81	862.075
1583.07	830.082
1583.33	845.924
1583.59	854.816
1583.85	840.803
1584.11	860.588
1584.38	850.582
1584.64	895.437
1584.9	848.639
1585.16	860.585
1585.42	852.562
1585.68	872.388
1585.94	885.268
1586.2	846.291
1586.46	865.951
1586.72	841.787
1586.98	855.516
1587.24	832.461
1587.5	855.207
1587.76	860.059
1588.02	856.984
1588.28	854.956
1588.54	873.89
1588.8	878.927
1589.06	862.1
1589.32	847.237
1589.58	859.254
1589.84	881.197
1590.1	882.181
1590.36	905.033
1590.62	877.185
1590.88	886.212
1591.14	837.455
1591.4	857.302
1591.66	864.222
1591.92	886.023
1592.18	858.996
1592.44	913.499
1592.7	863.388
1592.96	879.047
1593.22	869.905
1593.48	899.355
1593.74	849.228
1594	853.776
1594.26	869.39
1594.52	888.092
1594.78	847.324
1595.04	872.22
1595.3	863.421
1595.56	864.493
1595.82	866.436
1596.08	875.904
1596.34	834.123
1596.6	850.962
1596.86	851.918
1597.12	855.88
1597.38	850.932
1597.64	839.046
1597.9	873.851
1598.16	856.893
1598.42	873.648
1598.68	840.661
1598.94	883.069
1599.2	858.97
1599.46	875.626
1599.72	842.675
1599.98	871.251
1600.24	847.239
1600.5	848.038
1600.76	880.542
1601.02	864.403
1601.28	864.072
1601.54	869.666
1601.8	846.539
1602.06	857.142
1602.32	863.835
1602.58	854.703
1602.84	872.274
1603.1	866.067
1603.36	867.795
1603.62	871.534
1603.88	864.449
1604.14	838.619
1604.4	861.293
1604.66	838.522
1604.92	862.234
1605.17	863.187
1605.43	864.151
1605.69	870.073
1605.95	854.282
1606.21	852.365
1606.47	875.189
1606.73	853.502
1606.99	873.34
1607.25	841.858
1607.51	850.736
1607.77	844.985
1608.03	842.401
1608.29	867.949
1608.55	849.151
1608.81	865.438
1609.07	866.01
1609.32	856.905
1609.58	861.016
1609.84	852.812
1610.1	827.477
1610.36	882.891
1610.62	860.404
1610.88	882.032
1611.14	863.027
1611.4	847.327
1611.66	873.947
1611.92	862.122
1612.18	877.412
1612.44	871.321
1612.69	837.419
1612.95	854.935
1613.21	854.037
1613.47	874.099
1613.73	883.169
1613.99	876.112
1614.25	843.613
1614.51	848.01
1614.77	871.881
1615.03	863.125
1615.29	867.997
1615.54	866.649
1615.8	871.662
1616.06	853.984
1616.32	854.846
1616.58	859.927
1616.84	845.655
1617.1	870.533
1617.36	868.074
1617.62	858.889
1617.88	847.666
1618.13	857.163
1618.39	868.048
1618.65	855.452
1618.91	861.984
1619.17	862.567
1619.43	839.314
1619.69	848.078
1619.95	866.281
1620.2	873.981
1620.46	857.905
1620.72	855.215
1620.98	869.785
1621.24	857.231
1621.5	863.659
1621.76	862.015
1622.02	872.615
1622.27	850.708
1622.53	849.73
1622.79	862.635
1623.05	867.798
1623.31	865.877
1623.57	864.6
1623.83	873.253
1624.09	860.926
1624.34	860.23
1624.6	872.843
1624.86	870.064
1625.12	865.217
1625.38	855.596
1625.64	858.305
1625.9	863.921
1626.15	875.009
1626.41	870.175
1626.67	855.417
1626.93	845.743
1627.19	865.831
1627.45	858.742
1627.7	848.474
1627.96	849.95
1628.22	859.574
1628.48	864.636
1628.74	855.195
1629	852.733
1629.26	867.144
1629.51	847.193
1629.77	850.978
1630.03	855.016
1630.29	846.477
1630.55	850.131
1630.81	855.02
1631.06	858.101
1631.32	857.773
1631.53	863.989
1631.79	870.978
1632.05	840.557
1632.31	867.273
1632.57	851.426
1632.84	841.766
1633.1	853.986
1633.36	863.506
1633.62	857.119
1633.88	861.914
1634.14	862.983
1634.4	860.126
1634.66	852.249
1634.93	865.05
1635.19	856.13
1635.45	844.233
1635.71	883.57
1635.97	854.883
1636.23	841.95
1636.49	880.238
1636.75	853.494
1637.02	871.074
1637.28	866.96
1637.54	847.074
1637.8	885.36
1638.06	831.142
1638.32	870.411
1638.58	873.239
1638.84	877.075
1639.1	870.158
1639.37	885.874
1639.63	859.252
1639.89	826.727
1640.15	869.988
1640.41	869.92
1640.67	855.146
1640.93	846.409
1641.19	873.072
1641.46	871.101
1641.72	859.189
1641.98	864.968
1642.24	846.166
1642.5	874.634
1642.76	878.498
1643.02	853.815
1643.28	872.451
1643.54	858.614
1643.8	880.21
1644.06	883.055
1644.33	853.4
1644.59	844.376
1644.85	867.84
1645.11	876.63
1645.37	863.871
1645.63	856.077
1645.89	856.105
1646.15	858.048
1646.41	860.879
1646.67	858.773
1646.93	839.955
1647.19	838.881
1647.46	890.891
1647.72	866.17
1647.98	872.939
1648.24	857.15
1648.5	851.246
1648.76	852.34
1649.02	881.982
1649.28	843.011
1649.54	877.598
1649.8	868.607
1650.06	865.521
1650.32	867.448
1650.58	846.989
1650.85	850.11
1651.11	871.901
1651.37	858.238
1651.63	848.458
1651.89	858.323
1652.15	863.218
1652.41	859.242
1652.67	870.081
1652.93	852.221
1653.19	862.921
1653.45	856.927
1653.71	859.849
1653.97	853.941
1654.23	878.624
1654.49	869.776
1654.75	841.195
1655.01	858.956
1655.27	860.014
1655.53	833.529
1655.8	845.568
1656.06	867.536
1656.32	868.694
1656.57	838.196
1656.84	871.795
1657.1	836.262
1657.36	862.855
1657.62	855.835
1657.88	872.483
1658.14	871.403
1658.4	866.368
1658.66	875.12
1658.92	870.028
1659.18	866.906
1659.44	868.714
1659.7	853.76
1659.96	868.386
1660.22	873.092
1660.48	842.566
1660.74	861.37
1661	857.522
1661.26	855.665
1661.52	875.518
1661.78	849.02
1662.04	862.87
1662.3	856.978
1662.56	831.519
1662.82	832.051
1663.08	852.651
1663.34	855.115
1663.6	879.688
1663.86	868.562
1664.12	827.316
1664.38	857.755
1664.64	854.966
1664.9	846.119
1665.16	853.416
1665.42	874.3
1665.68	857.536
1665.94	859.665
1666.2	865.776
1666.46	852.081
1666.72	848.001
1666.98	844.815
1667.24	848.085
1667.5	863.361
1667.76	860.177
1668.02	841.25
1668.28	844.087
1668.54	870.548
1668.8	870.532
1669.06	872.86
1669.32	847.636
1669.58	848.679
1669.84	858.539
1670.1	879.278
1670.36	862.361
1670.62	842.57
1670.88	851.861
1671.14	857.05
1671.4	871.753
1671.66	868.684
1671.92	856.749
1672.18	847.855
1672.44	852.834
1672.69	858.757
1672.95	890.348
1673.21	868.561
1673.47	851.743
1673.73	863.606
1673.99	858.685
1674.25	868.626
1674.51	843.984
1674.77	871.744
1675.03	894.571
1675.29	859.086
1675.55	856.212
1675.81	839.427
1676.07	834.454
1676.33	853.207
1676.59	872.003
1676.85	885.867
1677.11	858.142
1677.37	856.113
1677.63	862.956
1677.89	877.686
1678.14	856.747
1678.4	858.524
1678.66	851.379
1678.92	851.189
1679.18	861.911
1679.44	855.837
1679.7	854.74
1679.96	844.732
1680.22	847.574
1680.48	869.215
1680.74	866.125
1681	862.048
1681.26	870.826
1681.52	856.916
1681.78	872.67
1682.03	854.843
1682.29	875.551
1682.55	885.401
1682.81	869.575
1683.07	854.683
1683.33	836.84
1683.59	860.501
1683.85	849.596
1684.11	855.463
1684.37	855.371
1684.63	868.043
1684.89	858.057
1685.14	850.075
1685.4	864.822
1685.66	867.73
1685.92	867.689
1686.18	846.921
1686.44	886.402
1686.7	865.698
1686.96	871.763
1687.22	848.106
1687.48	885.628
1687.73	857.864
1687.99	866.617
1688.25	866.48
1688.51	871.299
1688.77	844.507
1689.03	858.169
1689.29	864.859
1689.55	894.283
1689.81	868.434
1690.06	866.254
1690.32	866.023
1690.58	854.096
1690.84	848.336
1691.1	858.274
1691.36	856.339
1691.62	846.478
1691.88	858.373
1692.13	853.476
1692.39	868.244
1692.65	858.29
1692.91	885.756
1693.17	860.886
1693.43	835.996
1693.69	856.441
1693.95	858.12
1694.2	829.329
1694.46	892.194
1694.72	822.023
1694.98	859.298
1695.24	864.173
1695.5	825.767
1695.76	863.21
1696.01	872.089
1696.27	868.17
1696.53	875.15
1696.79	870.266
1697.05	857.41
1697.31	862.219
1697.57	847.243
1697.82	841.081
1698.08	866.424
1698.34	861.282
1698.6	865.033
1698.86	879.616
1699.12	860.762
1699.38	837.047
1699.63	850.763
1699.89	881.276
1700.15	857.629
1700.41	861.542
1700.67	867.249
1700.92	866.189
1701.18	878.902
1701.44	834.547
1701.7	838.369
1701.96	847.047
1702.22	856.674
1702.47	853.534
1702.73	870.037
1702.99	866.892
1703.25	870.735
1703.51	869.69
1703.77	873.526
1704.02	883.229
1704.28	876.261
1704.54	862.548
1704.8	866.555
1705.06	856.717
1705.32	846.811
1705.57	829.034
1705.83	871.246
1706.09	855.487
1706.35	870.052
1706.61	890.456
1706.86	845.038
1707.12	845.771
1707.38	855.34
1707.64	862.968
1707.9	881.339
1708.16	851.602
1708.41	860.118
1708.67	859.809
1708.93	857.5
1709.19	871.875
1709.44	860.868
1709.7	866.576
1709.96	846.898
1710.22	859.572
1710.48	860.53
1710.73	836.043
1710.99	870.341
1711.25	883.162
1711.51	871.455
1711.77	858.762
1712.02	854.87
1712.28	891.086
1712.54	851.774
1712.8	841.707
1713.06	890.26
1713.31	859.513
1713.57	858.156
1713.83	862.696
1714.09	865.266
1714.34	859.207
1714.6	854.176
1714.86	856.989
1715.12	841.274
1715.38	833.407
1715.63	880.4
1715.89	878.601
1716.15	865.854
1716.41	856.951
1716.66	853.859
1716.92	840.943
1717.18	849.455
1717.44	868.64
1717.69	841.895
1717.95	842.416
1718.21	860.53
1718.47	842.626
1718.72	889.062
1718.98	872.273
1719.24	849.732
1719.5	868.176
1719.75	840.866
1720.01	855.383
1720.27	869.038
1720.53	865.141
1720.78	859.176
1721.04	832.7
1721.3	854.819
1721.56	856.546
1721.81	852.445
1722.07	861.938
1722.33	851.963
1722.59	846.845
1722.84	883.521
1723.1	864.814
1723.36	876.247
1723.62	873.144
1723.87	863.294
1724.13	877.812
1724.39	877.699
1724.64	854.314
1724.9	848.312
1725.16	856.785
1725.42	871.934
1725.67	856.069
1725.93	872.188
1726.19	863.214
1726.45	857.257
1726.7	878.602
1726.96	853.302
1727.22	857.981
1727.47	871.199
1727.73	844.988
1727.99	853.87
1728.24	852.809
1728.5	858.439
1728.76	844.522
1729.02	863.623
1729.27	851.639
1729.53	874.275
1729.79	846.742
1730.05	871.29
1730.3	860.964
1730.56	861.366
1730.82	861.093
1731.07	857.111
1731.33	866.737
1731.59	871.589
1731.84	859.004
1732.1	867.644
1732.36	869.488
1732.61	877.095
1732.87	840.246
1733.13	854.572
1733.39	860.147
1733.64	874.331
1733.9	885.528
1734.16	863.895
1734.41	870.346
1734.67	867.143
1734.93	887.067
1735.18	856.87
1735.44	886.419
1735.7	887.095
1735.95	848.362
1736.21	871.296
1736.47	868.289
1736.72	846.989
1736.98	878.594
1737.24	884.209
1737.49	890.776
1737.75	850.219
1738.01	851.997
1738.26	887.388
1738.52	879.471
1738.78	848.49
1739.03	883.83
1739.29	879.737
1739.55	861.195
1739.8	880.037
1740.06	866.167
1740.32	865.76
1740.57	874.024
1740.83	845.912
1741.09	850.458
1741.34	839.69
1741.6	862.456
1741.86	866.073
1742.11	873.552
1742.37	855.23
1742.63	869.503
1742.88	862.694
1743.14	857.78
1743.4	860.559
1743.65	827.955
1743.91	870.902
1744.16	861.117
1744.42	855.189
1744.68	875.112
1744.93	856.838
1745.19	849.146
1745.45	858.688
1745.7	885.432
1745.96	859.524
1746.22	863.203
1746.47	862.035
1746.73	871.333
1746.98	878.678
1747.24	871.748
1747.5	864.775
1747.75	864.538
1748.01	851.887
1748.27	863.206
1748.52	859.33
1748.78	873.622
1749.03	858.346
1749.29	888.916
1749.55	865.112
1749.8	857.576
1750.06	851.021
1750.32	876.973
1750.57	858.985
1750.83	868.69
1751.08	874.458
1751.34	851.578
1751.6	864.949
1751.85	854.285
1752.11	854.003
1752.36	860.392
1752.62	868.751
1752.88	841.79
1753.13	864.474
1753.39	876.651
1753.64	868.813
1753.9	888.663
1754.15	864.632
1754.41	886.339
1754.67	860.359
1754.92	863.048
1755.18	859.076
1755.43	850.361
1755.69	874.995
1755.95	881.48
1756.2	861.248
1756.46	866.713
1756.71	876.916
1756.97	878.498
1757.23	865.807
1757.48	873.129
1757.74	861.57
1757.99	875.692
1758.25	845.273
1758.5	870.225
1758.76	854.094
1759.02	857.884
1759.27	857.857
1759.53	841.655
1759.78	888.291
1760.04	862.546
1760.3	873.862
1760.55	856.624
1760.81	849.845
1761.06	844.001
1761.32	858.094
1761.57	863.59
1761.83	852.939
1762.08	842.339
1762.34	862.2
1762.6	863.079
1762.85	858.436
1763.11	853.741
1763.36	863.231
1763.62	866.009
1763.87	888.82
1764.13	855.567
1764.38	859.424
1764.64	877.639
1764.89	875.078
1765.15	851.388
1765.4	881.924
1765.66	879.115
1765.92	846.77
1766.17	866.758
1766.43	847.682
1766.68	845.714
1766.94	857.985
1767.19	862.647
1767.45	882.587
1767.7	868.2
1767.96	871.849
1768.21	866.922
1768.47	853.464
1768.73	857.158
1768.98	850.4
1769.24	865.225
1769.49	842.848
1769.75	858.521
1770	879.077
1770.26	890.461
1770.51	882.088
1770.77	867.073
1771.02	849.002
1771.28	852.828
1771.53	856.823
1771.79	852.345
1772.04	866.682
1772.3	859.086
1772.55	866.802
1772.81	858.382
1773.06	874.655
1773.32	870.92
1773.57	862.421
1773.83	871.994
1774.08	859.667
1774.34	856.844
1774.59	865.426
1774.85	881.617
1775.1	889.324
1775.36	878.884
1775.61	855.194
1775.87	843.162
1776.12	890.053
1776.38	869.161
1776.63	865.344
1776.89	868.127
1777.14	881.325
1777.4	870.652
1777.65	870.521
1777.91	864.611
1778.16	855.846
1778.42	845.173
1778.67	871.646
1778.93	869.518
1779.18	857.829
1779.44	859.454
1779.69	843.102
1779.95	845.906
1780.2	853.728
1780.46	870.885
1780.71	874.72
1780.97	869.051
1781.22	850.064
1781.47	867.182
1781.73	863.376
1781.98	853.897
1782.24	857.79
1782.49	840.75
1782.75	867.589
1783	868.64
1783.26	858.225
1783.51	864.004
1783.77	856.456
1784.02	865.113
1784.28	855.671
1784.53	867.235
1784.79	856.931
1785.04	848.444
1785.29	850.388
1785.55	851.306
1785.8	855.041
1786.06	865.409
1786.31	869.096
1786.57	853.812
1786.82	872.93
1787.08	870.174
1787.33	839.788
1787.58	862.898
1787.84	831.677
1788.09	852.214
1788.35	869.944
1788.6	847.505
1788.86	852.62
1789.11	869.967
1789.37	849.071
1789.62	835.946
1789.87	861.998
1790.13	879.327
1790.38	868.863
1790.64	869.903
1790.89	860.289
1791.15	858.296
1791.4	863.815
1791.65	866.119
1791.91	853.556
1792.16	865.885
1792.42	864.903
1792.67	857.243
1792.93	863.958
1793.18	820.93
1793.43	863.117
1793.69	882.265
1793.94	846.791
1794.2	849.743
1794.45	866.99
1794.7	852.565
1794.96	853.355
1795.21	865.065
1795.47	875.301
1795.72	853.653
1795.97	870.162
1796.23	864.507
1796.48	873.274
1796.74	849.397
1796.99	853.374
1797.25	860.24
1797.5	841.149
1797.75	841.251
1798.01	866.323
1798.26	850.042
1798.51	837.588
1798.77	870.297
1799.02	860.653
1799.28	867.299
1799.53	844.094
1799.78	828.544
1800.04	854.293
1800.29	839.686
1800.55	847.214
1800.8	832.666
1801.05	853.688
1801.31	877.612
1801.56	847.772
1801.81	834.289
1802.07	823.718
1802.32	844.872
1802.58	869.898
1802.83	851.722
1803.08	865.286
1803.34	875.037
1803.59	854.041
1803.84	854.158
1804.1	853.24
1804.35	834.017
1804.61	856.213
1804.86	823.63
1805.11	842.995
1805.37	821.976
1805.62	859.695
1805.87	857.947
1806.13	850.394
1806.38	846.658
1806.64	876.628
1806.89	868.041
1807.14	843.025
1807.4	864.222
1807.65	852.63
1807.9	851.633
1808.16	865.101
1808.41	858.334
1808.66	856.392
1808.92	833.249
1809.17	844.812
1809.42	852.522
1809.68	844.804
1809.93	834.2
1810.18	861.195
1810.44	845.763
1810.69	865.984
1810.94	847.586
1811.2	851.363
1811.45	855.171
1811.7	841.619
1811.96	851.212
1812.21	870.467
1812.46	860.833
1812.72	857.035
1812.97	831.084
1813.22	861.099
1813.48	848.649
1813.73	861.207
1813.98	856.471
1814.24	847.943
1814.49	860.688
1814.74	861.862
1815	862.116
1815.25	851.622
1815.5	856.553
1815.76	860.457
1816.01	853.702
1816.26	842.108
1816.52	851.783
1816.77	837.306
1817.02	839.265
1817.27	854.646
1817.53	855.451
1817.78	861.772
1818.03	826.675
1818.29	857.585
1818.54	843.216
1818.79	871.433
1819.05	849.31
1819.3	835.7
1819.55	877.283
1819.8	842.558
1820.06	870.657
1820.31	841.699
1820.56	843.697
1820.82	857.316
1821.07	849.638
1821.32	854.52
1821.58	843.961
1821.83	824.711
1822.08	849.956
1822.33	848.085
1822.59	843.289
1822.84	858.799
1823.09	848.164
1823.34	867.532
1823.6	860.703
1823.85	870.272
1824.1	861.435
1824.36	862.344
1824.61	838.179
1824.86	864.356
1825.11	872.141
1825.37	858.638
1825.62	858.696
1825.87	831.608
1826.12	867.421
1826.38	840.264
1826.63	837.339
1826.88	875.098
1827.14	849.902
1827.39	844.109
1827.64	844.154
1827.89	853.901
1828.15	818.102
1828.4	848.107
1828.65	854.818
1828.9	866.322
1829.16	876.815
1829.41	862.167
1829.66	836.916
1829.91	844.594
1830.17	854.192
1830.42	826.941
1830.67	857.792
1830.92	856.695
1831.18	853.758
1831.43	846.072
1831.68	840.342
1831.93	859.794
1832.19	838.558
1832.44	844.443
1832.69	861.968
1832.94	853.387
1833.2	842.812
1833.45	858.302
1833.7	847.623
1833.95	840.881
1834.2	833.129
1834.46	841.876
1834.71	830.957
1834.96	853.726
1835.21	855.198
1835.47	831.533
1835.72	820.603
1835.97	845.488
1836.22	856.079
1836.48	822.962
1836.73	869.039
1836.98	879.571
1837.23	862.82
1837.48	819.727
1837.74	822.004
1837.99	839.836
1838.24	813.796
1838.49	845.138
1838.74	856.587
1839	833.816
1839.25	866.354
1839.5	847.268
1839.75	847.354
1840	846.466
1840.26	841.797
1840.51	863.249
1840.76	833.567
1841.01	840.765
1841.27	835.462
1841.52	829.228
1841.77	835.576
1842.02	841.954
1842.27	853.186
1842.53	848.996
1842.78	843.851
1843.03	860.363
1843.28	862.168
1843.53	856.443
1843.78	856.392
1844.04	838.028
1844.29	839.83
1844.54	836.894
1844.79	835.998
1845.04	851.413
1845.3	852.197
1845.55	834.832
1845.8	845.412
1846.05	828.361
1846.3	851.864
1846.55	844.441
1846.81	840.177
1847.06	865.745
1847.31	822.97
1847.56	849.448
1847.81	835.649
1848.07	832.741
1848.32	832.169
1848.57	828.672
1848.82	833.981
1849.07	850.085
1849.32	846.223
1849.57	831.577
1849.83	826.485
1850.08	819.45
1850.33	849.945
1850.58	850.545
1850.83	837.758
1851.09	832.693
1851.34	847.844
1851.59	834.197
1851.84	835.956
1852.09	847.355
1852.34	844.397
1852.59	865.476
1852.84	851.038
1853.1	841.395
1853.35	859.577
1853.6	856.604
1853.85	867.991
1854.1	862.022
1854.35	850.226
1854.6	834.559
1854.86	840.993
1855.11	845.616
1855.36	827.232
1855.61	831.742
1855.86	832.385
1856.11	852.305
1856.36	835.906
1856.61	832.951
1856.87	811.842
1857.12	831.913
1857.37	828.007
1857.62	810.657
1857.87	854.57
1858.12	838.149
1858.37	857.125
1858.63	830.112
1858.88	849.021
1859.13	864.089
1859.38	848.534
1859.63	843.494
1859.88	826.097
1860.13	833.688
1860.38	826.962
1860.63	834.626
1860.89	835.706
1861.14	859.728
1861.39	841.645
1861.64	842.726
1861.89	835.171
1862.14	839.007
1862.39	829.357
1862.64	839.717
1862.9	826.104
1863.15	834.474
1863.4	832.322
1863.65	844.517
1863.9	830.914
1864.15	853.644
1864.4	845.805
1864.65	854.212
1864.9	836.829
1865.15	849.982
1865.4	849.723
1865.66	861.832
1865.91	818.573
1866.16	843.01
1866.41	830.221
1866.66	855.547
1866.91	826.572
1867.16	825.23
1867.41	851.492
1867.66	843.517
1867.91	840.373
1868.16	823.072
1868.41	826.742
1868.67	865.623
1868.92	843.735
1869.17	841.842
1869.42	844.65
1869.67	850.271
1869.92	850.179
1870.17	832.982
1870.42	834.802
1870.67	827.118
1870.92	827.997
1871.17	835.542
1871.42	853.549
1871.67	834.442
1871.92	835.258
1872.17	817.024
1872.42	842.534
1872.68	852.859
1872.93	852.662
1873.18	829.659
1873.43	843.746
1873.68	846.518
1873.93	840.716
1874.18	847.202
1874.43	821.38
1874.68	858.155
1874.93	827.548
1875.18	832.984
1875.43	818.493
1875.68	850.443
1875.93	850.095
1876.18	858.099
1876.43	836.916
1876.68	838.509
1876.93	812.723
1877.18	840.943
1877.43	840.476
1877.68	844.643
1877.93	819.084
1878.18	848.063
1878.44	831.267
1878.69	846.138
1878.93	843.821
1879.19	838.943
1879.44	838.772
1879.69	822.076
1879.94	836.938
1880.19	837.586
1880.44	834.666
1880.69	844.039
1880.94	843.249
1881.19	817.456
1881.44	830.63
1881.69	840.65
1881.94	833.566
1882.19	831.21
1882.44	824.103
1882.69	824.523
1882.94	805.024
1883.19	817.016
1883.44	833.338
1883.69	870.267
1883.94	821.028
1884.19	810.318
1884.44	834.849
1884.69	836.262
1884.94	853.677
1885.19	835.11
1885.44	830.798
1885.69	836.543
1885.94	842.277
1886.19	820.949
1886.44	853.217
1886.69	810.815
1886.94	853.191
1887.19	830.132
1887.44	840.286
1887.69	842.878
1887.94	837.913
1888.19	841.428
1888.44	828.89
1888.69	830.404
1888.94	821.591
1889.19	842.006
1889.44	826.637
1889.69	853.757
1889.94	831.097
1890.19	822.547
1890.44	841.416
1890.69	803.911
1890.94	822.902
1891.19	830.458
1891.43	816.261
1891.68	829.333
1891.94	824.571
1892.18	834.837
1892.43	844.17
1892.68	842.218
1892.93	812.87
1893.18	847.489
1893.43	846.2
1893.68	828.751
1893.93	818.899
1894.18	826.279
1894.43	818.859
1894.68	822.275
1894.93	845.574
1895.18	840.773
1895.43	836.063
1895.68	819.178
1895.93	807.952
1896.18	812.712
1896.43	808.084
1896.68	843.905
1896.93	828.993
1897.18	835.684
1897.42	839.522
1897.68	810.408
1897.92	832.045
1898.17	810.368
1898.42	824.39
1898.67	825.194
1898.92	824.07
1899.17	831.361
1899.42	853.663
1899.67	839.363
1899.92	824.202
1900.17	840.027
1900.42	834.245
1900.67	850.147
1900.92	853.896
1901.16	831.401
1901.41	807.076
1901.66	816.61
1901.91	826.138
1902.16	839.437
1902.41	836.783
1902.66	846.338
1902.91	831.262
1903.16	833.033
1903.41	833.848
1903.66	844.053
1903.91	808.208
1904.16	820.341
1904.41	839.069
1904.65	808.919
1904.9	839.878
1905.15	808.771
1905.4	805.881
1905.65	811.472
1905.9	833.008
1906.15	825.213
1906.4	840.855
1906.65	834.124
1906.9	826.472
1907.14	824.471
1907.39	846.91
1907.64	823.406
1907.89	838.445
1908.14	837.582
1908.39	835.829
1908.64	831.166
1908.89	829.3
1909.14	836.87
1909.39	849.187
1909.63	820.188
1909.88	831.647
1910.13	823.402
1910.38	830.231
1910.63	849.317
1910.88	841.077
1911.13	825.228
1911.38	842.278
1911.62	827.257
1911.87	830.081
1912.12	822.502
1912.37	855.375
1912.62	815.72
1912.87	829.792
1913.12	839.172
1913.37	839.139
1913.61	813.702
1913.86	810.967
1914.11	811.171
1914.36	849.103
1914.61	839.842
1914.86	828.668
1915.11	817.499
1915.36	828.949
1915.6	845.076
1915.85	831.881
1916.1	827.106
1916.35	822.282
1916.6	830.691
1916.85	822.986
1917.1	821.827
1917.34	807.497
1917.59	802.625
1917.84	823.243
1918.09	818.442
1918.34	810.885
1918.59	842.081
1918.83	839.408
1919.08	815.076
1919.33	853.982
1919.58	841.013
1919.83	809.229
1920.08	847.275
1920.33	830.398
1920.57	837.96
1920.82	813.258
1921.07	822.728
1921.32	827.634
1921.57	853.348
1921.81	802.388
1922.06	825.163
1922.31	813.854
1922.56	810.036
1922.81	808.988
1923.06	830.572
1923.31	821.904
1923.55	818.95
1923.8	830.189
1924.05	840.469
1924.3	843.146
1924.55	825.002
1924.79	821.082
1925.04	833.294
1925.29	817.231
1925.54	813.525
1925.79	827.843
1926.04	813.886
1926.28	814.083
1926.53	836.965
1926.78	812.565
1927.03	813.739
1927.28	811.038
1927.52	853.737
1927.77	816.892
1928.02	841.587
1928.27	809.446
1928.52	834.13
1928.76	813.312
1929.01	835.179
1929.26	826.726
1929.51	816.401
1929.76	824.134
1930	819.621
1930.25	817.904
1930.5	836.153
1930.75	809.751
1931	839.369
1931.24	843.197
1931.49	809.953
1931.74	825.993
1931.99	843.883
1932.24	819.052
1932.48	815.101
1932.73	825.386
1932.98	817.628
1933.23	809.015
1933.47	840.171
1933.72	813.626
1933.97	836.606
1934.22	817.052
1934.46	817.566
1934.71	825.884
1934.96	833.236
1935.21	824.314
1935.46	819.081
1935.7	808.971
1935.95	817.799
1936.2	829.597
1936.45	823.756
1936.69	802.699
1936.94	795.888
1937.19	826.169
1937.44	809.732
1937.68	825.712
1937.93	822.641
1938.18	815.786
1938.43	807.013
1938.68	823.148
1938.92	830.071
1939.17	822.52
1939.42	823.566
1939.67	813.195
1939.91	803.741
1940.16	828.614
1940.41	819.086
1940.66	823.067
1940.9	812.752
1941.15	814.224
1941.4	804.968
1941.64	834.514
1941.89	809.558
1942.14	800.64
1942.39	814.407
1942.63	820.399
1942.88	822.184
1943.13	818.528
1943.38	806.113
1943.62	817.194
1943.87	828.228
1944.12	805.007
1944.37	828.403
1944.61	822.824
1944.86	806.734
1945.11	812.62
1945.35	826.165
1945.6	824.428
1945.85	802.62
1946.1	823.797
1946.34	793.326
1946.59	813.496
1946.84	821.204
1947.09	811.655
1947.33	802.037
1947.58	824.882
1947.83	797.983
1948.07	813.227
1948.32	800.753
1948.57	813.14
1948.82	825.466
1949.06	814.954
1949.31	812.2
1949.56	815.204
1949.8	794.297
1950.05	809.782
1950.3	806.137
1950.54	803.578
1950.79	802.007
1951.04	785.972
1951.29	804.471
1951.53	790.389
1951.78	793.544
1952.03	825.435
1952.27	814.047
1952.52	821.82
1952.77	808.476
1953.01	817.051
1953.26	826.775
1953.51	818.308
1953.76	819.959
1954	792.716
1954.25	809.425
1954.49	833.856
1954.74	801.733
1954.99	835.81
1955.24	802.121
1955.48	803.013
1955.73	781.041
1955.98	817.64
1956.22	817.011
1956.47	811.815
1956.72	821.614
1956.96	815.133
1957.21	797.001
1957.46	835.576
1957.7	808.824
1957.95	827.203
1958.2	816.72
1958.44	816.771
1958.69	820.64
1958.94	809.114
1959.18	801.321
1959.43	824.187
1959.68	825.027
1959.92	801.899
1960.17	782.522
1960.42	804.449
1960.66	806.207
1960.91	820.433
1961.16	803.916
1961.4	800.853
1961.65	829.481
1961.9	789.053
1962.14	814.955
1962.39	813.048
1962.63	786.171
1962.88	832.242
1963.13	788.089
1963.37	814.963
1963.62	811.117
1963.87	815.912
1964.11	806.317
1964.36	825.588
1964.61	800.678
1964.85	810.23
1965.1	817.81
1965.35	795.706
1965.59	822.524
1965.84	804.262
1966.08	824.476
1966.33	792.909
1966.58	810.35
1966.82	792.244
1967.07	808.675
1967.32	787.6
1967.56	803.879
1967.81	816.345
1968.05	800.042
1968.3	816.381
1968.55	818.306
1968.79	800.948
1969.04	786.416
1969.29	801.614
1969.53	788.881
1969.78	798.192
1970.02	802.693
1970.27	797.642
1970.52	797.433
1970.76	814.554
1971.01	807.654
1971.25	808.45
1971.5	806.399
1971.75	807.241
1971.99	789.875
1972.24	792.776
1972.48	824.476
1972.73	812.013
1972.98	814.845
1973.22	801.306
1973.47	803.049
1973.71	800.91
1973.96	820.854
1974.21	807.284
1974.45	798.549
1974.7	808.065
1974.94	808.033
1975.19	777.354
1975.44	780.26
1975.68	794.71
1975.93	816.855
1976.17	800.628
1976.42	796.842
1976.66	795.901
1976.91	790.139
1977.16	811.211
1977.4	826.497
1977.65	804.342
1977.89	791.744
1978.14	824.182
1978.39	790.45
1978.63	813.308
1978.88	792.092
1979.12	806.381
1979.37	798.675
1979.61	814.001
1979.86	791.924
1980.1	820.677
1980.35	795.732
1980.6	765.902
1980.84	787.765
1981.09	789.507
1981.33	788.441
1981.58	788.288
1981.82	792.951
1982.07	802.436
1982.31	803.327
1982.56	809.962
1982.81	793.514
1983.05	771.318
1983.3	818.953
1983.54	778.476
1983.79	784.002
1984.03	794.409
1984.28	797.182
1984.52	814.281
1984.77	787.378
1985.02	779.621
1985.26	806.22
1985.51	796.406
1985.75	779.062
1986	792.41
1986.24	790.513
1986.49	803.017
1986.73	801.208
1986.98	789.767
1987.22	795.437
1987.47	808.849
1987.71	776.161
1987.96	830.37
1988.21	796.603
1988.45	799.12
1988.7	806.356
1988.94	793.34
1989.19	800.297
1989.43	789.847
1989.68	758.479
1989.92	805.354
1990.17	806.056
1990.41	797.508
1990.66	784.802
1990.9	794.437
1991.15	820.828
1991.39	778.083
1991.64	810.387
1991.88	799.482
1992.13	797.544
1992.37	799.383
1992.62	796.199
1992.86	808.605
1993.11	813.989
1993.35	806.495
1993.6	789.682
1993.84	813.266
1994.09	797.599
1994.33	774.952
1994.58	822.466
1994.82	767.804
1995.07	796.389
1995.31	791.117
1995.56	804.875
1995.8	795.517
1996.05	783.392
1996.29	799.082
1996.54	791.356
1996.78	813.618
1997.03	796.92
1997.27	800.912
1997.52	803.086
1997.76	799.122
1998.01	792.905
1998.25	794.636
1998.5	793.844
1998.74	799.842
1998.99	799.181
1999.23	790.975
1999.48	795.883
1999.72	792.389
1999.97	798.47
2000.21	800.564
2000.46	800.237
2000.7	800.549
2000.95	812.436
2001.19	791.725
2001.43	800.683
2001.68	795.549
2001.92	787.142
2002.17	782.858
2002.41	787.518
2002.66	798.862
2002.9	806.35
2003.15	795.317
2003.39	780.418
2003.64	794.541
2003.88	797.267
2004.13	793.189
2004.37	792.781
2004.61	802.745
2004.86	790.249
2005.1	793.978
2005.35	801.432
2005.59	808.238
2005.84	797.29
2006.08	798.506
2006.33	807.014
2006.57	810.285
2006.81	812.525
2007.06	796.602
2007.3	796.885
2007.55	777.768
2007.79	792.607
2008.04	792.634
2008.28	795.053
2008.53	794.252
2008.77	798.565
2009.01	797.211
2009.26	789.904
2009.5	789.089
2009.75	801.406
2009.99	795.649
2010.24	800.704
2010.48	803.577
2010.73	800.868
2010.97	786.252
2011.21	772.153
2011.46	776.892
2011.7	791.781
2011.95	798.05
2012.19	783.992
2012.43	796.957
2012.68	800.648
2012.92	794.93
2013.17	806.995
2013.42	790.708
2013.67	821.345
2013.91	793.832
2014.16	801.992
2014.41	803.51
2014.66	808.713
2014.9	788.619
2015.15	793.2
2015.4	778.209
2015.64	790.507
2015.89	773.734
2016.14	786.023
2016.39	790.623
2016.63	784.24
2016.88	796.081
2017.13	799.946
2017.37	781.092
2017.62	757.472
2017.87	793.926
2018.11	790.857
2018.36	804.627
2018.61	792.086
2018.86	785.222
2019.1	802.744
2019.35	792.105
2019.6	817.109
2019.84	761.669
2020.09	807.451
2020.34	793.33
2020.58	813.908
2020.83	801.685
2021.08	810.072
2021.33	788.567
2021.57	794.226
2021.82	763.311
2022.07	793.237
2022.31	788.472
2022.56	793.034
2022.81	788.193
2023.05	806.712
2023.3	800.862
2023.55	801.618
2023.8	796.755
2024.04	800.313
2024.29	787.976
2024.54	796.227
2024.78	799.695
2025.03	802.213
2025.27	797.269
2025.52	796.076
2025.77	777.168
2026.02	798.405
2026.26	780.398
2026.51	796.32
2026.76	794.739
2027	767.221
2027.25	769.662
2027.5	776.856
2027.74	799.715
2027.99	757.498
2028.23	784.126
2028.48	770.32
2028.73	779.403
2028.98	796.401
2029.22	779.607
2029.47	796.76
2029.72	793.743
2029.96	781.138
2030.21	792.42
2030.45	770.061
2030.7	786.799
2030.95	792.673
2031.19	765.258
2031.44	773.166
2031.69	776.772
2031.93	781.433
2032.18	790.777
2032.43	802.197
2032.67	802.451
2032.92	795.262
2033.17	795.515
2033.41	784.495
2033.66	808.016
2033.91	781.128
2034.15	792.452
2034.4	768.665
2034.64	782.15
2034.89	810.274
2035.14	784.867
2035.38	791.723
2035.63	777.046
2035.87	794.29
2036.12	773.355
2036.37	790.576
2036.61	787.726
2036.86	807.875
2037.11	777.04
2037.35	774.412
2037.6	786.551
2037.84	781.828
2038.09	774.263
2038.34	780.702
2038.58	791.798
2038.83	773.909
2039.08	795.266
2039.32	799.801
2039.57	777.237
2039.81	775.227
2040.06	785.317
2040.31	800.953
2040.55	779.261
2040.8	761.325
2041.04	811.499
2041.29	768.426
2041.54	786.93
2041.78	801.773
2042.03	782.138
2042.27	784.818
2042.52	780.055
2042.77	785.473
2043.01	785.401
2043.26	777.935
2043.5	791.039
2043.75	800.563
2044	789.684
2044.24	801.195
2044.49	792.912
2044.73	798.462
2044.98	785.204
2045.23	769.925
2045.47	763.644
2045.72	791.612
2045.96	800.242
2046.21	787.354
2046.45	795.174
2046.7	793.554
2046.95	792.782
2047.19	794.991
2047.44	776.347
2047.68	770.509
2047.93	760.563
2048.17	779.968
2048.42	775.331
2048.67	784.682
2048.91	746.499
2049.16	768.013
2049.4	771.933
2049.65	779.551
2049.89	779.765
2050.14	773.505
2050.39	786.779
2050.63	781.388
2050.88	742.266
2051.12	771.257
2051.37	776.804
2051.61	779.44
2051.86	792.275
2052.11	775.451
2052.35	775.459
2052.6	802.651
2052.84	774.659
2053.09	789.688
2053.33	757.109
2053.58	799.298
2053.82	771.455
2054.07	781.163
2054.31	789.718
2054.56	787.944
2054.8	798.252
2055.05	798.225
2055.3	774.79
2055.54	791.562
2055.79	796.976
2056.03	772.566
2056.28	770.651
2056.52	773.373
2056.77	773.281
2057.01	775.091
2057.26	778.816
2057.5	762.954
2057.75	794.789
2058	761.221
2058.24	784.705
2058.49	775.464
2058.73	779.388
2058.98	782.363
2059.22	770.351
2059.47	777.015
2059.71	791.096
2059.96	778.025
2060.2	758.373
2060.45	794.776
2060.69	768.441
2060.94	774.901
2061.18	772.177
2061.43	790.066
2061.67	764.861
2061.92	768.631
2062.16	779.874
2062.41	761.167
2062.65	794.923
2062.9	774.396
2063.14	771.688
2063.39	768.071
2063.63	780.372
2063.88	773.909
2064.12	800.228
2064.37	765.608
2064.61	785.346
2064.86	771.367
2065.1	778.036
2065.35	774.457
2065.59	783.127
2065.84	772.075
2066.08	776.948
2066.33	770.521
2066.57	758.412
2066.82	777.217
2067.06	785.744
2067.31	785.826
2067.55	774.614
2067.8	773.769
2068.04	784.224
2068.29	779.626
2068.53	771.242
2068.78	772.22
2069.02	789.249
2069.27	792.071
2069.51	775.969
2069.76	789.834
2070	785.726
2070.25	774.314
2070.49	778.136
2070.73	774.694
2070.98	766.615
2071.22	755.716
2071.47	770.701
2071.71	788.329
2071.96	774.161
2072.2	760.341
2072.45	772.52
2072.69	770.571
2072.94	792.196
2073.18	759.166
2073.43	785.518
2073.67	784.526
2073.92	758.189
2074.16	776.096
2074.4	791.199
2074.65	765.852
2074.89	779.175
2075.14	770.894
2075.38	790.002
2075.63	762.057
2075.87	773.772
2076.12	778.762
2076.36	776.066
2076.6	780.796
2076.85	775.158
2077.09	752.411
2077.34	778.673
2077.58	765.278
2077.83	759.258
2078.07	793.111
2078.31	792.255
2078.56	786.758
2078.8	779.272
2079.05	770.842
2079.29	775.662
2079.54	774.894
2079.78	765.806
2080.03	764.063
2080.27	787.805
2080.51	747.294
2080.76	790.852
2081	775.735
2081.25	794.545
2081.49	792.591
2081.74	749.098
2081.98	771.756
2082.22	787.78
2082.47	761.377
2082.71	773.711
2082.96	765.241
2083.2	778.478
2083.45	743.492
2083.69	760.462
2083.93	766.092
2084.18	786.874
2084.42	760.417
2084.67	757.565
2084.91	767.963
2085.15	781.209
2085.4	779.317
2085.64	761.351
2085.89	758.511
2086.13	757.61
2086.37	771.976
2086.62	768.432
2086.86	779.952
2087.11	754.48
2087.35	779.162
2087.59	780.229
2087.84	767.048
2088.08	768.938
2088.32	791.656
2088.57	768.954
2088.81	784.124
2089.06	760.494
2089.3	727.392
2089.54	774.834
2089.79	772.116
2090.03	757.158
2090.28	749.643
2090.52	787.565
2090.76	751.613
2091.01	764.939
2091.25	765.015
2091.5	770.778
2091.74	775.59
2091.98	771.042
2092.23	762.724
2092.47	780.035
2092.72	791.666
2092.96	778.642
2093.2	771.247
2093.45	781.88
2093.69	759.27
2093.93	787.956
2094.18	782.408
2094.42	768.286
2094.66	753.111
2094.91	762.609
2095.15	780.627
2095.39	763.451
2095.64	778.522
2095.88	768.867
2096.13	774.45
2096.37	781.003
2096.61	760.036
2096.86	773.299
2097.1	789.408
2097.34	739.903
2097.59	778.682
2097.83	765.225
2098.07	769.899
2098.32	750.863
2098.56	780.245
2098.8	772.531
2099.05	763.981
2099.29	776.291
2099.53	745.867
2099.78	779.04
2100.02	774.272
2100.27	769.525
2100.51	745.814
2100.75	752.49
2101	770.591
2101.24	752.732
2101.48	778.511
2101.73	778.599
2101.97	750.145
2102.21	763.434
2102.45	738.712
2102.7	768.152
2102.94	784.243
2103.18	772.713
2103.43	741.215
2103.67	762.957
2103.92	759.13
2104.16	763.824
2104.4	766.677
2104.64	770.531
2104.89	750.702
2105.13	772.647
2105.37	754.701
2105.62	770.023
2105.86	780.64
2106.1	776.029
2106.35	773.255
2106.59	764.769
2106.83	757.195
2107.08	752.466
2107.32	770.591
2107.56	775.362
2107.8	773.367
2108.05	768.457
2108.29	777.753
2108.53	743.33
2108.78	774.462
2109.02	752.45
2109.26	771.369
2109.51	753.352
2109.75	762.083
2109.99	751.78
2110.23	743.23
2110.48	716.624
2110.72	741.313
2110.96	784.051
2111.21	772.644
2111.45	779.277
2111.69	762.117
2111.93	774.35
2112.18	782.809
2112.42	746.667
2112.66	765.647
2112.91	771.412
2113.15	762.934
2113.39	762.066
2113.63	761.294
2113.88	765.243
2114.12	771.011
2114.36	762.403
2114.61	768.979
2114.85	752.798
2115.09	774.682
2115.33	762.337
2115.58	765.137
2115.82	747.007
2116.06	777.346
2116.31	739.267
2116.55	782.806
2116.79	751.305
2117.03	760.723
2117.28	747.38
2117.52	757.785
2117.76	776.8
2118	779.56
2118.25	749.048
2118.49	759.357
2118.73	751.555
2118.97	769.35
2119.22	740.711
2119.46	771.839
2119.7	763.135
2119.94	755.386
2120.19	739.127
2120.43	748.487
2120.67	753.175
2120.91	746.555
2121.16	741.931
2121.4	781.799
2121.64	766.796
2121.88	749.906
2122.13	754.806
2122.37	740.723
2122.61	767.42
2122.85	758.038
2123.1	728.707
2123.34	771.499
2123.58	767.757
2123.82	755.436
2124.07	765.81
2124.31	749.578
2124.55	746.594
2124.79	775.805
2125.03	757.469
2125.28	746.671
2125.52	759.597
2125.76	749.855
2126	760.98
2126.25	761.695
2126.49	738.774
2126.73	741.447
2126.97	756.418
2127.21	729.763
2127.46	762.697
2127.7	754.111
2127.94	748.39
2128.18	749.281
2128.43	721.777
2128.67	740.627
2128.91	753.854
2129.15	745.341
2129.39	750.028
2129.64	772.642
2129.88	734.776
2130.12	747.019
2130.36	752.643
2130.6	772.432
2130.85	736.458
2131.09	731.653
2131.33	741.001
2131.57	738.993
2131.81	758.7
2132.06	753.862
2132.3	774.551
2132.54	751.795
2132.78	753.526
2133.02	725.066
2133.27	744.803
2133.51	766.486
2133.75	744.804
2133.99	765.585
2134.23	741.047
2134.48	746.733
2134.72	750.522
2134.96	750.493
2135.2	776.885
2135.44	741.937
2135.68	736.228
2135.93	756.903
2136.17	760.536
2136.41	738.604
2136.65	764.772
2136.89	753.338
2137.14	763.731
2137.38	761.868
2137.62	743.017
2137.86	705.372
2138.1	753.613
2138.34	746.945
2138.59	752.379
2138.83	760.693
2139.07	739.14
2139.31	759.173
2139.55	765.943
2139.79	750.467
2140.03	753.001
2140.28	748.149
2140.52	776.29
2140.76	752.631
2141	746.888
2141.24	753.413
2141.49	770.294
2141.73	748.635
2141.97	749.415
2142.21	747.355
2142.45	770.813
2142.69	721.856
2142.93	740.816
2143.18	755.047
2143.42	739.633
2143.66	734.62
2143.9	766.603
2144.14	729.942
2144.38	763.903
2144.62	737.836
2144.87	752.187
2145.11	754.209
2145.35	757.527
2145.59	739.716
2145.83	758.546
2146.07	739.689
2146.31	762.181
2146.55	748.945
2146.8	754.514
2147.04	746.924
2147.28	743.081
2147.52	732.63
2147.76	742.857
2148	763.423
2148.24	747.364
2148.48	773.567
2148.73	729.326
2148.97	740.49
2149.21	747.877
2149.45	750.53
2149.69	756.911
2149.93	735.948
2150.17	740.458
2150.42	727.119
2150.66	756.022
2150.9	727.815
2151.14	721.231
2151.38	740.966
2151.62	742.956
2151.86	730.833
2152.1	744.066
2152.34	717.847
2152.58	717.002
2152.83	723.449
2153.07	729.902
2153.31	745.696
2153.55	743.687
2153.79	765.172
2154.03	751.033
2154.27	739.652
2154.51	738.524
2154.75	738.262
2154.99	728.578
2155.24	724.534
2155.48	746.646
2155.72	758.553
2155.96	769.533
2156.2	745.03
2156.44	755.155
2156.68	726.106
2156.92	736.339
2157.16	746.586
2157.4	740.975
2157.64	727.006
2157.89	762.602
2158.13	768.341
2158.37	731.067
2158.61	753.522
2158.85	734.813
2159.09	758.137
2159.33	741.238
2159.57	736.462
2159.81	745.676
2160.05	728.701
2160.29	751.859
2160.53	742.324
2160.77	744.017
2161.01	747.594
2161.25	724.172
2161.5	732.521
2161.74	739.906
2161.98	728.63
2162.22	735.124
2162.46	719.252
2162.7	753.763
2162.94	764.002
2163.18	739.671
2163.42	760.083
2163.66	734.809
2163.9	730.061
2164.14	736.498
2164.38	732.671
2164.62	728.775
2164.86	723.914
2165.11	734.035
2165.35	734.986
2165.59	736.913
2165.83	736.913
2166.07	729.459
2166.31	735.048
2166.55	736.816
2166.79	747.906
2167.03	741.263
2167.27	739.242
2167.51	759.609
2167.75	727.769
2167.99	743.364
2168.23	723.457
2168.47	730.564
2168.71	743.455
2168.95	737.85
2169.19	750.898
2169.43	723.093
2169.67	750.202
2169.91	718.773
2170.15	745.999
2170.39	743.486
2170.63	746.437
2170.87	745.561
2171.11	739.913
2171.35	729.516
2171.59	739.681
2171.83	743.096
2172.07	717.456
2172.31	727.406
2172.56	743.987
2172.79	731.768
2173.04	735.375
2173.28	732.557
2173.51	719.528
2173.76	736.232
2174	735.346
2174.24	744.723
2174.48	726.196
2174.72	733.654
2174.96	721.572
2175.2	752.227
2175.44	725.251
2175.68	733.557
2175.92	740.006
2176.16	753.908
2176.4	728.771
2176.64	724.984
2176.88	735.079
2177.12	739.667
2177.36	718.294
2177.6	742.456
2177.84	732.24
2178.08	722.925
2178.32	730.375
2178.55	742.371
2178.8	735.661
2179.03	744.788
2179.28	729.904
2179.52	730.854
2179.75	740.141
2180	729.926
2180.23	739.198
2180.47	741.969
2180.71	725.224
2180.95	747.45
2181.19	750.178
2181.43	739.935
2181.67	728.74
2181.91	731.428
2182.15	728.55
2182.39	741.494
2182.63	755.307
2182.87	741.307
2183.11	735.662
2183.35	749.422
2183.59	709.368
2183.83	730.474
2184.07	722.894
2184.31	736.671
2184.55	726.361
2184.79	723.539
2185.03	747.644
2185.27	723.614
2185.51	714.392
2185.75	742.242
2185.99	711.736
2186.23	738.731
2186.47	742.565
2186.7	734.339
2186.95	744.744
2187.18	735.679
2187.42	720.106
2187.66	698.021
2187.9	725.096
2188.14	729.771
2188.38	733.399
2188.62	754.62
2188.86	717.329
2189.1	722.734
2189.34	722.551
2189.58	715.849
2189.82	716.532
2190.06	736.721
2190.3	728.272
2190.54	717.108
2190.78	725.458
2191.01	722.729
2191.25	733.906
2191.49	721.844
2191.73	724.658
2191.97	715.437
2192.21	713.637
2192.45	734.096
2192.69	704.465
2192.93	744.408
2193.17	740.813
2193.41	728.869
2193.65	722.483
2193.89	702.212
2194.13	733.152
2194.36	732.569
2194.6	732.798
2194.84	741.287
2195.08	739.378
2195.32	722.551
2195.56	728.045
2195.8	734.427
2196.04	734.26
2196.28	731.256
2196.52	743.064
2196.76	701.975
2197	741.696
2197.23	719.277
2197.47	715.437
2197.71	727.379
2197.95	708.824
2198.19	733.88
2198.43	711.686
2198.67	699.785
2198.91	714.803
2199.15	724.291
2199.38	729.176
2199.62	734.025
2199.86	702.663
2200.1	729.845
2200.34	714.377
2200.58	703.583
2200.82	728.109
2201.06	733.055
2201.3	717.424
2201.54	739.028
2201.77	721.013
2202.01	726.782
2202.25	717.806
2202.49	711.206
2202.73	722.785
2202.97	698.003
2203.21	721.796
2203.45	713.214
2203.68	722.355
2203.92	755.546
2204.16	713.155
2204.4	733.718
2204.64	731.787
2204.88	720.712
2205.12	723.007
2205.36	752.15
2205.59	713.401
2205.83	720.434
2206.07	718.457
2206.31	717.534
2206.55	713.041
2206.79	712.126
2207.03	731.376
2207.26	707.24
2207.5	721.285
2207.74	753.031
2207.98	724.342
2208.22	733.794
2208.46	719.983
2208.7	728.499
2208.93	712.796
2209.17	736.169
2209.41	721.338
2209.65	753.97
2209.89	703.676
2210.13	710.166
2210.36	699.008
2210.6	705.609
2210.84	715.018
2211.08	723.511
2211.32	727.348
2211.56	740.5
2211.8	730.362
2212.03	714.661
2212.27	728.796
2212.51	720.503
2212.75	731.743
2212.99	730.753
2213.23	734.402
2213.46	734.323
2213.7	719.279
2213.94	730.332
2214.18	729.432
2214.42	724.906
2214.66	708.403
2214.89	714.269
2215.13	705.004
2215.37	692.922
2215.61	713.498
2215.85	718.191
2216.08	735.007
2216.32	732.202
2216.56	706.975
2216.8	698.545
2217.04	722.779
2217.28	713.407
2217.51	730.202
2217.75	736.757
2217.99	707.84
2218.23	729.304
2218.47	726.487
2218.7	720.909
2218.94	715.37
2219.18	718.264
2219.42	721.186
2219.66	708.233
2219.9	725.123
2220.13	739.225
2220.37	712.187
2220.61	711.228
2220.85	697.17
2221.09	728.912
2221.32	697.059
2221.56	724.913
2221.8	722.843
2222.04	700.265
2222.27	718.796
2222.51	728.032
2222.75	722.403
2222.99	703.777
2223.23	713.208
2223.46	746.923
2223.7	720.891
2223.94	707.042
2224.18	716.586
2224.42	689.691
2224.65	693.621
2224.89	711.557
2225.13	727.61
2225.37	695.009
2225.6	713.893
2225.84	730.942
2226.08	717.051
2226.32	702.208
2226.56	707.974
2226.79	706.202
2227.03	728.84
2227.27	737.411
2227.51	704.706
2227.74	701.971
2227.98	703.886
2228.22	698.235
2228.46	737.557
2228.69	714.056
2228.93	699.936
2229.17	701.766
2229.41	712.971
2229.64	691.4
2229.88	736.516
2230.12	725.447
2230.36	701.224
2230.6	696.651
2230.83	739.01
2231.07	712.871
2231.31	736.488
2231.55	705.661
2231.78	718.977
2232.02	702.197
2232.26	703.27
2232.5	713.741
2232.73	705.413
2232.97	709.297
2233.21	703.781
2233.45	694.495
2233.68	694.614
2233.92	706.971
2234.16	726.829
2234.39	696.783
2234.63	706.15
2234.87	723.968
2235.11	718.228
2235.34	704.919
2235.58	707.484
2235.82	693.191
2236.06	716.708
2236.29	703.565
2236.53	685.728
2236.77	707.392
2237	713.057
2237.24	705.563
2237.48	684.083
2237.72	711.511
2237.95	706.128
2238.19	707.358
2238.43	701.968
2238.67	707.81
2238.9	713.646
2239.14	698.767
2239.38	706.561
2239.61	699.055
2239.85	709.364
2240.09	721.523
2240.33	721.315
2240.56	680.594
2240.8	688.049
2241.04	709.082
2241.27	713.118
2241.51	697.118
2241.75	730.181
2241.99	687.767
2242.22	692.522
2242.46	694.464
2242.7	718.131
2242.93	701.221
2243.17	696.508
2243.41	702.138
2243.64	714.309
2243.88	692.488
2244.12	701.865
2244.36	706.556
2244.59	703.741
2244.83	694.402
2245.07	700.265
2245.3	703.377
2245.54	725.36
2245.78	690.553
2246.01	706.752
2246.25	710.677
2246.49	716.49
2246.72	694.849
2246.96	708.155
2247.2	709.202
2247.43	695.108
2247.67	715.994
2247.91	714.127
2248.14	703.699
2248.38	717.852
2248.62	691.303
2248.85	684.629
2249.09	703.509
2249.33	696.839
2249.56	719.512
2249.8	707.328
2250.04	696.05
2250.27	688.464
2250.51	697.834
2250.75	703.369
2250.98	697.541
2251.22	698.314
2251.46	711.417
2251.69	711.308
2251.93	700.862
2252.17	686.7
2252.4	693.387
2252.64	680.248
2252.88	704.027
2253.11	689.105
2253.35	697.992
2253.59	723.824
2253.82	686.136
2254.06	702.402
2254.3	710.107
2254.53	723.511
2254.77	693.261
2255.01	704.646
2255.24	678.971
2255.48	697.961
2255.72	715.974
2255.95	688.496
2256.19	698.001
2256.42	695.268
2256.66	700.136
2256.9	696.456
2257.13	675.685
2257.37	704.266
2257.61	704.374
2257.84	689.286
2258.08	694.103
2258.32	719.775
2258.55	717.901
2258.79	707.495
2259.02	711.355
2259.26	690.551
2259.5	723.902
2259.73	686.907
2259.97	699.312
2260.2	712.692
2260.44	705.157
2260.68	702.368
2260.91	716.689
2261.15	677.807
2261.39	708.454
2261.62	697.181
2261.86	700.062
2262.1	700.098
2262.33	706.811
2262.57	706.865
2262.8	691.73
2263.04	691.869
2263.28	692.017
2263.51	677.906
2263.75	709.552
2263.98	703.122
2264.22	719.604
2264.46	679.806
2264.69	701.983
2264.93	697.409
2265.16	684.203
2265.4	697.708
2265.64	682.543
2265.87	684.47
2266.11	673.029
2266.34	682.521
2266.58	695.734
2266.81	683.151
2267.05	672.475
2267.29	714.311
2267.52	689.377
2267.76	701.67
2267.99	699.645
2268.23	704.251
2268.47	689.822
2268.7	685.959
2268.94	700.278
2269.17	697.507
2269.41	660.448
2269.65	695.919
2269.88	688.476
2270.12	702.997
2270.35	686.999
2270.59	688.165
2270.82	715.047
2271.06	699.84
2271.3	701.898
2271.53	686.72
2271.77	717.4
2272	683.067
2272.24	688.929
2272.47	682.297
2272.71	689.003
2272.95	706.249
2273.18	675.664
2273.42	694.834
2273.65	681.468
2273.89	700.637
2274.12	686.314
2274.36	671.03
2274.6	689.239
2274.83	675.868
2275.07	699.831
2275.3	663.496
2275.54	681.717
2275.77	664.52
2276.01	698.96
2276.24	684.694
2276.48	689.64
2276.72	676.392
2276.95	707.201
2277.18	696.794
2277.42	694.068
2277.66	680.864
2277.89	689.749
2278.13	696.732
2278.36	707.586
2278.6	687.519
2278.83	697.169
2279.07	696.21
2279.3	681.771
2279.54	695.165
2279.78	675.829
2280.01	693.753
2280.24	676.273
2280.48	693.349
2280.72	683.59
2280.95	666.191
2281.19	680.467
2281.42	696.69
2281.66	681.258
2281.89	697.48
2282.13	689.882
2282.36	675.546
2282.6	679.472
2282.83	690.149
2283.07	677.835
2283.3	697.173
2283.54	661.857
2283.77	680.355
2284.01	704.681
2284.24	689.597
2284.48	698.569
2284.71	687.21
2284.95	666.125
2285.19	683.59
2285.42	702.02
2285.65	684.746
2285.89	674.173
2286.12	690.378
2286.36	679.53
2286.59	698.737
2286.83	680.507
2287.06	681.575
2287.3	682.85
2287.54	671.557
2287.77	683.208
2288	699.65
2288.24	699.836
2288.47	702.669
2288.71	685.218
2288.94	687.997
2289.18	685.94
2289.41	701.126
2289.65	689.308
2289.88	700.607
2290.12	671.462
2290.35	682.897
2290.59	700.125
2290.82	689.546
2291.06	678.979
2291.29	698.302
2291.53	698.481
2291.76	677.542
2292	676.728
2292.23	653.739
2292.47	672.137
2292.7	702.109
2292.94	693.602
2293.17	699.53
2293.41	676.523
2293.64	678.545
2293.88	692.108
2294.11	687.322
2294.34	691.119
2294.58	684.284
2294.81	671.645
2295.05	680.18
2295.28	685.855
2295.52	650.119
2295.75	669.277
2295.99	697.099
2296.22	679.68
2296.46	672.775
2296.69	667.681
2296.93	673.409
2297.16	665.761
2297.39	661.038
2297.63	678.478
2297.86	671.887
2298.1	681.7
2298.33	667.477
2298.57	662.8
2298.8	665.779
2299.04	673.616
2299.27	673.784
2299.51	660.422
2299.74	674.037
2299.97	690.496
2300.21	676.973
2300.44	662.5
2300.68	661.512
2300.91	706.926
2301.15	684.848
2301.38	673.349
2301.61	688.862
2301.85	688.903
2302.08	681.189
2302.32	666.681
2302.55	674.335
2302.79	681.038
2303.02	664.64
2303.25	665.583
2303.49	670.364
2303.72	662.625
2303.96	664.561
2304.19	668.48
2304.43	682.103
2304.66	649.377
2304.89	683.241
2305.13	675.607
2305.36	660.273
2305.6	685.46
2305.83	670.996
2306.07	666.213
2306.3	692.383
2306.53	660.568
2306.77	674.122
2307	702.159
2307.24	664.446
2307.47	668.284
2307.7	669.181
2307.94	671.988
2308.17	665.167
2308.41	666.064
2308.64	674.695
2308.87	672.755
2309.11	677.609
2309.34	683.503
2309.58	669.115
2309.81	665.41
2310.04	656.91
2310.28	675.423
2310.51	656.134
2310.75	665.82
2310.98	666.761
2311.21	657.977
2311.45	678.124
2311.68	670.962
2311.92	667.622
2312.15	679.93
2312.38	667.201
2312.62	673.851
2312.85	688.199
2313.08	669.768
2313.32	648.523
2313.55	677.542
2313.79	674.846
2314.02	655.789
2314.25	649.215
2314.49	666.793
2314.72	668.924
2314.95	673.037
2315.19	663.586
2315.42	670.466
2315.66	662.542
2315.89	667.203
2316.12	684.462
2316.36	678.47
2316.59	671.328
2316.82	681.751
2317.06	671.025
2317.29	686.451
2317.52	662.339
2317.76	664.301
2317.99	664.472
2318.23	673.279
2318.46	688.494
2318.69	662.299
2318.93	668.961
2319.16	659.193
2319.39	646.527
2319.63	671.514
2319.86	678.187
2320.09	662.691
2320.33	656.896
2320.56	674.276
2320.79	652.069
2321.03	677.216
2321.26	656.076
2321.5	666.798
2321.73	686.227
2321.96	661.259
2322.2	674.966
2322.43	659.708
2322.66	659.874
2322.9	670.567
2323.13	655.061
2323.36	657.984
2323.6	669.628
2323.83	664.825
2324.06	683.236
2324.3	679.382
2324.53	670.642
2324.76	683.173
2325	653.029
2325.23	685.675
2325.46	679.624
2325.7	669.798
2325.93	678.347
2326.16	673.377
2326.4	708.943
2326.63	686.586
2326.86	709.584
2327.09	710.385
2327.33	742.047
2327.56	783.331
2327.79	827.553
2328.03	888.131
2328.26	883.202
2328.49	797.456
2328.73	746.369
2328.96	723.246
2329.19	704.782
2329.43	705.599
2329.66	689.025
2329.89	651.388
2330.13	674.465
2330.36	668.766
2330.59	681.232
2330.82	677.314
2331.06	672.427
2331.29	668.542
2331.52	660.876
2331.76	640.738
2331.99	646.617
2332.22	625.566
2332.46	646.578
2332.69	658.962
2332.92	666.561
2333.16	658.757
2333.39	654.809
2333.62	650.866
2333.85	659.448
2334.09	659.377
2334.32	658.314
2334.55	669.74
2334.79	667.631
2335.02	645.4
2335.25	680.907
2335.48	663.565
2335.72	643.324
2335.95	652.957
2336.18	659.727
2336.41	668.353
2336.65	636.54
2336.88	640.336
2337.11	668.182
2337.34	635.458
2337.58	688.296
2337.81	645.957
2338.04	659.351
2338.28	665.064
2338.51	645.8
2338.74	659.216
2338.97	659.188
2339.21	664.01
2339.44	660.173
2339.67	654.394
2339.91	676.472
2340.14	637.003
2340.37	637.876
2340.6	628.15
2340.84	642.443
2341.07	669.183
2341.3	657.463
2341.53	651.483
2341.77	665.617
2342	656.781
2342.23	660.489
2342.46	660.369
2342.7	645.877
2342.93	663.051
2343.16	646.706
2343.39	644.767
2343.63	671.606
2343.86	661.022
2344.09	656.193
2344.32	655.235
2344.56	667.734
2344.79	657.204
2345.02	671.555
2345.25	655.207
2345.49	645.544
2345.72	676.096
2345.95	642.376
2346.18	652.785
2346.41	649.78
2346.65	665.046
2346.88	657.339
2347.11	660.17
2347.34	656.272
2347.58	661.956
2347.81	629.382
2348.04	647.579
2348.27	633.248
2348.5	660.129
2348.74	663.047
2348.97	641.009
2349.2	669.668
2349.43	658.057
2349.67	650.111
2349.9	652.691
2350.13	642.791
2350.36	667.241
2350.59	657.193
2350.83	670.629
2351.06	631.125
2351.29	649.279
2351.52	663.946
2351.75	659.843
2351.99	662.297
2352.22	665.361
2352.45	656.822
2352.68	647.35
2352.91	668.885
2353.15	651.106
2353.38	646.824
2353.61	661.272
2353.84	641.2
2354.07	664.878
2354.31	648.687
2354.54	653.415
2354.77	629.753
2355	662.295
2355.23	658.454
2355.47	644.11
2355.7	652.618
2355.93	649.689
2356.16	656.271
2356.39	660.909
2356.63	666.399
2356.86	656.556
2357.09	650.588
2357.32	683.733
2357.55	632.256
2357.79	653.059
2358.02	650.101
2358.25	631.941
2358.48	667.028
2358.71	653.662
2358.94	661.112
2359.18	676.236
2359.41	617.282
2359.64	635.284
2359.87	630.449
2360.1	668.316
2360.33	645.375
2360.57	647.114
2360.8	638.413
2361.03	642.05
2361.26	650.425
2361.49	635.083
2361.72	641.552
2361.96	645.171
2362.19	653.521
2362.42	623.959
2362.65	628.518
2362.88	642.569
2363.11	672.723
2363.34	638.517
2363.58	650.711
2363.81	637.377
2364.04	641.081
2364.27	645.725
2364.5	642.784
2364.73	641.732
2364.97	638.789
