#Acq. time (s)=	30
#Accumulations=	2
#Range (cm-¹)=	1230...2360
#Windows=	3
#Auto scanning=	Off
#Autofocus=	Off
#Macrospot=	Off
#AutoExposure=	Off
#Spike filter=	Multiple accum.
#Delay time (s)=	2
#Binning=	1
#Readout mode=	Signal
#DeNoise=	Off
#ICS correction=	On
#Dark correction=	Off
#Inst. Process=	Off
#Detector Gain=	Best Dynamic
#Detector ADC=	50 kHz HS
#Detector temperature (°C)=	-60.09
#Instrument=	LabRAM HR Evol
#Detector=	SIN-EM FIVIS
#Objective=	x100_VIS
#Grating=	1800 (450-850nm)
#ND Filter=	100%
#Laser=	532nm_Edge
#Hole=	30.0125
#Temperature=	0
#Range=	Visible
#StageXY=	75x50mm Scan+
#StageZ=	Z motor
#X (µm)=	0
#Y (µm)=	0
#Z (µm)=	-137.6
#Full time(mm:ss)=	3:18
#Project=	21_05_14
#Sample=	BU19w
#Site=	
#Title=	BU19w-FF1-FI01-V_1800 (450-850nm)_532nm_Edge_100%_x100_VIS_H30um_30sX2
#Remark=	
#Date=	14.05.2021 11:21
#Acquired=	14.05.2021 11:21:13
1231.3	63.5642
1231.57	67.7751
1231.85	67.787
1232.13	58.3347
1232.4	75.158
1232.68	67.8078
1232.96	67.8153
1233.23	69.9206
1233.51	74.12
1233.79	75.1605
1234.06	74.0969
1234.34	62.5169
1234.62	80.3504
1234.89	67.7222
1235.17	66.6486
1235.45	72.9189
1235.72	70.7967
1236	83.3658
1236.28	76.0138
1236.55	69.7146
1236.83	80.1912
1237.11	71.802
1237.38	71.8005
1237.66	64.4641
1237.94	74.9492
1238.21	67.6158
1238.49	66.5678
1238.76	74.9396
1239.04	69.6878
1239.32	66.5403
1239.59	73.8822
1239.87	71.7895
1240.15	72.8538
1240.42	80.1943
1240.7	69.7082
1240.98	69.7124
1241.25	68.6677
1241.53	74.9527
1241.8	71.8028
1242.08	77.0325
1242.36	68.6296
1242.63	73.8486
1242.91	74.867
1243.19	75.8958
1243.46	77.984
1243.74	68.5593
1244.01	70.6544
1244.29	71.6967
1244.57	64.3656
1244.84	67.5029
1245.12	75.8572
1245.4	65.3716
1245.67	73.733
1245.95	74.7795
1246.22	70.6018
1246.5	78.9702
1246.78	75.8269
1247.05	83.1478
1247.33	80.0031
1247.61	74.7547
1247.88	74.7366
1248.16	71.5861
1248.43	75.7523
1248.71	76.7839
1248.98	76.7703
1249.26	77.8004
1249.54	83.0065
1249.81	78.8143
1250.09	82.9732
1250.36	75.6568
1250.64	79.8279
1250.92	85.0533
1251.19	76.7183
1251.47	82.998
1251.74	72.5683
1252.02	84.0568
1252.29	88.2378
1252.57	93.462
1252.85	75.707
1253.12	80.9288
1253.4	91.377
1253.67	86.1663
1253.95	87.2186
1254.23	77.8171
1254.5	86.1633
1254.78	88.2426
1255.05	79.8819
1255.33	89.2725
1255.6	79.8687
1255.88	78.8071
1256.16	81.9294
1256.43	87.1557
1256.71	92.38
1256.98	81.9807
1257.26	79.8838
1257.53	84.0429
1257.81	76.7074
1258.08	75.6422
1258.36	78.757
1258.63	77.7048
1258.91	80.8889
1259.19	76.7966
1259.46	69.6007
1259.74	76.8086
1260.01	84.0197
1260.29	83.9154
1260.56	83.9943
1260.84	84.0628
1261.11	88.3031
1261.39	89.465
1261.67	76.8487
1261.94	75.7747
1262.22	82.0422
1262.49	76.8203
1262.77	82.0236
1263.04	74.7065
1263.32	88.2936
1263.59	84.1235
1263.87	84.1377
1264.14	87.292
1264.42	91.4973
1264.69	95.7074
1264.97	96.7831
1265.24	90.5396
1265.52	96.866
1265.79	113.646
1266.07	100.046
1266.35	110.539
1266.62	100.065
1266.89	102.141
1267.17	98.9712
1267.45	70.675
1267.72	75.8938
1268	84.2507
1268.27	73.777
1268.55	79.0019
1268.82	80.0464
1269.1	68.5489
1269.37	79.0358
1269.65	72.7798
1269.92	72.8029
1270.2	71.7737
1270.47	68.6486
1270.75	74.9569
1271.02	73.9282
1271.3	66.6015
1271.57	71.8521
1271.85	73.9493
1272.12	72.8993
1272.4	73.9536
1272.67	73.9644
1272.95	68.7305
1273.22	69.7951
1273.5	70.8591
1273.77	64.5728
1274.04	75.0842
1274.32	78.2512
1274.6	74.068
1274.87	79.3402
1275.14	67.7952
1275.42	78.3206
1275.69	68.8774
1275.97	72.0462
1276.24	73.1114
1276.52	77.3198
1276.79	81.5221
1277.07	81.5126
1277.34	73.0932
1277.62	76.2524
1277.89	69.9467
1278.17	68.909
1278.44	73.1409
1278.71	72.1033
1278.99	75.2603
1279.26	82.6332
1279.54	73.1715
1279.81	80.535
1280.09	77.3524
1280.36	77.2809
1280.64	79.3386
1280.91	83.5469
1281.19	83.5187
1281.46	84.7957
1281.73	87.9807
1282.01	90.1055
1282.28	87.9559
1282.56	93.1794
1282.83	94.2233
1283.11	107.937
1283.38	119.536
1283.66	137.402
1283.93	161.618
1284.2	213.203
1284.48	250.022
1284.75	304.708
1285.03	379.382
1285.3	493.024
1285.58	571.966
1285.85	623.559
1286.13	673.114
1286.4	641.652
1286.67	542.792
1286.95	414.417
1287.22	304.951
1287.5	237.553
1287.77	178.539
1288.04	146.928
1288.32	127.967
1288.59	118.487
1288.87	103.74
1289.14	96.365
1289.41	96.3711
1289.69	87.9462
1289.96	94.255
1290.24	85.831
1290.51	85.8497
1290.78	86.9413
1291.06	81.7052
1291.33	81.7279
1291.61	75.3982
1291.88	80.6696
1292.15	85.9456
1292.43	77.5392
1292.7	80.7455
1292.98	69.1805
1293.25	73.4469
1293.52	74.5167
1293.8	77.6902
1294.07	78.743
1294.35	79.7869
1294.62	75.5452
1294.89	74.4725
1295.17	81.8464
1295.44	67.0596
1295.72	78.6789
1295.99	75.4985
1296.26	75.4876
1296.54	76.5321
1296.81	79.694
1297.09	75.4813
1297.36	72.3243
1297.63	68.1043
1297.91	72.3261
1298.18	77.6022
1298.45	77.6042
1298.73	79.7268
1299	67.0662
1299.27	69.186
1299.55	73.4145
1299.82	62.8513
1300.1	72.3547
1300.37	78.6849
1300.64	79.7284
1300.92	78.6666
1301.19	75.4995
1301.46	73.3884
1301.74	75.4999
1302.01	69.158
1302.28	67.0357
1302.56	70.1878
1302.83	64.8963
1303.11	75.4304
1303.38	70.1408
1303.65	74.3513
1303.92	75.404
1304.2	76.4647
1304.47	71.1945
1304.75	65.9206
1305.02	70.1384
1305.29	73.3073
1305.57	63.8107
1305.84	71.1955
1306.11	72.2611
1306.39	70.1614
1306.66	78.6138
1306.93	67.0147
1307.21	69.1252
1307.48	65.9544
1307.75	72.2852
1308.03	70.1775
1308.3	69.1262
1308.57	67.0187
1308.85	68.0778
1309.12	70.2009
1309.39	67.0453
1309.66	65.9952
1309.94	68.1081
1310.21	76.5427
1310.48	68.0921
1310.76	75.4771
1311.03	73.3599
1311.3	73.3586
1311.58	77.5844
1311.85	65.9792
1312.12	64.9315
1312.4	58.6039
1312.67	68.1161
1312.94	75.5187
1313.21	70.238
1313.49	80.7952
1313.76	70.2305
1314.04	75.5089
1314.31	72.3403
1314.58	70.2359
1314.85	74.4691
1315.13	71.3054
1315.4	75.5345
1315.67	68.1415
1315.95	67.0858
1316.22	70.2538
1316.49	68.1385
1316.76	71.3052
1317.04	69.1958
1317.31	66.0283
1317.58	72.3644
1317.85	69.1867
1318.13	67.0605
1318.4	75.4889
1318.67	75.4649
1318.95	70.1744
1319.22	60.6603
1319.49	72.2537
1319.76	69.0799
1320.04	65.9071
1320.31	68.0008
1320.58	70.116
1320.86	72.2288
1321.13	75.3944
1321.4	70.1195
1321.67	66.9582
1321.95	75.3898
1322.22	72.2354
1322.49	69.0576
1322.76	69.0281
1323.04	65.8327
1323.31	68.9375
1323.58	60.498
1323.85	72.061
1324.13	65.7638
1324.4	62.6535
1324.67	70.0493
1324.94	72.181
1325.22	64.8297
1325.49	65.9104
1325.76	71.2072
1326.03	68.0555
1326.31	76.481
1326.58	74.3821
1326.85	66.9943
1327.12	69.0995
1327.4	64.8721
1327.67	69.0795
1327.94	74.3361
1328.21	69.0444
1328.49	58.4822
1328.76	68.9887
1329.03	74.2279
1329.3	66.8394
1329.58	65.7675
1329.85	67.8495
1330.12	69.9283
1330.39	69.9054
1330.66	62.5277
1330.94	75.1171
1331.21	69.8446
1331.48	64.5763
1331.75	65.6101
1332.03	65.596
1332.3	70.8302
1332.57	70.8168
1332.84	68.7065
1333.11	72.8902
1333.39	67.6361
1333.66	71.821
1333.93	69.7157
1334.2	72.8538
1334.47	61.3178
1334.75	68.6482
1335.02	68.6336
1335.29	61.283
1335.56	63.3688
1335.83	72.7842
1336.11	73.822
1336.38	65.4427
1336.65	70.68
1336.92	75.9201
1337.19	72.7807
1337.47	68.5941
1337.74	66.5022
1338.01	75.9271
1338.28	70.6877
1338.55	67.5417
1338.82	64.3936
1339.1	70.6653
1339.37	69.6041
1339.64	70.6328
1339.91	72.7065
1340.18	69.5569
1340.46	70.5973
1340.73	67.4571
1341	71.6397
1341.27	77.916
1341.54	68.5037
1341.82	67.4528
1342.09	69.5337
1342.36	71.6097
1342.63	70.5432
1342.9	74.7038
1343.17	68.413
1343.44	72.5566
1343.72	70.4441
1343.99	64.1634
1344.26	64.1436
1344.53	70.3817
1344.8	67.2406
1345.07	75.5705
1345.35	69.3101
1345.62	64.0941
1345.89	72.4212
1346.16	69.2826
1346.43	70.3109
1346.7	70.298
1346.97	68.2029
1347.25	64.0265
1347.52	72.3421
1347.79	70.2438
1348.06	72.3071
1348.33	74.3751
1348.6	70.197
1348.88	74.3496
1349.15	68.1088
1349.42	71.2355
1349.69	68.1296
1349.96	71.2721
1350.23	66.0778
1350.5	65.0887
1350.78	68.287
1351.05	77.6061
1351.32	71.2479
1351.59	67.0097
1351.86	73.2511
1352.13	68.0651
1352.4	78.4311
1352.67	68.0258
1352.95	69.085
1353.22	70.1357
1353.49	72.1968
1353.76	72.1897
1354.03	69.0676
1354.3	73.2152
1354.57	76.3212
1354.84	71.1184
1355.11	66.9542
1355.39	75.2451
1355.66	67.9685
1355.93	70.0303
1356.2	71.0538
1356.47	66.8949
1356.74	73.1085
1357.01	73.0912
1357.28	65.8142
1357.55	68.9044
1357.83	71.9985
1358.1	80.2792
1358.37	68.8835
1358.64	70.9529
1358.91	66.8059
1359.18	82.3332
1359.45	75.0754
1359.72	65.7494
1359.99	69.8883
1360.26	70.9276
1360.53	73.0104
1360.8	74.056
1361.08	64.7422
1361.35	75.1013
1361.62	68.8816
1361.89	69.9103
1362.16	76.1116
1362.43	74.0244
1362.7	74.007
1362.97	66.7465
1363.24	65.6971
1363.51	81.1972
1363.78	71.8676
1364.05	72.877
1364.32	67.6968
1364.6	73.8909
1364.87	68.7315
1365.14	70.8047
1365.41	70.8091
1365.68	77.0161
1365.95	69.7839
1366.22	73.9254
1366.49	75.9986
1366.76	72.889
1367.03	85.2859
1367.3	73.9061
1367.57	76.988
1367.84	69.7446
1368.11	79.0299
1368.38	70.7462
1368.65	71.7554
1368.92	82.048
1369.19	74.7952
1369.46	68.5814
1369.74	76.8113
1370.01	69.5821
1370.28	72.6649
1370.55	72.6559
1370.82	74.7094
1371.09	88.0981
1371.36	96.3345
1371.63	95.2981
1371.9	104.563
1372.17	95.2785
1372.44	73.6504
1372.71	73.6602
1372.98	79.8393
1373.25	81.9055
1373.52	75.7048
1373.79	79.8057
1374.06	74.6326
1374.33	85.9191
1374.6	79.755
1374.87	68.4521
1375.14	74.6576
1375.41	74.6941
1375.68	80.9214
1375.95	75.7803
1376.22	78.8709
1376.49	71.6446
1376.76	72.6654
1377.03	77.8031
1377.3	72.6209
1377.57	78.7374
1377.84	81.7878
1378.11	77.6423
1378.38	81.7703
1378.65	80.7214
1378.92	77.6008
1379.19	78.5897
1379.46	81.6375
1379.73	82.6345
1380	77.4723
1380.27	75.3991
1380.54	86.6581
1380.81	78.4401
1381.08	76.3784
1381.35	77.4063
1381.62	81.5143
1381.89	78.4526
1382.16	67.1903
1382.43	73.3739
1382.7	81.6052
1382.97	82.65
1383.24	83.6879
1383.51	81.651
1383.78	85.7675
1384.05	90.9021
1384.32	85.6984
1384.59	97.8261
1384.86	92.5478
1385.13	97.6046
1385.4	88.5097
1385.67	105.044
1385.94	100.041
1386.21	95.9966
1386.48	119.621
1386.75	118.608
1387.02	140.126
1387.29	149.248
1387.56	175.857
1387.83	200.458
1388.1	241.376
1388.37	328.469
1388.64	484.204
1388.91	706.42
1389.17	962.309
1389.44	1285.7
1389.71	1430.88
1389.98	1339.57
1390.25	941.228
1390.52	594.159
1390.79	378.161
1391.06	261.468
1391.33	200.053
1391.6	155.019
1391.87	124.318
1392.14	123.309
1392.41	122.305
1392.68	107.99
1392.95	105.948
1393.22	96.7319
1393.49	96.7239
1393.76	97.7361
1394.03	90.5608
1394.3	91.5668
1394.56	88.4816
1394.83	86.428
1395.1	91.5417
1395.37	93.594
1395.64	76.2142
1395.91	89.5197
1396.18	87.4783
1396.45	85.447
1396.72	78.2924
1396.99	79.3235
1397.26	77.2756
1397.53	75.2398
1397.79	84.4745
1398.06	81.4119
1398.33	78.337
1398.6	74.2501
1398.87	80.3953
1399.14	85.5462
1399.41	74.319
1399.68	80.5183
1399.95	77.4748
1400.22	75.4461
1400.49	72.3774
1400.76	77.5107
1401.02	84.6783
1401.29	80.5311
1401.56	74.386
1401.83	74.3796
1402.1	74.3708
1402.37	76.4092
1402.64	70.2427
1402.91	80.4834
1403.18	79.4459
1403.44	78.4129
1403.71	83.5323
1403.98	86.6115
1404.25	75.3424
1404.52	77.3993
1404.79	77.4041
1405.06	77.409
1405.33	75.363
1405.6	81.5202
1405.86	78.4501
1406.13	75.3807
1406.4	75.3872
1406.67	87.7023
1406.94	83.6042
1407.21	84.6291
1407.48	82.5612
1407.75	79.4625
1408.01	78.4138
1408.28	82.4955
1408.55	79.4081
1408.82	87.5944
1409.09	89.642
1409.36	96.8283
1409.63	95.8329
1409.9	109.234
1410.16	110.387
1410.43	118.662
1410.7	120.609
1410.97	121.497
1411.24	128.71
1411.51	134.955
1411.77	126.795
1412.04	114.469
1412.31	97.0199
1412.58	95.9942
1412.85	95.9982
1413.12	88.819
1413.39	85.7468
1413.65	78.5665
1413.92	81.6566
1414.19	77.5577
1414.46	78.5948
1414.73	75.5206
1415	83.7453
1415.27	74.4992
1415.53	71.4203
1415.8	70.3956
1416.07	80.6746
1416.34	72.4538
1416.61	78.6112
1416.87	66.2679
1417.14	71.3913
1417.41	77.5405
1417.68	77.525
1417.95	75.4556
1418.21	68.2576
1418.48	70.3057
1418.75	73.3907
1419.02	71.3595
1419.29	70.3549
1419.56	66.2711
1419.82	73.5041
1420.09	77.6883
1420.36	69.5126
1420.63	61.085
1420.9	75.3655
1421.17	68.1873
1421.43	78.3662
1421.7	68.1392
1421.97	69.1724
1422.24	73.3409
1422.51	69.2216
1422.77	74.359
1423.04	69.2471
1423.31	70.2684
1423.58	76.4082
1423.85	68.1863
1424.11	62.0173
1424.38	74.297
1424.65	72.2168
1424.92	61.9556
1425.18	66.0425
1425.45	66.0395
1425.72	71.1609
1425.99	74.2376
1426.26	72.1964
1426.52	70.157
1426.79	72.2175
1427.06	66.0864
1427.33	73.2788
1427.6	71.2435
1427.86	69.2166
1428.13	73.3519
1428.4	63.1131
1428.67	71.3338
1428.93	76.4645
1429.2	75.4228
1429.47	68.2241
1429.74	76.4218
1430.01	71.2689
1430.27	76.3683
1430.54	69.1631
1430.81	69.1373
1431.08	60.9304
1431.34	68.0936
1431.61	73.256
1431.88	69.1661
1432.15	71.2185
1432.41	65.0706
1432.68	66.0939
1432.95	74.2883
1433.22	71.2102
1433.48	61.9848
1433.75	60.9547
1434.02	71.1927
1434.29	77.3328
1434.55	68.1137
1434.82	73.2259
1435.09	74.248
1435.36	67.0849
1435.62	65.0465
1435.89	68.1254
1436.16	76.3239
1436.43	74.2804
1436.69	66.0956
1436.96	69.1864
1437.23	69.2045
1437.49	67.1619
1437.76	69.2167
1438.03	75.3715
1438.3	70.2468
1438.56	75.3678
1438.83	73.3063
1439.1	70.2288
1439.37	71.2665
1439.63	69.2203
1439.9	66.1532
1440.17	71.2721
1440.44	67.1595
1440.7	76.3777
1440.97	71.2458
1441.24	65.0942
1441.5	68.1773
1441.77	73.324
1442.04	67.1891
1442.31	65.1531
1442.57	68.2258
1442.84	68.2199
1443.11	71.2919
1443.37	71.2865
1443.64	63.0764
1443.91	69.2253
1444.18	67.169
1444.44	66.1369
1444.71	64.0787
1444.98	64.0736
1445.24	70.2274
1445.51	66.1395
1445.78	72.3059
1446.04	66.1556
1446.31	68.2053
1446.58	71.276
1446.84	68.1904
1447.11	64.0783
1447.38	68.17
1447.65	69.1897
1447.91	62.0099
1448.18	63.0302
1448.45	65.0745
1448.71	63.019
1448.98	60.9642
1449.25	70.1811
1449.51	71.204
1449.78	64.0339
1450.05	66.0878
1450.31	68.145
1450.58	66.101
1450.85	65.0755
1451.11	71.2198
1451.38	67.1185
1451.65	66.0943
1451.91	64.045
1452.18	72.24
1452.45	64.0392
1452.71	70.1925
1452.98	71.2287
1453.25	71.234
1453.51	68.1583
1453.78	73.2754
1454.05	64.0408
1454.31	70.1799
1454.58	69.1507
1454.85	61.9759
1455.11	69.1453
1455.38	69.1461
1455.65	59.929
1455.91	65.0552
1456.18	60.9599
1456.44	70.1838
1456.71	63.0123
1456.98	69.1569
1457.24	65.0547
1457.51	64.0259
1457.78	67.0936
1458.04	71.1829
1458.31	71.1741
1458.58	67.0694
1458.84	67.0595
1459.11	73.1903
1459.38	63.9659
1459.64	60.8833
1459.91	65.9854
1460.17	64.9477
1460.44	68.0001
1460.71	65.9426
1460.97	64.9236
1461.24	70.0647
1461.51	66.0009
1461.77	72.1662
1462.04	73.229
1462.3	66.9796
1462.57	73.0108
1462.84	69.8998
1463.1	67.8701
1463.37	68.9075
1463.63	70.9318
1463.9	65.7989
1464.17	67.8436
1464.43	68.8653
1464.7	73.9615
1464.97	67.8362
1465.23	65.7941
1465.5	70.8935
1465.76	71.9119
1466.03	71.907
1466.3	65.7804
1466.56	64.7526
1466.83	74.9335
1467.09	63.7046
1467.36	71.8469
1467.63	62.6672
1467.89	61.6414
1468.16	71.8266
1468.42	69.7762
1468.69	59.5791
1468.95	64.6641
1469.22	60.5876
1469.49	65.677
1469.75	66.6937
1470.02	63.6372
1470.28	70.7581
1470.55	69.7286
1470.82	68.7015
1471.08	63.6055
1471.35	62.5847
1471.61	70.7273
1471.88	66.6648
1472.15	70.7388
1472.41	66.668
1472.68	67.6828
1472.94	65.6403
1473.21	63.596
1473.47	68.6787
1473.74	69.6899
1474.01	62.5567
1474.27	67.6326
1474.54	66.6123
1474.8	70.6784
1475.07	68.643
1475.33	69.6493
1475.6	62.5199
1475.87	63.5276
1476.13	69.6158
1476.4	65.5393
1476.66	59.4312
1476.93	70.5914
1477.19	72.6048
1477.46	65.4745
1477.72	64.443
1477.99	67.4767
1478.25	69.4984
1478.52	70.5068
1478.79	61.3837
1479.05	65.4531
1479.32	70.5405
1479.58	67.5085
1479.85	66.5004
1480.11	65.4877
1480.38	74.6333
1480.64	63.4668
1480.91	63.4663
1481.17	61.4259
1481.44	59.3688
1481.7	62.3683
1481.97	68.3736
1482.23	63.2435
1482.5	62.1932
1482.77	60.1909
1483.03	63.3259
1483.3	67.4018
1483.56	65.3645
1483.83	69.3842
1484.09	65.3582
1484.36	70.4239
1484.62	60.2747
1484.89	73.4298
1485.15	66.3306
1485.42	68.3436
1485.68	65.2914
1485.95	61.2289
1486.21	69.3145
1486.48	69.3077
1486.74	60.1968
1487.01	66.2642
1487.27	69.299
1487.54	66.2606
1487.8	67.2622
1488.07	70.2826
1488.33	62.1828
1488.6	66.2223
1488.86	69.2534
1489.13	69.2549
1489.39	60.1566
1489.66	69.2532
1489.92	71.2719
1490.19	71.271
1490.45	69.247
1490.72	68.2321
1490.98	65.1984
1491.25	69.2441
1491.51	63.1842
1491.78	65.2087
1492.04	68.2362
1492.31	62.1578
1492.57	74.2621
1492.84	70.1973
1493.1	63.1118
1493.37	69.1594
1493.63	66.1223
1493.9	69.1411
1494.16	66.108
1494.42	79.2286
1494.69	67.115
1494.95	64.0845
1495.22	65.0932
1495.48	67.1126
1495.75	65.096
1496.01	67.117
1496.28	62.0739
1496.54	63.088
1496.81	69.151
1497.07	65.1173
1497.34	69.157
1497.6	66.1268
1497.86	65.1156
1498.13	65.1125
1498.39	65.1014
1498.66	69.1299
1498.92	63.072
1499.19	61.0519
1499.45	74.167
1499.72	67.0934
1499.98	70.1042
1500.25	70.0955
1500.51	70.083
1500.77	61.001
1501.04	65.0383
1501.3	70.0851
1501.57	67.0621
1501.83	62.0192
1502.1	63.0232
1502.36	70.0735
1502.62	64.0129
1502.89	67.0106
1503.15	60.9529
1503.42	75.0546
1503.68	66.9928
1503.95	57.9344
1504.21	65.9997
1504.47	63.9878
1504.74	66.005
1505	68.0178
1505.27	72.0429
1505.53	72.0419
1505.8	71.0369
1506.06	63.9856
1506.33	67.0087
1506.59	61.969
1506.85	57.9401
1507.12	67.0217
1507.38	71.0448
1507.65	75.0626
1507.91	72.0246
1508.17	68.9862
1508.44	63.9308
1508.7	66.9196
1508.97	61.8545
1509.23	67.8565
1509.49	76.8649
1509.76	64.7876
1510.02	70.7973
1510.29	73.7941
1510.55	65.7511
1510.81	69.7666
1511.08	64.7761
1511.34	65.7979
1511.6	63.7863
1511.87	70.8075
1512.13	64.7625
1512.4	64.748
1512.66	70.7508
1512.93	68.7229
1513.19	64.6912
1513.45	63.68
1513.72	67.686
1513.98	68.6833
1514.24	69.6825
1514.51	67.6769
1514.77	69.6848
1515.04	70.697
1515.3	67.6974
1515.56	61.6835
1515.83	71.7182
1516.09	68.714
1516.35	71.7296
1516.62	70.731
1516.88	66.7191
1517.14	64.7092
1517.41	70.7229
1517.67	63.7001
1517.94	62.7019
1518.2	72.7412
1518.46	55.6884
1518.73	63.7156
1518.99	71.7383
1519.26	64.7086
1519.52	60.6889
1519.78	64.6942
1520.05	66.6916
1520.31	71.6897
1520.57	67.6561
1520.84	55.6099
1521.1	66.616
1521.36	65.6017
1521.63	64.5896
1521.89	61.5839
1522.15	66.5963
1522.42	68.6021
1522.68	67.6067
1522.94	63.611
1523.21	66.6313
1523.47	62.6382
1523.73	66.6567
1524	62.6493
1524.26	67.6556
1524.52	53.618
1524.79	56.6205
1525.05	68.6405
1525.31	67.6318
1525.58	65.6206
1525.84	76.6334
1526.1	68.6148
1526.37	68.6127
1526.63	70.6133
1526.89	68.602
1527.16	61.5854
1527.42	66.5941
1527.68	62.5979
1527.95	71.6267
1528.21	65.628
1528.47	70.6439
1528.73	65.6319
1529	63.6274
1529.26	64.625
1529.52	68.6328
1529.79	70.6505
1530.05	67.6656
1530.31	64.6801
1530.58	65.6973
1530.84	74.7329
1531.1	69.7196
1531.37	63.6986
1531.63	68.7098
1531.89	62.6856
1532.15	75.7174
1532.42	66.6831
1532.68	62.6488
1532.94	66.6324
1533.21	73.6282
1533.47	74.6084
1533.73	75.5828
1534	65.5483
1534.26	70.5378
1534.52	66.5215
1534.78	71.5182
1535.05	66.51
1535.31	68.4907
1535.57	64.4798
1535.84	68.47
1536.1	68.4772
1536.36	68.507
1536.62	64.5509
1536.89	73.6017
1537.15	64.6182
1537.41	64.647
1537.67	71.6872
1537.94	70.7013
1538.2	63.6646
1538.46	66.6621
1538.73	67.6515
1538.99	77.6544
1539.25	65.6142
1539.51	69.6039
1539.78	67.5849
1540.04	69.5719
1540.3	68.5553
1540.56	71.5375
1540.83	71.5102
1541.09	68.5042
1541.35	67.5067
1541.61	57.514
1541.88	63.5339
1542.14	66.5497
1542.4	72.5807
1542.66	67.5945
1542.93	67.6049
1543.19	63.6081
1543.45	66.6118
1543.72	72.6223
1543.98	62.6114
1544.24	64.6221
1544.5	69.642
1544.76	65.6312
1545.03	59.5875
1545.29	71.596
1545.55	62.5796
1545.81	64.6114
1546.08	63.5761
1546.34	71.5056
1546.6	60.4699
1546.86	68.4859
1547.13	62.5354
1547.39	72.6502
1547.65	66.7102
1547.91	70.8244
1548.18	74.8081
1548.44	70.7889
1548.7	65.7654
1548.96	70.7533
1549.22	71.7737
1549.49	75.8313
1549.75	71.812
1550.01	66.7848
1550.27	61.7154
1550.53	66.7128
1550.8	62.6955
1551.06	66.6977
1551.32	60.664
1551.58	69.668
1551.85	62.6253
1552.11	63.6159
1552.37	70.6225
1552.63	70.6201
1552.89	61.6073
1553.15	73.635
1553.42	64.6075
1553.68	68.612
1553.94	70.6193
1554.2	71.6257
1554.46	69.6252
1554.73	66.6181
1554.99	65.6099
1555.25	60.5811
1555.51	63.5714
1555.77	57.5456
1556.04	64.5306
1556.3	70.5137
1556.56	69.4972
1556.82	67.4846
1557.08	66.4745
1557.35	69.4653
1557.61	73.4572
1557.87	63.4582
1558.13	65.4551
1558.39	72.4519
1558.65	71.4636
1558.92	74.4786
1559.18	71.5051
1559.44	60.5092
1559.7	70.5089
1559.96	66.503
1560.23	68.5045
1560.49	71.501
1560.75	67.4942
1561.01	67.509
1561.27	72.5382
1561.53	61.5457
1561.79	65.5498
1562.06	70.5312
1562.32	69.4381
1562.58	68.285
1562.84	66.1545
1563.1	65.3399
1563.36	70.4802
1563.63	68.4815
1563.89	69.4297
1564.15	71.4547
1564.41	71.5233
1564.67	59.5272
1564.93	68.4872
1565.19	69.4797
1565.46	73.4887
1565.72	68.4965
1565.98	66.4951
1566.24	63.4759
1566.5	66.4566
1566.76	69.4506
1567.03	67.4566
1567.29	66.4598
1567.55	68.4599
1567.81	59.4647
1568.07	65.4589
1568.33	66.4535
1568.59	67.4437
1568.85	64.4341
1569.11	68.4261
1569.38	69.4185
1569.64	71.4032
1569.9	66.3995
1570.16	66.3903
1570.42	70.3725
1570.68	72.3572
1570.94	64.3708
1571.21	69.3703
1571.47	70.3837
1571.73	72.3973
1571.99	65.4237
1572.25	73.4323
1572.51	62.4555
1572.77	69.4571
1573.03	60.4593
1573.29	67.4532
1573.56	61.4531
1573.82	67.431
1574.08	71.4007
1574.34	62.3905
1574.6	62.3685
1574.86	65.3412
1575.12	70.3071
1575.38	67.3003
1575.64	64.3033
1575.9	66.296
1576.16	76.2645
1576.43	68.2892
1576.69	71.2824
1576.95	62.3183
1577.21	69.3043
1577.47	74.293
1577.73	71.2998
1577.99	67.3047
1578.25	63.3065
1578.51	66.289
1578.77	70.2635
1579.03	65.2652
1579.29	68.2477
1579.56	68.243
1579.82	69.2338
1580.08	63.2527
1580.34	68.2306
1580.6	68.2298
1580.86	61.2512
1581.12	71.2084
1581.38	62.2498
1581.64	76.1993
1581.9	69.2303
1582.16	70.2269
1582.42	64.2466
1582.68	66.2373
1582.95	62.2492
1583.21	63.232
1583.47	71.1802
1583.73	64.199
1583.99	67.1754
1584.25	64.1826
1584.51	69.1515
1584.77	69.1472
1585.03	71.1362
1585.29	70.1459
1585.55	71.1481
1585.81	71.1586
1586.07	69.1766
1586.33	68.1901
1586.59	70.1884
1586.85	61.2314
1587.11	67.2042
1587.38	68.2042
1587.64	64.2285
1587.9	68.2201
1588.16	63.2389
1588.42	66.2268
1588.68	75.1853
1588.94	63.2304
1589.2	67.2007
1589.46	67.1794
1589.72	72.1362
1589.98	71.1333
1590.24	69.1197
1590.5	71.0817
1590.76	64.0944
1591.02	61.0957
1591.28	66.0516
1591.54	72.0089
1591.8	66.0552
1592.06	65.0756
1592.32	71.0463
1592.58	62.1125
1592.84	75.9852
1593.1	63.0696
1593.36	72.0083
1593.62	72.0084
1593.88	69.0307
1594.14	65.0619
1594.4	68.0473
1594.66	72.0288
1594.92	71.0348
1595.18	70.0358
1595.44	67.0455
1595.7	66.0344
1595.96	68.9957
1596.22	62.0346
1596.48	70.9555
1596.74	68.9592
1597	69.9393
1597.26	72.9039
1597.52	67.9321
1597.78	67.9166
1598.04	75.8256
1598.3	64.9013
1598.56	69.8323
1598.82	75.7539
1599.08	73.7577
1599.34	62.8553
1599.6	64.8216
1599.86	65.7951
1600.12	66.7694
1600.38	72.69
1600.64	78.6133
1600.9	71.6843
1601.16	69.7045
1601.42	67.7278
1601.68	75.6402
1601.94	69.7082
1602.2	65.7543
1602.46	67.734
1602.72	73.6712
1602.98	65.7683
1603.24	74.6788
1603.5	71.7208
1603.76	70.7391
1604.02	60.8511
1604.28	73.7167
1604.54	69.7584
1604.8	69.7559
1605.06	65.7969
1605.32	74.7006
1605.58	64.8055
1605.83	69.7485
1606.09	71.711
1606.35	68.7227
1606.61	75.6253
1606.87	67.6977
1607.13	66.6882
1607.39	65.6822
1607.65	69.6176
1607.91	59.7309
1608.17	66.6291
1608.43	67.6034
1608.69	65.6274
1608.95	71.548
1609.21	71.5553
1609.47	61.6922
1609.73	66.6283
1609.99	66.6267
1610.25	77.4856
1610.51	77.4854
1610.77	63.6591
1611.02	60.6876
1611.28	68.5739
1611.54	69.5596
1611.8	69.564
1612.06	74.4982
1612.32	66.5977
1612.58	78.4283
1612.84	75.4652
1613.1	71.5184
1613.36	68.5649
1613.62	62.6524
1613.88	69.5638
1614.14	69.5644
1614.39	65.6153
1614.65	75.4779
1614.91	68.5672
1615.17	66.5905
1615.43	67.5767
1615.69	66.5846
1615.95	57.696
1616.21	78.3941
1616.47	71.4805
1616.73	68.513
1616.99	59.6337
1617.24	69.4838
1617.5	65.5372
1617.76	71.4481
1618.02	71.4491
1618.28	74.4114
1618.54	65.549
1618.8	59.639
1619.06	66.5433
1619.32	70.4891
1619.58	62.6058
1619.83	63.6003
1620.09	73.4732
1620.35	60.6665
1620.61	73.5075
1620.87	77.4578
1621.13	69.5565
1621.39	69.5385
1621.65	65.5658
1621.91	73.4349
1622.16	71.4508
1622.42	70.4556
1622.68	69.464
1622.94	68.4751
1623.2	70.4456
1623.46	67.4936
1623.72	66.5214
1623.98	59.6159
1624.24	70.4535
1624.49	72.4241
1624.75	69.4687
1625.01	75.3827
1625.27	66.5171
1625.53	63.5635
1625.79	68.4971
1626.05	69.4798
1626.3	70.4564
1626.56	68.4796
1626.82	68.4749
1627.08	73.398
1627.34	70.4388
1627.6	74.3752
1627.86	73.3792
1628.11	67.4688
1628.37	66.4883
1628.63	68.4697
1628.89	75.3805
1629.15	73.4226
1629.41	72.4326
1629.67	70.483
1629.92	56.7117
1630.18	66.5494
1630.44	62.5734
1630.7	74.3902
1630.96	63.561
1631.22	67.5139
1631.47	67.5179
1631.73	68.4692
1631.99	70.3489
1632.25	75.023
1632.51	61.5549
1632.77	68.1138
1633.02	72.55
1633.28	63.2086
1633.54	69.4454
1633.8	63.0724
1634.06	70.1377
1634.32	69.1695
1634.58	63.5039
1634.83	65.2567
1635.09	69.7769
1635.35	68.1546
1635.61	68.9806
1635.87	67.63
1636.12	71.1805
1636.38	62.4638
1636.64	71.5665
1636.9	65.0589
1637.16	69.431
1637.42	63.6525
1637.67	68.136
1637.93	67.6773
1638.19	65.4014
1638.45	61.0879
1638.7	60.2214
1638.96	70.2341
1639.22	64.0826
1639.48	68.4724
1639.74	65.9552
1640	66.6096
1640.25	67.2061
1640.51	67.4639
1640.77	61.7857
1641.03	69.0743
1641.28	66.3899
1641.54	59.8125
1641.8	63.4584
1642.06	64.614
1642.32	65.836
1642.58	63.5402
1642.83	62.1517
1643.09	62.2741
1643.35	60.7792
1643.61	62.8358
1643.86	66.4018
1644.12	62.6367
1644.38	62.8159
1644.64	62.1988
1644.9	64.9821
1645.15	65.4234
1645.41	65.0398
1645.67	62.143
1645.93	62.3626
1646.18	65.3886
1646.44	64.4709
1646.7	66.0612
1646.96	58.8223
1647.21	63.005
1647.47	61.7247
1647.73	66.3419
1647.99	59.9576
1648.24	63.0361
1648.5	66.0179
1648.76	66.653
1649.02	65.2827
1649.27	63.6536
1649.53	62.7749
1649.79	65.0753
1650.05	63.6194
1650.31	60.554
1650.56	61.8284
1650.82	63.401
1651.08	63.1706
1651.33	62.0955
1651.59	59.1483
1651.85	58.5308
1652.11	60.2114
1652.37	59.4917
1652.62	62.8849
1652.88	63.6393
1653.14	62.5168
1653.39	65.9858
1653.65	64.3595
1653.91	62.2508
1654.17	61.8759
1654.42	62.3334
1654.68	62.2389
1654.94	61.1418
1655.2	58.2613
1655.45	59.6009
1655.71	59.708
1655.97	62.4559
1656.22	63.2748
1656.48	61.3063
1656.74	58.2796
1657	61.7386
1657.25	55.8647
1657.51	56.1452
1657.77	59.4514
1658.03	61.8424
1658.23	62.6377
1658.49	59.6912
1658.75	57.7253
1659.01	61.6833
1659.27	61.635
1659.53	54.7848
1659.79	62.777
1660.05	60.797
1660.31	53.8609
1660.57	59.7975
1660.83	59.6783
1661.09	56.7332
1661.35	54.7891
1661.61	56.7668
1661.87	63.7034
1662.13	61.7584
1662.39	59.7531
1662.65	56.6735
1662.92	55.8226
1663.17	59.8277
1663.43	65.7445
1663.69	56.873
1663.96	60.4946
1664.22	62.6625
1664.47	52.8083
1664.73	53.7834
1665	63.648
1665.26	61.6624
1665.51	56.7236
1665.77	60.6837
1666.04	60.7327
1666.3	54.8181
1666.55	54.8191
1666.81	62.7234
1667.08	63.7135
1667.34	57.7709
1667.59	55.8185
1667.85	57.8324
1668.12	60.7928
1668.37	60.7862
1668.63	56.8306
1668.89	56.829
1669.16	61.7788
1669.41	62.7699
1669.67	61.7829
1669.93	62.77
1670.19	61.7831
1670.45	56.8428
1670.71	57.8348
1670.97	63.7727
1671.23	60.8145
1671.49	59.8343
1671.75	58.8525
1672.01	59.8516
1672.27	58.874
1672.53	59.8701
1672.79	62.8422
1673.05	61.8517
1673.31	57.8938
1673.57	66.8045
1673.83	54.9306
1674.09	63.8386
1674.35	57.8979
1674.61	62.8416
1674.87	61.8447
1675.13	51.9405
1675.39	64.7882
1675.65	60.8194
1675.91	57.8438
1676.17	60.8026
1676.43	57.8309
1676.68	62.7681
1676.94	57.8198
1677.2	56.8265
1677.46	64.7272
1677.72	59.78
1677.98	58.7865
1678.24	60.7587
1678.5	62.7329
1678.76	52.8533
1679.02	59.7686
1679.28	59.769
1679.54	53.8426
1679.8	59.7694
1680.06	60.7553
1680.32	57.7907
1680.58	51.8633
1680.84	60.7532
1681.1	61.738
1681.35	59.7552
1681.61	67.6494
1681.87	60.7326
1682.13	62.7052
1682.39	61.7164
1682.65	58.7535
1682.91	57.7664
1683.17	64.6798
1683.43	61.7209
1683.69	54.8182
1683.95	54.826
1684.21	60.7566
1684.46	58.7781
1684.72	54.8209
1684.98	59.7527
1685.24	64.6847
1685.5	52.8287
1685.76	59.7335
1686.02	55.7724
1686.28	64.6451
1686.54	59.7001
1686.8	60.6757
1687.06	57.7027
1687.31	59.6635
1687.57	57.7056
1687.83	61.6604
1688.09	57.7202
1688.35	63.6446
1688.61	63.649
1688.87	60.6966
1689.13	64.646
1689.39	56.7482
1689.65	61.6762
1689.91	55.7446
1690.16	59.6787
1690.42	58.6771
1690.68	61.6175
1690.94	61.6018
1691.2	57.6493
1691.46	59.6075
1691.72	56.6418
1691.98	58.6083
1692.23	62.5514
1692.49	59.6001
1692.75	59.6035
1693.01	58.6224
1693.27	61.5851
1693.53	57.6509
1693.79	61.5946
1694.05	56.6632
1694.31	60.5955
1694.56	58.611
1694.82	64.504
1695.08	56.6125
1695.34	55.6178
1695.6	57.577
1695.86	60.5208
1696.12	59.5312
1696.38	62.4808
1696.63	58.5468
1696.89	63.4687
1697.15	60.5175
1697.41	60.5106
1697.67	54.6017
1697.93	57.551
1698.19	62.4666
1698.44	63.4454
1698.7	60.486
1698.96	53.5912
1699.22	60.4632
1699.48	63.4005
1699.73	64.3713
1699.99	56.5037
1700.25	63.3802
1700.51	60.4291
1700.77	57.4764
1701.03	60.4195
1701.29	59.44
1701.54	59.4477
1701.8	63.3822
1702.06	55.5194
1702.32	56.4985
1702.58	60.428
1702.84	53.5508
1703.09	57.4743
1703.35	62.3742
1703.61	67.2701
1703.87	59.3989
1704.13	54.476
1704.39	58.3896
1704.65	55.4315
1704.9	67.1837
1705.16	60.299
1705.42	62.2406
1705.68	62.2178
1705.94	63.1756
1706.19	55.3258
1706.45	59.2323
1706.71	61.185
1706.97	61.1833
1707.23	64.1212
1707.48	58.2491
1707.74	58.252
1708	56.3038
1708.26	63.1643
1708.52	68.0671
1708.77	59.2578
1709.03	62.1992
1709.29	57.2977
1709.55	60.2223
1709.81	59.2185
1710.07	56.2585
1710.32	54.2772
1710.58	58.171
1710.84	55.2131
1711.1	54.2247
1711.35	59.1019
1711.61	68.8635
1711.87	59.092
1712.13	54.2065
1712.39	58.1182
1712.64	61.0674
1712.9	63.0228
1713.16	60.0873
1713.42	65.9411
1713.68	59.0912
1713.93	58.099
1714.19	65.8884
1714.45	61.9588
1714.71	62.9041
1714.96	60.9242
1715.22	57.0036
1715.48	59.9049
1715.74	62.8118
1716	60.8549
1716.25	61.8258
1716.51	62.7998
1716.77	58.9024
1717.03	59.877
1717.29	59.8825
1717.54	64.7462
1717.8	63.7622
1718.06	58.8802
1718.32	60.8115
1718.57	61.7729
1718.83	64.6766
1719.09	62.7162
1719.35	60.7558
1719.6	61.712
1719.86	58.7821
1720.12	66.5402
1720.38	62.6432
1720.63	63.6061
1720.89	62.6326
1721.15	52.9193
1721.41	61.6539
1721.66	57.7631
1721.92	61.6312
1722.18	60.6386
1722.44	62.5554
1722.69	62.5322
1722.95	60.5759
1723.21	56.6907
1723.47	60.5687
1723.72	57.6599
1723.98	62.4967
1724.24	60.5402
1724.5	59.5646
1724.75	62.482
1725.01	64.4206
1725.27	62.4737
1725.52	63.4213
1725.78	61.4131
1726.04	58.4217
1726.3	58.3756
1726.55	63.221
1726.81	59.3929
1727.07	62.3167
1727.33	61.3261
1727.58	58.4082
1727.84	62.2608
1728.1	60.3856
1728.35	56.5364
1728.61	61.3708
1728.87	66.2023
1729.13	59.4342
1729.38	62.3274
1729.64	58.4563
1729.9	59.4141
1730.15	54.5732
1730.41	59.3855
1730.67	58.3976
1730.93	54.5119
1731.18	58.3534
1731.44	68.9416
1731.7	62.1718
1731.95	56.37
1732.21	61.1683
1732.47	58.2608
1732.72	62.0993
1732.98	55.3504
1733.24	65.933
1733.5	59.1897
1733.75	59.1819
1734.01	58.2118
1734.27	55.3172
1734.52	61.0808
1734.78	59.15
1735.04	62.9868
1735.29	61.0506
1735.55	61.9988
1735.81	63.9079
1736.06	59.0892
1736.32	60.0332
1736.58	69.6136
1736.83	58.0653
1737.09	62.8363
1737.35	57.0581
1737.61	63.7498
1737.86	60.8583
1738.12	56.0537
1738.38	60.831
1738.63	57.945
1738.89	65.5956
1739.15	58.8857
1739.4	65.5839
1739.66	67.4943
1739.92	56.9572
1740.17	56.9531
1740.43	57.9086
1740.69	61.7327
1740.94	57.8932
1741.2	61.709
1741.46	61.7001
1741.71	66.4767
1741.97	64.5635
1742.23	57.8689
1742.48	60.739
1742.74	56.9106
1743	61.6861
1743.25	63.5868
1743.51	59.747
1743.76	61.6406
1744.02	61.6251
1744.28	64.4742
1744.53	56.8185
1744.79	61.5793
1745.05	64.4342
1745.3	68.2505
1745.56	62.5238
1745.82	56.7987
1746.07	59.6665
1746.33	66.3564
1746.59	62.5474
1746.84	60.6495
1747.1	65.4399
1747.35	63.5445
1747.61	63.5586
1747.87	57.8303
1748.12	67.3962
1748.38	61.6634
1748.63	56.8774
1748.89	62.5964
1749.15	54.9341
1749.4	65.4274
1749.66	66.3683
1749.92	59.6703
1750.17	61.5659
1750.43	63.4626
1750.69	57.7267
1750.94	61.5334
1751.2	62.4741
1751.45	60.5529
1751.71	60.5431
1751.97	57.6746
1752.22	62.4338
1752.48	64.3322
1752.73	62.416
1752.99	58.5921
1753.25	60.483
1753.5	63.3235
1753.76	65.2074
1754.02	58.5249
1754.27	60.4103
1754.53	62.3042
1754.78	62.2964
1755.04	68.0056
1755.29	62.3168
1755.55	66.1303
1755.81	62.3262
1756.06	52.8116
1756.32	60.425
1756.57	61.3801
1756.83	62.3314
1757.09	58.5208
1757.34	54.71
1757.6	58.5106
1757.85	65.1632
1758.11	58.4951
1758.37	61.3361
1758.62	61.3249
1758.88	60.3663
1759.13	61.3125
1759.39	58.4568
1759.65	63.2209
1759.9	59.4256
1760.16	63.2311
1760.41	65.1296
1760.67	60.3774
1760.92	63.2345
1761.18	69.8982
1761.43	63.2526
1761.69	64.2302
1761.95	63.2891
1762.2	61.3944
1762.46	61.4006
1762.71	69.0214
1762.97	59.5038
1763.22	56.6481
1763.48	56.6467
1763.74	55.6906
1763.99	61.3976
1764.25	64.253
1764.5	57.5853
1764.76	62.3364
1765.01	63.278
1765.27	66.1256
1765.52	59.4592
1765.78	68.0187
1766.04	62.2867
1766.29	59.4001
1766.55	61.2699
1766.8	62.1951
1767.06	63.1463
1767.31	59.3606
1767.57	59.378
1767.82	63.1795
1768.08	64.134
1768.33	62.2492
1768.59	55.618
1768.84	67.0373
1769.1	54.6786
1769.36	59.4429
1769.61	58.5041
1769.87	60.4167
1770.12	62.3277
1770.38	63.2869
1770.63	60.4387
1770.89	68.0598
1771.14	64.2578
1771.4	61.4058
1771.65	65.2174
1771.91	63.3221
1772.16	61.4232
1772.42	64.2913
1772.67	56.6969
1772.93	66.2447
1773.18	58.6277
1773.44	66.2572
1773.69	67.208
1773.95	70.0596
1774.21	58.6114
1774.46	64.3225
1774.71	62.4059
1774.97	58.5844
1775.22	65.2406
1775.48	53.802
1775.74	60.455
1775.99	57.5839
1776.24	61.374
1776.5	65.169
1776.76	64.2164
1777.01	55.6696
1777.27	58.5298
1777.52	65.1968
1777.77	52.8286
1778.03	64.2578
1778.29	63.3076
1778.54	66.1667
1778.8	53.7952
1779.05	67.1346
1779.3	57.6215
1779.56	58.5882
1779.81	62.4089
1780.07	62.4166
1780.32	58.6117
1780.58	57.6666
1780.83	62.4409
1781.09	66.2641
1781.34	59.6009
1781.6	59.6169
1781.85	67.259
1782.11	70.1275
1782.36	64.4032
1782.62	58.6757
1782.87	64.3937
1783.13	59.6174
1783.38	58.6646
1783.64	61.5318
1783.89	64.4045
1784.14	58.6925
1784.4	65.3916
1784.65	62.5516
1784.91	59.7229
1785.16	60.7182
1785.42	60.7582
1785.67	60.785
1785.93	56.9663
1786.18	61.7681
1786.44	57.0021
1786.69	63.725
1786.95	62.7753
1787.2	57.0326
1787.46	59.9167
1787.71	59.9176
1787.96	60.8737
1788.22	57.027
1788.47	58.907
1788.73	58.9021
1788.98	60.8118
1789.24	62.7282
1789.49	60.8157
1789.75	57.9459
1790	62.7434
1790.25	51.2531
1790.51	68.4993
1790.76	63.7099
1791.02	62.7607
1791.27	58.9306
1791.53	63.7208
1791.78	58.9209
1792.03	62.7715
1792.29	62.8215
1792.54	62.8545
1792.8	64.7912
1793.05	62.8819
1793.31	65.7745
1793.56	58.1042
1793.81	60.9981
1794.07	61.0109
1794.32	61.9838
1794.58	66.8
1794.83	62.9642
1795.08	61.0489
1795.34	62.0164
1795.59	63.9436
1795.85	63.9444
1796.1	57.2104
1796.36	65.857
1796.61	63.9243
1796.86	62.9507
1797.12	63.9004
1797.37	63.8914
1797.63	59.0807
1797.88	62.918
1798.13	71.5592
1798.39	59.0707
1798.64	65.7945
1798.9	62.9156
1799.15	64.8415
1799.4	63.8875
1799.66	58.1313
1799.91	60.0635
1800.17	62.9596
1800.42	52.3979
1800.67	60.1002
1800.93	67.7995
1801.18	60.1095
1801.44	57.2322
1801.69	60.1296
1801.94	62.0657
1802.2	66.8926
1802.45	64.0217
1802.7	63.0748
1802.96	60.1992
1803.21	63.1004
1803.47	59.2568
1803.72	66.0108
1803.97	58.3068
1804.23	58.309
1804.48	68.9116
1804.74	63.1293
1804.99	61.2027
1805.24	61.2041
1805.5	63.1336
1805.75	59.2803
1806	64.1025
1806.26	58.3214
1806.51	62.1798
1806.77	58.3266
1807.02	63.1499
1807.27	57.3674
1807.53	61.2248
1807.78	62.1859
1808.03	63.1471
1808.29	69.8951
1808.54	58.3252
1808.79	62.1809
1809.05	68.9304
1809.3	64.1138
1809.55	63.157
1809.81	62.2021
1810.06	63.1781
1810.31	66.0812
1810.57	65.1211
1810.82	58.3767
1811.07	64.1812
1811.33	64.1987
1811.58	59.3895
1811.83	64.2389
1812.09	64.2517
1812.34	63.2954
1812.59	69.0995
1812.85	64.271
1813.1	60.4083
1813.35	66.2111
1813.61	63.3166
1813.86	60.4202
1814.11	67.184
1814.37	60.4066
1814.62	62.3101
1814.87	61.3259
1815.13	59.3982
1815.38	64.2397
1815.63	60.393
1815.89	63.2999
1816.14	59.4322
1816.39	60.4036
1816.65	61.3779
1816.9	58.4852
1817.15	57.5241
1817.41	67.2005
1817.66	58.5066
1817.91	66.2503
1818.17	64.3226
1818.42	68.2016
1818.67	65.3102
1818.93	70.1584
1819.18	57.5852
1819.43	62.4302
1819.69	67.2745
1819.94	64.3745
1820.19	64.3779
1820.44	59.5358
1820.7	56.6269
1820.95	65.3322
1821.2	54.6851
1821.46	65.3376
1821.71	64.3756
1821.96	57.6046
1822.22	65.3567
1822.47	58.5855
1822.72	64.4003
1822.97	73.1175
1823.23	67.3067
1823.48	62.4663
1823.73	63.4366
1823.98	62.47
1824.24	64.4119
1824.49	60.5436
1824.74	65.3948
1825	62.4947
1825.25	61.5254
1825.5	59.5855
1825.76	66.3604
1826.01	61.508
1826.26	62.4715
1826.51	62.4696
1826.77	64.4042
1827.02	61.4953
1827.27	60.5192
1827.52	61.4811
1827.78	62.4427
1828.03	57.6039
1828.28	64.389
1828.53	65.3663
1828.79	59.5645
1829.04	61.5095
1829.29	55.7051
1829.55	65.4027
1829.8	61.5404
1830.05	65.4256
1830.3	68.3339
1830.56	63.4897
1830.81	64.4659
1831.06	57.6823
1831.31	66.4127
1831.57	52.8222
1831.82	67.3234
1832.07	61.4816
1832.32	63.3889
1832.58	50.7944
1832.83	59.4854
1833.08	60.4552
1833.33	63.3389
1833.59	60.7334
1833.84	62.6064
1834.09	66.4036
1834.34	63.4744
1834.6	59.5504
1834.85	68.2254
1835.1	66.217
1835.35	65.216
1835.6	63.2803
1835.86	57.5996
1836.11	64.4075
1836.36	66.3687
1836.61	65.4068
1836.87	62.5092
1837.12	63.4944
1837.37	70.202
1837.62	55.6421
1837.88	64.3136
1838.13	64.2818
1838.38	65.2177
1838.63	66.155
1838.88	59.371
1839.14	64.1747
1839.39	57.4002
1839.64	67.0282
1839.89	66.0768
1840.14	61.2474
1840.4	56.4317
1840.65	67.0413
1840.9	70.8993
1841.15	62.2117
1841.41	63.1774
1841.66	67.0436
1841.91	64.1492
1842.16	61.2467
1842.41	56.4265
1842.66	60.2892
1842.92	68.0356
1843.17	60.3418
1843.42	63.2671
1843.67	60.3988
1843.93	65.1836
1844.18	64.1219
1844.43	64.9921
1844.68	60.162
1844.93	61.1316
1845.19	67.9056
1845.44	69.8514
1845.69	62.1144
1845.94	62.1017
1846.19	60.1754
1846.44	69.7887
1846.7	62.0697
1846.95	62.0506
1847.2	69.7245
1847.45	64.893
1847.7	71.6018
1847.96	62.9363
1848.21	65.8049
1848.46	63.8722
1848.71	61.9427
1848.96	62.8975
1849.21	65.7759
1849.47	67.6962
1849.72	69.617
1849.97	66.7361
1850.22	64.8134
1850.47	59.0483
1850.72	64.8011
1850.98	64.7871
1851.23	62.8493
1851.48	66.6652
1851.73	66.6482
1851.98	58.9687
1852.23	65.669
1852.49	55.1056
1852.74	65.6277
1852.99	55.0807
1853.24	66.5701
1853.49	65.6099
1853.74	65.6106
1853.99	66.5674
1854.25	62.7332
1854.5	65.5999
1854.75	69.4226
1855	60.797
1855.25	59.8296
1855.5	66.5167
1855.75	65.5444
1856.01	57.8762
1856.26	67.4259
1856.51	69.3208
1856.76	71.2233
1857.01	59.7517
1857.26	62.6193
1857.51	66.4502
1857.77	59.7702
1858.02	61.6925
1858.27	55.0058
1858.52	59.8012
1858.77	55.9819
1859.02	66.5104
1859.27	57.8933
1859.52	60.7536
1859.78	64.5662
1860.03	66.4634
1860.28	66.4478
1860.53	62.6092
1860.78	66.4186
1861.03	58.7623
1861.28	67.3495
1861.53	68.2931
1861.78	63.5058
1862.04	61.5826
1862.29	58.7025
1862.54	67.2725
1862.79	57.7104
1863.04	64.3621
1863.29	65.2879
1863.54	61.449
1863.79	62.3759
1864.04	61.3976
1864.3	64.2274
1864.55	65.1548
1864.8	66.0882
1865.05	62.2759
1865.3	67.9735
1865.55	57.5129
1865.8	60.3675
1866.05	64.174
1866.3	64.172
1866.56	67.0203
1866.81	65.115
1867.06	60.3589
1867.31	65.1084
1867.56	69.8575
1867.81	67.0039
1868.06	67.0027
1868.31	66.0515
1868.56	57.4928
1868.81	66.9878
1869.06	67.9253
1869.31	58.4196
1869.57	66.962
1869.82	63.1495
1870.07	54.5922
1870.32	59.3328
1870.57	64.0777
1870.82	61.2239
1871.07	67.8578
1871.32	66.8954
1871.57	66.88
1871.82	66.863
1872.07	62.1048
1872.32	63.9835
1872.57	66.8077
1872.82	58.2559
1873.08	56.3296
1873.33	60.0973
1873.58	56.2951
1873.83	63.8504
1874.08	59.1098
1874.33	69.473
1874.58	62.8128
1874.83	64.6441
1875.08	61.9118
1875.33	64.9462
1875.58	59.1447
1875.83	62.9195
1876.08	61.033
1876.33	65.8287
1876.58	63.9497
1876.83	61.0846
1877.08	62.9635
1877.33	55.3873
1877.58	62.9615
1877.83	64.8647
1878.09	62.957
1878.34	58.2164
1878.59	65.7591
1878.84	65.7259
1879.09	65.6924
1879.34	61.8775
1879.59	67.5042
1879.84	64.6333
1880.09	58.9492
1880.34	65.6339
1880.59	58.3024
1880.84	64.6652
1881.09	62.6658
1881.34	64.5698
1881.59	57.9874
1881.84	66.4547
1882.09	60.8255
1882.34	66.5109
1882.59	71.2379
1882.84	61.8176
1883.09	61.8434
1883.34	66.5786
1883.59	57.1393
1883.84	65.6257
1884.09	66.5465
1884.34	58.0381
1884.59	62.7417
1884.84	64.6127
1885.09	57.9946
1885.34	63.632
1885.59	64.5503
1885.84	62.6446
1886.09	65.4494
1886.34	60.7246
1886.59	61.6597
1886.84	59.7738
1887.09	65.4217
1887.34	69.1974
1887.59	61.6814
1887.84	56.041
1888.09	55.1012
1888.34	65.4572
1888.59	66.3959
1888.84	60.7429
1889.09	69.214
1889.34	66.3873
1889.59	62.6156
1889.84	64.4885
1890.09	69.1793
1890.34	61.6211
1890.59	66.2884
1890.84	69.0801
1891.09	62.5107
1891.34	61.5622
1891.59	58.726
1891.84	69.9911
1892.09	67.1707
1892.34	61.5371
1892.59	57.7843
1892.84	63.429
1893.09	64.3767
1893.34	67.2057
1893.59	59.6973
1893.84	66.2911
1894.09	56.8972
1894.34	65.3693
1894.59	67.2559
1894.84	64.4361
1895.09	64.4346
1895.34	63.489
1895.59	68.1825
1895.84	70.05
1896.08	61.5723
1896.33	64.3767
1896.58	69.066
1896.83	60.6028
1897.08	63.4119
1897.33	56.8312
1897.58	65.2847
1897.83	67.168
1898.08	62.4786
1898.33	62.4916
1898.58	68.1434
1898.83	54.0562
1899.08	59.7087
1899.33	63.4881
1899.58	57.8525
1899.83	64.4341
1900.08	60.6667
1900.33	67.2425
1900.57	67.2355
1900.83	60.6484
1901.07	65.3462
1901.32	64.4037
1901.57	61.5816
1901.82	63.4594
1902.07	66.2759
1902.32	65.3348
1902.57	65.3338
1902.82	67.2081
1903.07	69.0576
1903.32	67.1649
1903.57	67.1567
1903.82	71.8447
1904.06	56.8134
1904.31	58.6881
1904.56	61.5097
1904.81	64.3293
1905.06	61.5259
1905.31	62.474
1905.56	61.5379
1905.81	61.5425
1906.06	63.4303
1906.31	64.3816
1906.56	66.2763
1906.81	62.5335
1907.05	60.6722
1907.31	67.2802
1907.55	60.7153
1907.8	65.44
1908.05	63.5696
1908.3	59.8106
1908.55	60.7575
1908.8	61.7005
1909.05	63.5834
1909.3	65.4607
1909.55	66.4004
1909.79	63.5742
1910.04	59.8074
1910.29	66.4006
1910.54	68.2889
1910.79	63.5936
1911.04	64.5579
1911.29	57.0356
1911.54	63.6468
1911.79	65.5479
1912.03	70.2786
1912.28	58.9699
1912.53	63.6948
1912.78	61.8092
1913.03	70.2982
1913.28	57.0823
1913.53	68.403
1913.78	62.7279
1914.03	60.8294
1914.27	61.7628
1914.52	57.0406
1914.77	65.5208
1915.02	66.4611
1915.27	62.6954
1915.52	62.7074
1915.77	65.5529
1916.02	62.7417
1916.26	59.9303
1916.51	67.5037
1916.76	68.4795
1917.01	62.8298
1917.26	60.948
1917.51	71.341
1917.76	61.883
1918	68.5115
1918.25	60.0238
1918.5	63.8204
1918.75	60.9907
1919	66.6745
1919.25	61.9487
1919.49	67.6214
1919.74	65.7226
1919.99	60.9841
1920.24	65.7037
1920.49	64.7533
1920.74	63.8029
1920.99	65.6865
1921.24	64.7308
1921.48	59.0508
1921.73	65.6595
1921.98	66.6044
1922.23	64.7204
1922.48	61.8968
1922.73	66.6388
1922.97	65.7148
1923.22	60.0576
1923.47	65.7501
1923.72	64.8233
1923.97	67.6818
1924.22	64.8534
1924.46	62.0223
1924.71	72.4483
1924.96	63.933
1925.21	62.046
1925.46	62.0521
1925.7	63.0052
1925.95	60.1716
1926.2	60.1803
1926.45	63.0356
1926.7	65.8969
1926.95	64.0203
1927.19	64.9863
1927.44	64.0564
1927.69	66.92
1927.94	60.2878
1928.19	56.4922
1928.43	57.4411
1928.68	65.0297
1928.93	65.9703
1929.18	61.2161
1929.43	64.0546
1929.67	63.0967
1929.92	66.8846
1930.17	64.0343
1930.42	72.5676
1930.67	66.8882
1930.92	65.9657
1931.16	56.507
1931.41	65.1045
1931.66	60.4067
1931.91	65.2158
1932.16	56.6862
1932.4	60.5309
1932.65	60.5561
1932.9	61.5039
1933.15	57.6603
1933.39	69.0958
1933.64	68.1363
1933.89	64.314
1934.14	64.2995
1934.39	69.9991
1934.63	71.8892
1934.88	64.2593
1935.13	60.44
1935.38	71.8535
1935.62	60.4434
1935.87	67.1249
1936.12	69.9896
1936.37	69.049
1936.62	69.0598
1936.86	68.1173
1937.11	58.5972
1937.36	69.0871
1937.61	67.1988
1937.85	67.2287
1938.1	64.4041
1938.35	61.5532
1938.6	61.5484
1938.85	64.3956
1939.09	62.4574
1939.34	59.5882
1939.59	69.1736
1939.84	65.4015
1940.08	64.4533
1940.33	60.6229
1940.58	63.4587
1940.83	67.2491
1941.07	73.9372
1941.32	62.5189
1941.57	59.667
1941.82	63.5001
1942.06	67.3362
1942.31	64.4871
1942.56	59.7252
1942.81	67.3861
1943.05	66.4442
1943.3	60.7185
1943.55	60.7267
1943.8	58.8192
1944.04	67.4283
1944.29	67.4247
1944.54	69.331
1944.79	61.6771
1945.03	66.4576
1945.28	60.72
1945.53	56.8927
1945.77	64.5415
1946.02	64.5497
1946.27	66.4756
1946.52	62.663
1946.76	64.5918
1947.01	61.7374
1947.26	60.8019
1947.51	67.5349
1947.75	60.854
1948	67.5879
1948.25	58.9838
1948.49	59.0075
1948.74	62.8669
1948.99	65.7628
1949.24	61.9336
1949.48	72.5076
1949.73	69.6303
1949.98	68.6759
1950.22	73.4953
1950.47	64.8461
1950.72	61.9433
1950.97	66.7099
1951.21	66.67
1951.46	71.4278
1951.71	60.8521
1951.95	66.5835
1952.2	65.6205
1952.45	60.8343
1952.69	61.8054
1952.94	64.704
1953.19	67.6203
1953.44	68.6115
1953.68	62.8734
1953.93	59.0481
1954.18	62.9021
1954.42	63.8769
1954.67	63.8899
1954.92	66.7834
1955.16	65.8307
1955.41	63.9143
1955.66	66.802
1955.91	65.8393
1956.15	64.8687
1956.4	60.0555
1956.65	70.6213
1956.89	67.7317
1957.14	60.0366
1957.39	64.8298
1957.63	63.8592
1957.88	60.9675
1958.13	68.6362
1958.37	66.7056
1958.62	66.6976
1958.87	64.7773
1959.11	62.8613
1959.36	66.7035
1959.61	63.8272
1959.85	62.8704
1960.1	64.793
1960.35	61.9159
1960.59	63.8383
1960.84	69.6014
1961.09	69.6085
1961.33	67.6967
1961.58	63.8579
1961.83	64.8145
1962.07	61.9334
1962.32	73.4547
1962.57	62.8927
1962.81	62.8974
1963.06	70.5911
1963.31	61.9609
1963.55	67.7404
1963.8	66.7919
1964.05	65.8407
1964.29	62.9587
1964.54	62.9583
1964.79	66.8078
1965.03	62.9669
1965.28	65.8534
1965.52	62.0092
1965.77	63.9278
1966.02	66.8024
1966.26	62.9439
1966.51	67.7292
1966.75	65.7866
1967	57.1269
1967.25	72.4728
1967.49	59.9841
1967.74	64.7734
1967.99	65.7219
1968.23	60.9173
1968.48	66.6666
1968.73	62.8246
1968.97	69.5391
1969.22	65.71
1969.47	66.6741
1969.71	66.6754
1969.96	72.4274
1970.2	65.7033
1970.45	67.608
1970.7	63.7591
1970.94	68.543
1971.19	67.5777
1971.43	65.6572
1971.68	62.7813
1971.93	63.7418
1972.17	63.7462
1972.42	65.6711
1972.66	68.5576
1972.91	65.6909
1973.16	68.576
1973.4	62.8266
1973.65	63.7889
1973.9	62.831
1974.14	60.9116
1974.39	59.9493
1974.63	66.6574
1974.88	60.8944
1975.13	62.8021
1975.37	63.7517
1975.62	65.6616
1975.86	63.7395
1976.11	67.5722
1976.35	63.7401
1976.6	67.5757
1976.85	69.4944
1977.09	62.787
1977.34	65.6595
1977.59	60.8573
1977.83	65.6377
1978.08	64.6721
1978.32	66.5813
1978.57	65.6146
1978.81	67.5254
1979.06	60.8181
1979.31	62.7317
1979.55	58.8945
1979.8	65.5863
1980.04	61.7442
1980.29	60.77
1980.53	68.4088
1980.78	64.5732
1981.03	65.5255
1981.27	66.4764
1981.52	65.5133
1981.76	63.5948
1982.01	66.4552
1982.25	61.6599
1982.5	64.5158
1982.75	63.5586
1982.99	63.5619
1983.24	71.2166
1983.48	65.4922
1983.73	67.4126
1983.97	61.6755
1984.22	67.4142
1984.47	63.586
1984.71	62.6122
1984.95	69.2817
1985.2	66.3907
1985.45	62.5437
1985.69	71.0939
1985.94	67.2278
1986.18	63.3747
1986.43	70.0064
1986.67	70.9285
1986.92	60.4415
1987.16	63.2906
1987.41	66.1492
1987.66	59.5043
1987.9	57.6222
1988.15	64.3051
1988.39	67.1841
1988.64	63.392
1988.88	67.2189
1989.13	65.3225
1989.37	66.2806
1989.62	64.37
1989.86	62.4544
1990.11	58.6305
1990.35	60.5238
1990.6	67.1729
1990.84	63.3374
1991.09	69.0241
1991.34	60.434
1991.58	64.2136
1991.83	61.3287
1992.07	65.1044
1992.32	66.0298
1992.56	59.3589
1992.81	66.9382
1993.05	65.0277
1993.3	66.9254
1993.54	65.9793
1993.79	64.0868
1994.03	66.9438
1994.28	60.3061
1994.52	66.9609
1994.77	53.6643
1995.01	68.8604
1995.26	60.3107
1995.5	65.0536
1995.75	68.8456
1995.99	63.1378
1996.24	62.1683
1996.48	66.8744
1996.73	67.7524
1996.97	64.8522
1997.22	64.8389
1997.46	67.6897
1997.71	72.4565
1997.95	66.8324
1998.2	66.868
1998.44	56.4296
1998.69	61.198
1998.93	75.4017
1999.18	69.6221
1999.42	64.883
1999.67	61.0862
1999.91	61.0466
2000.16	61.9761
2000.4	61.0202
2000.65	61.011
2000.89	63.8374
2001.14	65.7162
2001.38	63.8152
2001.63	66.6449
2001.87	65.6975
2002.12	65.6957
2002.36	59.0756
2002.6	62.8526
2002.85	71.355
2003.09	69.4615
2003.34	61.8998
2003.58	63.7915
2003.83	67.5789
2004.07	60.0212
2004.32	74.1943
2004.56	71.3501
2004.81	66.6156
2005.05	67.5464
2005.3	65.6322
2005.54	67.4951
2005.78	64.6458
2006.03	59.9139
2006.27	72.1588
2006.52	61.7607
2006.76	61.7467
2007.01	66.4417
2007.25	62.6609
2007.5	72.9996
2007.74	62.6351
2007.99	62.6331
2008.23	69.2246
2008.48	59.8043
2008.72	61.6879
2008.96	69.1678
2009.21	59.7694
2009.45	64.5156
2009.7	61.6434
2009.94	66.1298
2010.19	58.8269
2010.43	62.488
2010.67	61.2674
2010.92	67.3385
2011.16	62.9294
2011.41	64.227
2011.65	61.201
2011.9	63.8459
2012.14	67.5805
2012.39	64.2989
2012.63	67.3808
2012.87	66.4904
2013.12	60.6455
2013.36	61.6321
2013.61	57.9383
2013.85	66.8409
2014.09	67.4015
2014.34	59.9939
2014.58	66.8429
2014.83	63.404
2015.07	59.0048
2015.31	65.4472
2015.56	60.0254
2015.8	64.4718
2016.05	65.262
2016.29	62.3919
2016.54	62.8889
2016.78	62.8219
2017.02	62.6815
2017.27	68.8743
2017.51	64.0057
2017.76	57.7912
2018	59.7171
2018.24	61.7192
2018.49	60.5558
2018.73	59.5404
2018.98	65.2702
2019.22	60.5791
2019.46	64.8138
2019.71	64.8747
2019.95	58.6415
2020.2	63.4008
2020.44	66.2904
2020.68	62.7855
2020.93	60.8548
2021.17	61.7661
2021.42	66.1128
2021.66	62.6752
2021.9	60.1955
2022.15	58.6321
2022.39	63.4022
2022.63	63.1912
2022.88	59.8522
2023.12	62.1081
2023.37	63.1234
2023.61	61.7835
2023.85	61.5742
2024.1	61.9627
2024.34	59.964
2024.58	60.0441
2024.83	60.2994
2025.07	61.7249
2025.32	59.7117
2025.56	60.7587
2025.8	61.7554
2026.05	59.627
2026.29	59.7155
2026.53	61.7362
2026.78	62.6941
2027.02	58.6391
2027.26	58.2836
2027.51	61.6161
2027.75	61.463
2027.99	59.6453
2028.24	59.6228
2028.48	56.5846
2028.73	60.2705
2028.97	57.1837
2029.21	63.4887
2029.46	58.5867
2029.7	60.7338
2029.94	60.5216
2030.19	64.5122
2030.43	59.3428
2030.67	58.7835
2030.92	60.7123
2031.16	60.6917
2031.4	58.5181
2031.65	59.0259
2031.89	60.4452
2032.13	59.7691
2032.38	57.246
2032.62	58.4327
2032.86	55.9882
2033.11	61.132
2033.35	62.204
2033.59	59.336
2033.84	60.3649
2034.08	57.6291
2034.32	61.391
2034.57	55.707
2034.81	59.6669
2035.05	59.0874
2035.11	58.4265
2035.36	59.3531
2035.61	57.4748
2035.85	56.5312
2036.1	60.2591
2036.34	54.6443
2036.59	64.908
2036.84	55.5575
2037.08	52.7413
2037.33	50.86
2037.58	57.3774
2037.82	55.4978
2038.07	59.2159
2038.32	60.1376
2038.56	56.4023
2038.81	61.0605
2039.05	60.121
2039.3	58.249
2039.54	62.8977
2039.79	54.5043
2040.04	55.4362
2040.28	63.8257
2040.53	55.4533
2040.78	53.6104
2041.02	57.3643
2041.27	60.1758
2041.51	53.6439
2041.76	59.2292
2042.01	57.3397
2042.25	61.9508
2042.5	58.2699
2042.74	56.4404
2042.99	59.3074
2043.24	60.3429
2043.48	61.2551
2043.73	57.4538
2043.97	57.409
2044.22	60.2038
2044.47	61.124
2044.71	58.2816
2044.96	62.9238
2045.2	58.2635
2045.45	56.4022
2045.69	61.0676
2045.94	60.1414
2046.19	58.2915
2046.43	52.7067
2046.68	56.4541
2046.93	56.4747
2047.17	56.4914
2047.42	65.8478
2047.66	60.2549
2047.91	56.5221
2048.15	58.3881
2048.4	57.4434
2048.64	63.9636
2048.89	66.7615
2049.14	59.2929
2049.38	54.6318
2049.63	66.7766
2049.87	61.1798
2050.12	57.453
2050.37	58.3988
2050.61	61.2173
2050.86	52.8309
2051.1	56.5838
2051.35	58.4632
2051.59	65.9498
2051.84	61.2716
2052.08	55.6563
2052.33	61.2658
2052.58	57.5101
2052.82	54.6978
2053.07	58.4356
2053.31	51.8861
2053.56	61.2281
2053.8	67.7667
2054.05	60.2884
2054.29	60.2913
2054.54	54.6871
2054.78	57.4986
2055.03	56.573
2055.28	59.3865
2055.52	59.402
2055.77	61.2874
2056.01	55.6855
2056.26	55.6954
2056.5	54.7632
2056.75	59.4471
2056.99	64.1313
2057.24	60.3788
2057.49	60.3704
2057.73	65.9768
2057.98	59.4329
2058.22	62.2504
2058.47	53.8318
2058.71	60.3884
2058.96	52.8997
2059.2	63.2011
2059.45	60.3965
2059.69	56.6571
2059.94	65.0949
2060.18	60.423
2060.43	61.3708
2060.67	59.5054
2060.92	54.8265
2061.16	62.3299
2061.41	56.711
2061.65	59.53
2061.9	55.7887
2062.14	58.6147
2062.39	61.4476
2062.63	56.7733
2062.88	59.6038
2063.12	53.9834
2063.37	55.8695
2063.61	61.5071
2063.86	56.8171
2064.11	56.8247
2064.35	61.5264
2064.6	54.019
2064.84	63.4244
2065.09	63.434
2065.33	60.6216
2065.58	60.626
2065.82	56.8742
2066.07	61.5773
2066.31	59.6891
2066.56	62.492
2066.8	60.5867
2067.05	63.3915
2067.29	54.9438
2067.54	60.6032
2067.78	60.6345
2068.02	60.6665
2068.27	59.726
2068.51	63.4697
2068.76	69.1812
2069	60.7427
2069.25	54.1479
2069.49	61.6768
2069.74	60.7333
2069.98	57.904
2070.23	56.0205
2070.47	64.4912
2070.72	60.7277
2070.96	57.9055
2071.21	56.0258
2071.45	59.799
2071.7	57.9266
2071.94	57.9422
2072.19	58.9049
2072.43	60.8171
2072.68	65.5669
2072.92	58.9855
2073.16	60.8857
2073.41	62.7761
2073.65	62.7792
2073.9	56.1655
2074.14	60.8731
2074.39	60.8596
2074.63	59.888
2074.88	59.88
2075.12	57.0576
2075.36	57.0708
2075.61	62.7367
2075.85	61.799
2076.1	55.2026
2076.34	57.1027
2076.59	59.02
2076.83	62.8106
2077.08	57.1538
2077.32	65.667
2077.57	62.8415
2077.81	58.1181
2078.06	62.8368
2078.3	58.1081
2078.54	57.1616
2078.79	62.8303
2079.03	62.8276
2079.28	61.888
2079.52	60.9482
2079.77	60.9521
2080.01	63.7887
2080.25	64.733
2080.5	58.1157
2080.74	55.2787
2080.99	58.1137
2081.23	59.0598
2081.48	60.9492
2081.72	62.8402
2081.96	62.8425
2082.21	62.8434
2082.45	62.8433
2082.7	60.0089
2082.94	66.6284
2083.19	60.0285
2083.43	58.1569
2083.67	56.2797
2083.92	61.0155
2084.16	61.9692
2084.41	65.7649
2084.65	53.4695
2084.89	57.2556
2085.14	62.9351
2085.38	61.0441
2085.63	62.9401
2085.87	55.3716
2086.12	59.1608
2086.36	62.9571
2086.6	64.8619
2086.85	56.3551
2087.09	63.9392
2087.33	61.1009
2087.58	57.3161
2087.82	59.2167
2088.07	53.538
2088.31	62.0735
2088.55	60.1849
2088.8	55.4605
2089.04	58.3222
2089.29	55.4954
2089.53	59.3097
2089.78	60.2801
2090.02	61.2465
2090.26	58.413
2090.51	63.1788
2090.75	62.2445
2090.99	66.0598
2091.24	67.974
2091.48	63.2249
2091.73	58.4713
2091.97	67.0251
2092.21	59.4153
2092.46	58.4549
2092.7	58.4442
2092.94	59.3861
2093.19	58.4293
2093.43	55.5751
2093.68	55.5732
2093.92	58.4209
2094.16	60.3127
2094.41	61.2504
2094.65	60.2887
2094.89	58.3851
2095.14	63.1286
2095.38	63.1257
2095.63	59.3201
2095.87	57.4222
2096.11	59.3191
2096.36	64.061
2096.6	59.3132
2096.84	56.4654
2097.09	52.67
2097.33	63.1114
2097.57	56.4714
2097.82	58.3757
2098.06	58.3906
2098.31	60.3016
2098.55	58.41
2098.79	59.3637
2099.03	64.113
2099.28	64.1117
2099.52	60.313
2099.77	58.41
2100.01	58.4005
2100.25	59.3381
2100.5	57.433
2100.74	57.4315
2100.98	56.4792
2101.23	54.582
2101.47	65.0297
2101.71	63.1411
2101.96	61.2517
2102.2	62.2105
2102.44	63.1718
2102.69	57.4855
2102.93	67.0003
2103.17	66.0576
2103.42	60.3612
2103.66	60.3645
2103.9	62.2688
2104.15	56.5704
2104.39	63.2278
2104.63	60.3687
2104.88	60.357
2105.12	69.8439
2105.36	60.3247
2105.6	60.3083
2105.85	53.649
2106.09	65.0385
2106.34	65.9913
2106.58	57.4614
2106.82	62.2225
2107.06	54.6236
2107.31	57.4739
2107.55	58.4239
2107.79	63.1739
2108.04	55.5743
2108.28	61.2738
2108.52	54.6201
2108.77	59.3614
2109.01	59.3557
2109.25	57.453
2109.5	64.1006
2109.74	53.6604
2109.98	58.4152
2110.22	57.4726
2110.47	66.9897
2110.71	53.6978
2110.95	65.109
2111.2	66.0552
2111.44	61.2978
2111.68	64.148
2111.93	62.2506
2112.17	61.3017
2112.41	56.5464
2112.65	59.3925
2112.9	59.388
2113.14	60.3332
2113.38	57.4708
2113.62	63.1584
2113.87	59.3544
2114.11	58.4019
2114.35	61.2484
2114.6	63.1507
2114.84	69.7904
2115.08	65.9818
2115.33	62.174
2115.57	59.3101
2115.81	60.2412
2116.05	60.2278
2116.3	61.1633
2116.54	51.6697
2116.78	63.0336
2117.02	54.4928
2117.27	59.2229
2117.51	60.1678
2117.75	64.9079
2117.99	58.2855
2118.24	65.8736
2118.48	60.201
2118.72	58.3196
2118.97	56.4358
2119.21	63.0887
2119.45	60.2541
2119.69	61.2126
2119.94	66.916
2120.18	57.4311
2120.42	62.1827
2120.66	62.1848
2120.91	60.2812
2121.15	60.2743
2121.39	59.3146
2121.63	60.2472
2121.88	62.1195
2122.12	61.1418
2122.36	58.2725
2122.6	60.147
2122.85	56.3409
2123.09	56.3245
2123.33	56.3101
2123.57	59.1367
2123.81	58.1782
2124.06	61.0029
2124.3	57.2084
2124.54	59.0947
2124.78	64.7647
2125.03	59.088
2125.27	60.9725
2125.51	60.0239
2125.75	60.0244
2126	60.97
2126.24	57.1864
2126.48	60.9624
2126.72	66.6292
2126.97	64.7362
2127.21	58.118
2127.45	58.1146
2127.69	60.9447
2127.93	59.0491
2128.18	58.0971
2128.42	59.033
2128.66	57.135
2128.9	54.2944
2129.15	60.8985
2129.39	60.891
2129.63	65.5979
2129.87	56.1495
2130.11	63.6935
2130.35	55.2009
2130.6	61.809
2130.84	58.9804
2131.08	56.1499
2131.32	60.8719
2131.57	62.7608
2131.81	57.0967
2132.05	57.0952
2132.29	62.7558
2132.53	64.6398
2132.78	55.1975
2133.02	53.3007
2133.26	60.8278
2133.5	61.7531
2133.74	57.0319
2133.99	52.3222
2134.23	66.4653
2134.47	60.8104
2134.71	52.3318
2134.95	60.8323
2135.2	57.0519
2135.44	61.7488
2135.68	59.8517
2135.92	59.8667
2136.16	63.6587
2136.4	59.8997
2136.65	60.8047
2136.89	59.8437
2137.13	64.5449
2137.37	66.4195
2137.61	61.7013
2137.85	61.6947
2138.1	59.8066
2138.34	60.7435
2138.58	54.1531
2138.82	55.0812
2139.06	61.6589
2139.31	59.7722
2139.55	63.5382
2139.79	57.9038
2140.03	60.7371
2140.27	53.2546
2140.51	56.9882
2140.76	65.2798
2141	62.4929
2141.24	60.6207
2141.48	63.4656
2141.72	61.6061
2141.96	67.261
2142.21	59.6947
2142.45	60.6466
2142.69	52.1856
2142.93	63.4648
2143.17	56.8785
2143.41	57.8137
2143.65	60.6291
2143.9	59.6842
2144.14	62.4974
2144.38	65.3075
2144.62	62.4802
2144.86	61.5332
2145.1	58.7088
2145.34	61.5196
2145.59	60.5732
2145.83	57.7481
2146.07	58.6776
2146.31	57.7265
2146.55	60.5263
2146.79	60.5026
2147.03	58.6125
2147.28	67.9726
2147.52	61.3982
2147.76	65.142
2148	66.0793
2148.24	66.0861
2148.48	58.5963
2148.72	52.9773
2148.96	56.736
2149.21	57.6791
2149.45	69.8777
2149.69	64.2405
2149.93	64.2309
2150.17	62.3442
2150.41	60.46
2150.65	62.3296
2150.89	60.4487
2151.14	60.4377
2151.38	64.1688
2151.62	59.4632
2151.86	59.4384
2152.1	57.5421
2152.34	54.7118
2152.58	61.2391
2152.82	62.1557
2153.06	59.337
2153.3	64.9323
2153.55	62.1238
2153.79	62.1214
2154.03	62.1201
2154.27	66.792
2154.51	63.0611
2154.75	64.9395
2154.99	61.2139
2155.23	60.2876
2155.47	63.0939
2155.72	64.0279
2155.96	63.0899
2156.2	65.8877
2156.44	64.01
2156.68	59.3276
2156.92	55.5787
2157.16	68.6385
2157.4	64.8873
2157.64	67.6732
2157.88	61.128
2158.13	60.1894
2158.36	64.8515
2158.61	58.3136
2158.85	55.5101
2159.09	62.039
2159.33	62.9721
2159.57	61.1065
2159.81	60.1722
2160.05	59.2328
2160.29	67.6195
2160.53	61.0841
2160.77	56.4155
2161.01	61.071
2161.26	62.9283
2161.49	61.9802
2161.74	55.4424
2161.98	57.2979
2162.22	57.304
2162.46	62.8988
2162.7	62.8997
2162.94	56.3777
2163.18	61.0375
2163.42	58.2335
2163.66	56.3642
2163.9	62.8755
2164.14	58.2061
2164.38	65.6471
2164.62	65.6302
2164.86	65.6087
2165.1	64.645
2165.35	58.1102
2165.59	58.1042
2165.83	54.3855
2166.07	64.6167
2166.31	59.0475
2166.55	60.921
2166.79	62.8003
2167.03	60.0311
2167.27	60.9843
2167.51	62.8588
2167.75	56.3431
2167.99	65.6495
2168.23	62.8444
2168.47	57.2499
2168.71	61.8748
2168.95	64.624
2169.19	58.0963
2169.43	63.6619
2169.67	59.0052
2169.91	61.7861
2170.15	64.5719
2170.39	63.6419
2170.63	62.7134
2170.87	59.9315
2171.12	62.7268
2171.35	59.944
2171.6	59.9465
2171.84	58.0882
2172.08	59.9466
2172.32	56.2274
2172.56	61.7997
2172.8	62.7255
2173.04	64.5817
2173.28	59.0029
2173.52	58.9967
2173.76	58.9889
2174	65.4886
2174.24	62.7026
2174.48	56.2017
2174.72	57.131
2174.96	60.847
2175.2	58.9896
2175.44	68.2691
2175.68	64.5372
2175.92	65.4558
2176.16	65.4557
2176.4	62.6728
2176.64	58.0314
2176.88	55.2463
2177.12	64.5313
2177.36	62.6737
2177.6	56.1721
2177.84	64.524
2178.08	58.9507
2178.32	60.8054
2178.56	57.0875
2178.8	60.7929
2179.04	68.2124
2179.28	57.999
2179.52	66.3428
2179.76	57.9873
2180	56.1244
2180.24	57.041
2180.48	61.6625
2180.72	57.0106
2180.96	56.9999
2181.2	62.5505
2181.44	61.6168
2181.68	62.5417
2181.92	54.2064
2182.16	58.845
2182.39	58.8493
2182.64	57.9281
2182.87	61.6439
2183.12	62.5829
2183.35	61.6657
2183.59	60.7519
2183.83	58.9146
2184.07	58.0044
2184.31	58.0222
2184.55	59.896
2184.79	59.907
2185.03	63.6222
2185.27	58.9704
2185.51	64.5309
2185.75	60.8047
2185.99	66.36
2186.23	62.6317
2186.47	57.976
2186.71	64.4463
2186.95	62.5787
2187.19	58.8631
2187.43	60.7177
2187.67	59.7911
2187.91	66.2901
2188.15	61.6554
2188.39	57.0213
2188.63	58.8798
2188.87	56.1034
2189.1	60.7457
2189.34	63.5338
2189.58	65.3941
2189.82	56.1243
2190.06	55.2081
2190.3	65.4246
2190.54	64.5086
2190.78	64.5247
2191.02	64.5593
2191.26	64.5881
2191.5	59.9582
2191.74	60.8966
2191.98	62.7467
2192.22	59.0237
2192.46	64.5932
2192.7	64.5821
2192.93	60.8509
2193.17	52.4736
2193.41	58.0246
2193.65	62.6481
2193.89	60.7783
2194.13	60.7675
2194.37	66.3232
2194.61	58.8942
2194.85	57.0439
2195.09	60.7545
2195.33	62.6197
2195.57	58.9256
2195.81	59.8686
2196.04	63.6025
2196.28	61.7677
2196.52	64.5721
2196.76	54.3717
2197	59.9686
2197.24	61.8622
2197.48	60.9648
2197.72	60.9921
2197.96	64.7423
2198.2	57.3053
2198.44	64.7705
2198.67	57.2762
2198.91	54.4122
2199.15	58.928
2199.39	59.8022
2199.63	61.736
2199.87	59.9749
2200.11	57.2042
2200.35	59.9797
2200.59	62.756
2200.83	61.9839
2201.06	62.0547
2201.3	64.8026
2201.54	65.7448
2201.78	62.0036
2202.02	59.1597
2202.26	63.7623
2202.5	63.7145
2202.74	64.6199
2202.98	59.9649
2203.21	61.8317
2203.45	55.337
2203.69	59.9726
2203.93	62.7513
2204.17	59.0389
2204.41	59.0488
2204.65	62.7811
2204.89	60.9342
2205.12	60.9477
2205.36	64.6838
2205.6	60.9735
2205.84	60.9842
2206.08	64.7172
2206.32	61.9296
2206.56	57.2761
2206.8	59.1379
2207.03	62.8621
2207.27	65.662
2207.51	56.356
2207.75	61.9549
2207.99	63.8291
2208.23	61.9754
2208.47	62.9176
2208.71	64.7938
2208.94	65.7428
2209.18	62.0235
2209.42	62.9668
2209.66	66.698
2209.9	54.567
2210.14	66.6855
2210.38	62.9506
2210.61	61.0705
2210.85	63.8629
2211.09	54.547
2211.33	65.7517
2211.57	64.8554
2211.81	61.1355
2212.04	63.0089
2212.28	62.0807
2212.52	61.151
2212.76	66.7555
2213	56.4867
2213.24	58.3542
2213.47	63.0215
2213.71	62.0863
2213.95	62.083
2214.19	60.2147
2214.43	60.2157
2214.67	63.9539
2214.9	53.6862
2215.14	61.154
2215.38	66.7566
2215.62	63.0266
2215.86	59.2992
2216.09	61.1765
2216.33	63.9915
2216.57	59.3316
2216.81	61.2046
2217.05	64.0193
2217.29	63.0881
2217.52	63.084
2217.76	64.0173
2218	62.1457
2218.24	57.4653
2218.48	55.5798
2218.72	68.6408
2218.95	57.4226
2219.19	57.4125
2219.43	63.9418
2219.67	73.2777
2219.91	55.5483
2220.15	63.0276
2220.38	63.9709
2220.62	57.4451
2220.86	59.3296
2221.1	64.9561
2221.33	62.1718
2221.57	61.2541
2221.81	60.3334
2222.05	71.5742
2222.29	65.0398
2222.52	65.9937
2222.76	65.0767
2223	66.9629
2223.24	61.3575
2223.48	67.9293
2223.71	58.5687
2223.95	58.583
2224.19	61.4059
2224.43	66.1038
2224.67	63.2975
2224.9	64.2379
2225.14	62.3591
2225.38	68.918
2225.62	62.3503
2225.85	57.6589
2226.09	61.4063
2226.33	65.154
2226.57	60.4703
2226.81	63.2977
2227.04	66.1291
2227.28	60.5148
2227.52	61.4641
2227.76	66.1698
2227.99	55.8575
2228.23	57.7483
2228.47	68.0941
2228.71	57.7762
2228.95	68.1235
2229.18	64.3785
2229.42	58.7515
2229.66	61.5839
2229.9	63.4766
2230.13	62.5484
2230.37	62.5602
2230.61	64.4541
2230.85	69.1712
2231.08	63.5331
2231.32	67.3018
2231.56	58.8259
2231.8	65.4085
2232.03	60.6943
2232.27	59.7385
2232.51	68.1832
2232.75	62.5321
2232.98	63.4757
2233.22	65.36
2233.46	66.3046
2233.7	57.8435
2233.94	53.1435
2234.17	56.9137
2234.41	58.8093
2234.65	69.18
2234.88	60.7341
2235.12	67.3532
2235.36	63.6071
2235.6	71.1654
2235.83	67.4146
2236.07	63.6649
2236.31	58.0224
2236.54	65.5687
2236.78	54.2404
2237.02	59.8919
2237.26	58.9264
2237.49	58.9191
2237.73	61.7434
2237.97	58.9621
2238.21	64.6275
2238.44	68.4059
2238.68	63.6932
2238.92	61.8115
2239.16	60.8715
2239.39	63.7104
2239.63	64.6618
2239.87	59.9496
2240.11	69.3874
2240.34	58.0566
2240.58	59.9335
2240.82	55.2082
2241.05	65.5867
2241.29	63.6992
2241.53	63.7047
2241.76	64.6631
2242	61.8539
2242.24	58.1019
2242.48	62.8454
2242.71	47.7342
2242.95	60.9803
2243.19	63.8307
2243.42	64.7893
2243.66	61.9612
2243.9	63.8594
2244.14	60.0866
2244.37	64.8264
2244.61	62.939
2244.85	64.8333
2245.08	61.0456
2245.32	59.1493
2245.56	67.6631
2245.79	69.5519
2246.03	64.8175
2246.27	64.8144
2246.5	62.9242
2246.74	61.9919
2246.98	61.9951
2247.21	66.7234
2247.45	61.9811
2247.69	59.1303
2247.92	61.0096
2248.16	60.0503
2248.4	64.769
2248.64	56.2533
2248.87	58.1442
2249.11	70.4408
2249.35	63.8314
2249.58	61.0058
2249.82	65.7521
2250.06	61.0478
2250.29	62.0272
2250.53	61.0999
2250.77	58.2743
2251	62.0778
2251.24	62.0897
2251.48	66.8415
2251.71	66.8473
2251.95	57.3634
2252.19	63.9975
2252.42	67.7943
2252.66	60.2097
2252.9	63.0576
2253.13	60.2191
2253.37	61.1799
2253.61	62.1402
2253.84	62.1511
2254.08	59.3147
2254.32	63.1219
2254.55	62.183
2254.79	67.8889
2255.03	63.1471
2255.26	65.0498
2255.5	61.2549
2255.73	65.0595
2255.97	66.0177
2256.21	64.128
2256.44	65.0868
2256.68	63.1924
2256.92	61.2983
2257.15	65.1077
2257.39	62.263
2257.63	59.4175
2257.86	60.376
2258.1	56.5868
2258.33	65.1647
2258.57	67.0762
2258.81	64.2253
2259.05	63.279
2259.28	62.3332
2259.52	66.1479
2259.75	60.4487
2259.99	58.5581
2260.23	61.4302
2260.46	61.4484
2260.7	61.4694
2260.93	68.1669
2261.17	62.4714
2261.41	55.8158
2261.64	65.3784
2261.88	66.3508
2262.12	63.5015
2262.35	69.2448
2262.59	57.7897
2262.82	65.4342
2263.06	58.7464
2263.3	63.513
2263.53	62.5438
2263.77	61.5743
2264	69.1956
2264.24	65.3659
2264.48	61.5397
2264.71	61.5305
2264.95	58.6575
2265.18	61.5073
2265.42	66.2685
2265.66	63.4079
2265.89	65.3214
2266.13	60.565
2266.36	60.5802
2266.6	62.5061
2266.84	65.3886
2267.07	60.6363
2267.31	63.5229
2267.54	62.5834
2267.78	65.4601
2268.02	66.4285
2268.25	64.5301
2268.49	63.584
2268.72	54.9865
2268.96	62.6484
2269.2	60.7444
2269.43	68.4012
2269.67	60.7506
2269.9	61.7109
2270.14	61.7149
2270.38	65.5463
2270.61	58.8518
2270.85	59.8124
2271.08	58.859
2271.32	64.6049
2271.55	62.6943
2271.79	63.6554
2272.03	63.6596
2272.26	67.4938
2272.5	59.8395
2272.73	60.7969
2272.97	62.7172
2273.2	65.6038
2273.44	60.8308
2273.68	59.8873
2273.91	63.7339
2274.15	63.7479
2274.38	65.6848
2274.62	64.7499
2274.85	68.6137
2275.09	67.6845
2275.32	57.1384
2275.56	61.947
2275.8	65.7915
2276.03	61.9488
2276.27	61.9462
2276.5	61.9395
2276.74	67.6757
2276.97	60.9353
2277.21	60.9186
2277.45	59.9446
2277.68	61.8501
2277.92	63.7577
2278.15	60.8752
2278.39	61.8268
2278.62	66.6114
2278.86	63.7402
2279.09	58.9526
2279.33	57.0426
2279.56	65.6832
2279.8	62.8212
2280.04	59.9581
2280.27	60.9337
2280.51	64.7957
2280.74	63.8656
2280.98	65.815
2281.21	61.041
2281.45	61.0629
2281.68	64.9189
2281.92	65.8943
2282.15	65.9115
2282.39	66.8818
2282.62	62.0752
2282.86	63.0306
2283.09	62.0438
2283.33	60.1126
2283.56	65.887
2283.8	66.8552
2284.03	71.6948
2284.27	64.0255
2284.5	71.7443
2284.74	69.8237
2284.98	60.2118
2285.21	63.1033
2285.45	64.0584
2285.68	61.1598
2285.92	61.1507
2286.15	62.0978
2286.39	61.1122
2286.62	63.9794
2286.86	63.9499
2287.09	62.9762
2287.33	63.9295
2287.56	62.0066
2287.8	59.1225
2288.03	65.8593
2288.27	67.7979
2288.5	63.0119
2288.74	63.0287
2288.97	57.2661
2289.21	61.127
2289.44	63.0639
2289.68	58.2639
2289.91	55.3884
2290.15	59.2531
2290.38	64.0814
2290.62	63.1258
2290.85	60.2412
2291.09	59.2748
2291.32	60.2324
2291.56	63.1155
2291.79	62.1396
2292.02	65.9838
2292.26	62.1225
2292.49	67.8921
2292.73	59.2167
2292.97	61.1353
2293.2	59.203
2293.43	61.0975
2293.67	51.4696
2293.9	60.1318
2294.14	57.2532
2294.37	61.1132
2294.61	71.7158
2294.84	59.2164
2295.08	62.1289
2295.31	57.3283
2295.55	61.1909
2295.78	66.0209
2296.02	58.3264
2296.25	64.1263
2296.48	56.4227
2296.72	59.3265
2296.95	64.1475
2297.19	63.1861
2297.42	67.0401
2297.66	60.2932
2297.89	68.0244
2298.13	59.3485
2298.36	64.1823
2298.6	62.2577
2298.83	67.0868
2299.07	63.2254
2299.3	67.0818
2299.53	64.1791
2299.77	64.1817
2300	63.217
2300.24	62.2477
2300.47	61.2817
2300.71	62.247
2300.94	61.2865
2301.18	65.1584
2301.41	62.2742
2301.64	65.1786
2301.88	65.1867
2302.11	63.2686
2302.35	64.2447
2302.58	60.3832
2302.82	61.3543
2303.05	67.1593
2303.29	63.3047
2303.52	67.1742
2303.75	65.2438
2303.99	67.1766
2304.22	63.3094
2304.46	64.2722
2304.69	61.3642
2304.93	64.2582
2305.16	64.2543
2305.39	63.2801
2305.63	60.3826
2305.86	62.3152
2306.1	61.3585
2306.33	58.4697
2306.56	60.4154
2306.8	56.5684
2307.03	59.4851
2307.27	60.4601
2307.5	60.4629
2307.74	61.4303
2307.97	59.4908
2308.2	68.185
2308.44	62.3553
2308.67	69.0681
2308.91	67.1126
2309.14	60.3341
2309.37	65.1526
2309.61	69.0015
2309.84	66.0962
2310.08	68.0228
2310.31	64.1692
2310.54	71.9061
2310.78	65.1783
2311.01	65.1987
2311.25	68.1165
2311.48	58.4734
2311.71	64.2942
2311.95	69.1575
2312.18	60.4638
2312.42	62.3914
2312.65	62.3729
2312.88	63.3273
2313.12	62.3452
2313.35	67.1474
2313.59	60.3604
2313.82	57.4544
2314.05	62.2792
2314.29	58.4196
2314.52	61.3204
2314.75	65.1965
2314.99	62.3136
2315.22	63.2681
2315.46	63.2514
2315.69	67.1068
2315.92	58.4078
2316.16	63.2247
2316.39	64.1803
2316.62	60.3128
2316.86	61.2731
2317.09	68.9916
2317.33	62.2392
2317.56	65.1347
2317.79	59.3489
2318.03	65.1489
2318.26	67.0906
2318.49	62.2757
2318.73	66.1522
2318.96	60.3744
2319.19	62.3261
2319.43	64.2771
2319.66	58.4865
2319.9	64.2864
2320.13	66.2208
2320.36	56.5581
2320.6	62.3633
2320.83	57.5331
2321.06	69.1398
2321.3	63.3366
2321.53	59.466
2321.76	66.2223
2322	55.5712
2322.23	64.2472
2322.46	63.264
2322.7	60.3547
2322.93	64.2049
2323.17	65.1573
2323.4	64.1785
2323.63	60.3051
2323.86	68.9742
2324.1	63.1726
2324.33	65.0871
2324.57	67.9685
2324.8	64.1022
2325.03	62.1664
2325.27	64.0948
2325.5	66.0247
2325.73	62.1704
2325.97	73.727
2326.2	67.9304
2326.43	67.9139
2326.67	65.9779
2326.9	65.012
2327.13	63.0914
2327.36	69.8338
2327.6	67.9012
2327.83	64.0432
2328.06	65.9662
2328.3	67.8957
2328.53	71.7579
2328.76	71.7701
2329	81.4225
2329.23	76.5938
2329.46	89.0968
2329.7	91.01
2329.93	102.553
2330.16	128.535
2330.4	152.587
2330.63	179.522
2330.86	163.143
2331.1	130.402
2331.33	109.212
2331.56	93.7941
2331.79	85.1209
2332.03	85.1119
2332.26	67.7979
2332.49	71.6414
2332.73	76.451
2332.96	63.9543
2333.19	56.2603
2333.43	74.5261
2333.66	62.0204
2333.89	63.9408
2334.13	65.8615
2334.36	63.9357
2334.59	62.9717
2334.82	65.8512
2335.06	66.8078
2335.29	67.7659
2335.52	65.8406
2335.75	61.0329
2335.99	64.8793
2336.22	63.9203
2336.45	67.7655
2336.69	60.0744
2336.92	68.7205
2337.15	60.0635
2337.38	64.8583
2337.62	66.7687
2337.85	67.7151
2338.08	62.8957
2338.32	59.9961
2338.55	59.0143
2338.78	67.6298
2339.01	65.6984
2339.25	69.5233
2339.48	62.8011
2339.71	61.835
2339.94	57.0379
2340.18	60.871
2340.41	60.8716
2340.64	59.9112
2340.87	66.6185
2341.11	59.9092
2341.34	70.4578
2341.57	64.7092
2341.81	62.791
2342.04	61.8289
2342.27	64.6984
2342.5	62.7719
2342.74	57.966
2342.97	55.0808
2343.2	62.7327
2343.43	63.6847
2343.67	65.5967
2343.9	64.636
2344.13	71.3334
2344.36	59.8387
2344.6	65.5816
2344.83	62.7107
2345.06	65.587
2345.29	66.5522
2345.53	63.6854
2345.76	65.6016
2345.99	64.6389
2346.22	61.7565
2346.46	60.7755
2346.69	67.446
2346.92	66.4568
2347.15	67.3735
2347.38	61.5957
2347.62	58.6586
2347.85	65.2028
2348.08	61.4585
2348.31	62.616
2348.55	63.6629
2348.78	61.6456
2349.01	65.3828
2349.24	72.0602
2349.48	58.7066
2349.71	60.5847
2349.94	66.2508
2350.17	61.4387
2350.4	63.3522
2350.64	63.3509
2350.87	64.2918
2351.1	64.291
2351.33	65.2419
2351.57	69.066
2351.8	62.4156
2352.03	61.4612
2352.26	64.3162
2352.49	66.2162
2352.73	65.2576
2352.96	61.4402
2353.19	62.3827
2353.42	58.5559
2353.65	63.2862
2353.89	62.3093
2354.12	65.1497
2354.35	58.4821
2354.58	60.3741
2354.81	60.3652
2355.05	60.357
2355.28	64.1513
2355.51	62.2475
2355.74	61.2831
2355.97	61.2769
2356.21	64.1223
2356.44	62.2194
2356.67	62.2124
2356.9	62.2021
2357.13	60.29
2357.36	64.0731
2357.6	62.1602
2357.83	64.0436
2358.06	66.8744
2358.29	63.0648
2358.53	63.0491
2358.76	68.7207
2358.99	64.9124
2359.22	68.6837
2359.45	63.9298
2359.68	53.4994
2359.92	61.0622
