#Acq. time (s)=	30
#Accumulations=	2
#Range (cm-¹)=	1200...2365
#Windows=	3
#Auto scanning=	Off
#Autofocus=	Off
#Macrospot=	Off
#AutoExposure=	Off
#Spike filter=	Multiple accum.
#Delay time (s)=	2
#Binning=	1
#Readout mode=	Signal
#DeNoise=	Off
#ICS correction=	On
#Dark correction=	Off
#Inst. Process=	Off
#Detector Gain=	Best Dynamic
#Detector ADC=	50 kHz HS
#Detector temperature (°C)=	-60.09
#Instrument=	LabRAM HR Evol
#Detector=	SIN-EM FIVIS
#Objective=	x100_VIS_LWD
#Grating=	1800 (450-850nm)
#ND Filter=	100%
#Laser=	532nm_Edge
#Hole=	100.021
#Temperature=	0
#Range=	Visible
#StageXY=	75x50mm Scan+
#StageZ=	Z motor
#X (µm)=	0
#Y (µm)=	0
#Z (µm)=	-56.4
#Full time(mm:ss)=	3:17
#Project=	21_11_26
#Sample=	BU19(2)w
#Site=	
#Title=	BU19(2)w-A-FF2b-FI01-V_1800 (450-850nm)_532nm_Edge_100%_x100_VIS_LWD_H100um_30sX2
#Remark=	
#Date=	26.11.2021 16:06
#Acquired=	26.11.2021 16:06:58
1202.72	91.9483
1203	88.8484
1203.28	85.6441
1203.56	85.5911
1203.84	86.5996
1204.11	80.1039
1204.39	88.6702
1204.67	86.5225
1204.95	86.5307
1205.23	88.6619
1205.5	87.5516
1205.78	83.2175
1206.06	93.9123
1206.34	91.7192
1206.61	86.3116
1206.89	73.4047
1207.17	88.3694
1207.45	90.4755
1207.73	79.742
1208	88.2856
1208.28	88.2693
1208.56	80.7579
1208.84	79.6619
1209.11	83.9165
1209.39	78.5463
1209.67	80.6732
1209.95	84.9446
1210.23	74.2445
1210.5	82.7781
1210.78	75.263
1211.06	80.5707
1211.34	77.34
1211.61	76.2415
1211.89	78.3506
1212.17	71.9185
1212.45	87.8796
1212.72	72.9331
1213	80.3681
1213.28	75.0164
1213.56	80.324
1213.83	81.3767
1214.11	82.422
1214.39	74.9716
1214.67	71.7785
1214.94	74.9714
1215.22	80.2921
1215.5	76.0286
1215.78	86.6684
1216.05	85.5948
1216.33	80.2499
1216.61	81.2832
1216.89	84.4362
1217.16	82.2747
1217.44	83.3101
1217.72	73.7233
1218	82.1961
1218.27	80.0515
1218.55	85.3392
1218.83	77.8902
1219.1	78.9403
1219.38	73.6273
1219.66	78.9234
1219.94	69.3637
1220.21	76.7742
1220.49	79.9517
1220.77	72.5254
1221.04	83.1253
1221.32	84.1755
1221.6	73.5555
1221.88	76.7206
1222.15	77.7561
1222.43	76.6644
1222.71	87.2163
1222.98	73.4118
1223.26	77.6064
1223.54	74.3969
1223.81	85.9904
1224.09	74.3359
1224.37	74.3077
1224.65	76.3993
1224.92	79.5499
1225.2	75.3148
1225.48	72.1439
1225.76	83.7635
1226.03	77.4355
1226.31	75.3317
1226.59	79.549
1226.86	74.2622
1227.14	74.2461
1227.42	70.0097
1227.69	67.8617
1227.97	78.3331
1228.25	74.0708
1228.52	80.3423
1228.8	72.9024
1229.08	78.0988
1229.35	74.9383
1229.63	69.8553
1229.91	81.6136
1230.18	82.5892
1230.46	76.1874
1230.74	78.2647
1231.01	71.9513
1231.29	87.6976
1231.57	82.2698
1231.84	80.1812
1232.12	79.1268
1232.4	78.0713
1232.67	80.1613
1232.95	75.9548
1233.23	78.0496
1233.5	84.3429
1233.78	78.036
1234.06	84.3413
1234.33	78.0434
1234.61	80.1506
1234.89	74.9061
1235.16	75.9676
1235.44	74.9206
1235.71	83.3352
1235.99	69.6761
1236.27	82.297
1236.54	83.345
1236.82	79.1275
1237.1	81.2152
1237.37	83.2972
1237.65	76.9639
1237.93	79.0345
1238.2	86.3527
1238.48	76.8748
1238.76	85.2373
1239.03	74.7243
1239.31	70.5151
1239.58	76.7939
1239.86	87.2668
1240.14	79.9215
1240.41	75.7241
1240.69	79.9145
1240.97	80.963
1241.24	76.7721
1241.52	77.8213
1241.79	78.8605
1242.07	87.2283
1242.35	81.9768
1242.62	75.6888
1242.9	87.2194
1243.18	78.8446
1243.45	88.2877
1243.73	83.0432
1244	84.0902
1244.28	77.8037
1244.56	86.1874
1244.83	78.842
1245.11	75.6877
1245.39	91.3883
1245.66	86.1249
1245.94	87.1403
1246.21	83.9683
1246.49	75.58
1246.76	80.8056
1247.04	86.0377
1247.32	90.2208
1247.59	89.1646
1247.87	92.3006
1248.14	89.1491
1248.42	96.4366
1248.7	92.2323
1248.97	89.0882
1249.25	95.3672
1249.52	81.7745
1249.8	86.9966
1250.08	92.2211
1250.35	88.0366
1250.63	84.8791
1250.9	87.9913
1251.18	86.9244
1251.45	90.0401
1251.73	88.9775
1252.01	88.9601
1252.28	88.9418
1252.56	93.1003
1252.83	84.7287
1253.11	84.7087
1253.39	78.4289
1253.66	86.7672
1253.94	79.461
1254.21	87.8212
1254.49	88.8798
1254.76	94.1176
1255.04	87.8585
1255.31	90.9891
1255.59	98.3042
1255.87	95.1694
1256.14	94.1185
1256.42	97.2536
1256.69	90.9933
1256.97	100.405
1257.24	102.497
1257.52	102.49
1257.79	108.739
1258.07	125.436
1258.35	118.115
1258.62	119.147
1258.9	106.604
1259.17	98.227
1259.45	108.66
1259.72	103.451
1260	110.772
1260.27	117.082
1260.55	113.918
1260.82	124.327
1261.1	120.106
1261.37	133.637
1261.65	137.786
1261.92	147.192
1262.2	162.984
1262.48	168.423
1262.75	175.851
1263.02	195.405
1263.3	219.162
1263.58	231.572
1263.85	235.972
1264.13	226.75
1264.4	208.142
1264.68	186.278
1264.95	173.614
1265.23	157.892
1265.5	133.851
1265.78	138.018
1266.05	116.048
1266.33	115.001
1266.6	110.828
1266.88	116.066
1267.15	112.95
1267.43	102.519
1267.7	116.14
1267.98	108.849
1268.25	113.069
1268.53	114.164
1268.8	106.873
1269.08	106.892
1269.35	94.3356
1269.63	102.728
1269.9	100.624
1270.18	105.838
1270.45	98.473
1270.73	114.154
1271	114.125
1271.28	95.2656
1271.55	118.279
1271.83	102.567
1272.1	99.4334
1272.38	102.595
1272.65	99.4809
1272.93	99.5173
1273.2	105.827
1273.47	104.805
1273.75	106.928
1274.03	112.196
1274.3	106.981
1274.57	105.948
1274.85	112.244
1275.12	109.091
1275.4	113.285
1275.67	113.296
1275.95	111.214
1276.22	108.084
1276.5	119.654
1276.77	108.126
1277.05	107.095
1277.32	107.108
1277.6	124.99
1277.87	120.816
1278.14	125.047
1278.42	130.326
1278.69	129.297
1278.97	137.746
1279.24	143.025
1279.52	148.307
1279.79	168.284
1280.07	172.476
1280.34	189.281
1280.61	202.944
1280.89	233.46
1281.16	294.49
1281.44	352.43
1281.71	428.317
1281.99	574.689
1282.26	782.037
1282.53	1061.08
1282.81	1374.94
1283.08	1801.03
1283.36	2254.67
1283.63	2564.91
1283.91	2630.17
1284.18	2359
1284.45	1764.13
1284.73	1287.36
1285	866.101
1285.28	593.173
1285.55	412.786
1285.83	322.098
1286.1	254.72
1286.37	222.128
1286.65	197.903
1286.92	168.383
1287.2	166.274
1287.47	157.839
1287.75	146.235
1288.02	132.525
1288.29	125.142
1288.57	132.506
1288.84	118.827
1289.12	118.833
1289.39	118.849
1289.66	116.763
1289.94	120.995
1290.21	118.912
1290.49	115.771
1290.76	115.769
1291.03	109.434
1291.31	107.32
1291.58	99.944
1291.86	111.526
1292.13	105.201
1292.4	105.201
1292.68	104.152
1292.95	102.038
1293.22	97.8158
1293.5	107.298
1293.77	96.7957
1294.05	96.834
1294.32	110.581
1294.59	98.9922
1294.87	102.154
1295.14	102.145
1295.42	90.5609
1295.69	91.6526
1295.96	95.9238
1296.24	105.499
1296.51	92.8586
1296.79	101.323
1297.06	102.38
1297.33	93.9124
1297.61	98.1211
1297.88	91.7603
1298.15	93.85
1298.43	84.3194
1298.7	91.7205
1298.97	88.5433
1299.25	90.6385
1299.52	87.4571
1299.79	85.33
1300.07	86.3829
1300.34	95.898
1300.62	83.2359
1300.89	88.5159
1301.16	84.2866
1301.44	93.7839
1301.71	92.7309
1301.98	92.7449
1302.25	85.3643
1302.53	94.8766
1302.8	87.4833
1303.08	83.255
1303.35	90.6416
1303.62	75.8439
1303.9	84.276
1304.17	90.6067
1304.44	87.4391
1304.72	78.9899
1304.99	84.2668
1305.26	76.864
1305.54	86.3492
1305.81	89.4939
1306.08	84.1962
1306.35	81.009
1306.63	79.9364
1306.9	85.2006
1307.18	82.0347
1307.45	84.1496
1307.72	84.1503
1308	87.3115
1308.27	84.1449
1308.54	78.8738
1308.81	80.9767
1309.09	82.0341
1309.36	79.9354
1309.63	91.5511
1309.91	77.8444
1310.18	81.016
1310.45	83.1228
1310.73	70.4525
1311	88.3903
1311.27	81.0051
1311.55	74.6754
1311.82	86.2868
1312.09	75.7369
1312.37	84.1939
1312.64	72.5901
1312.91	82.0967
1313.18	74.7001
1313.46	73.6307
1313.73	87.3503
1314	77.8401
1314.28	85.2213
1314.55	80.9973
1314.82	81.0003
1315.09	69.394
1315.37	77.8475
1315.64	76.7991
1315.91	79.9758
1316.18	85.2657
1316.46	78.9231
1316.73	79.9724
1317	79.9672
1317.28	78.9071
1317.55	69.4006
1317.82	76.8024
1318.09	76.8081
1318.37	81.0368
1318.64	81.0383
1318.91	85.2643
1319.18	78.924
1319.46	74.6941
1319.73	76.8021
1320	84.192
1320.28	77.8573
1320.55	69.4049
1320.82	70.4556
1321.09	75.7248
1321.37	78.8739
1321.64	73.571
1321.91	71.435
1322.18	83.0274
1322.46	75.6176
1322.73	76.6602
1323	84.0301
1323.27	82.9612
1323.55	70.292
1323.82	73.4616
1324.09	82.953
1324.36	78.7347
1324.64	76.6216
1324.91	79.7844
1325.18	77.6714
1325.45	78.729
1325.73	77.6527
1326	75.5081
1326.27	77.5689
1326.54	76.4591
1326.81	68.0179
1327.09	75.375
1327.36	65.9271
1327.63	75.4467
1327.9	79.6856
1328.18	77.6044
1328.45	80.7955
1328.72	73.443
1328.99	80.8494
1329.27	80.8553
1329.54	78.7335
1329.81	81.9053
1330.08	76.6248
1330.35	74.5068
1330.63	77.6596
1330.9	76.5888
1331.17	75.5143
1331.44	67.0573
1331.71	78.6193
1331.99	77.5296
1332.26	75.3951
1332.53	73.267
1332.8	75.3473
1333.07	75.3192
1333.35	83.7022
1333.62	74.2125
1333.89	71.0354
1334.16	86.7711
1334.43	77.2928
1334.71	72.0205
1334.98	81.4484
1335.25	70.9343
1335.52	76.1651
1335.79	76.1488
1336.07	85.5738
1336.34	76.1187
1336.61	74.0082
1336.88	64.5602
1337.15	72.9374
1337.43	73.9768
1337.7	68.7279
1337.97	76.0546
1338.24	71.8427
1338.51	71.824
1338.78	77.0486
1339.06	77.0338
1339.33	72.835
1339.6	74.9251
1339.87	69.6905
1340.14	77.0228
1340.42	65.5033
1340.69	70.7402
1340.96	67.5988
1341.23	80.1627
1341.5	78.0628
1341.77	83.2911
1342.04	71.7625
1342.32	82.2177
1342.59	82.1979
1342.86	72.7568
1343.13	77.9662
1343.4	64.356
1343.67	73.7621
1343.95	77.941
1344.22	71.6635
1344.49	73.7546
1344.76	73.7528
1345.03	85.2475
1345.3	73.73
1345.58	73.7114
1345.85	85.1814
1346.12	77.8445
1346.39	77.8159
1346.66	77.775
1346.93	76.7044
1347.2	82.9389
1347.47	75.6104
1347.75	71.4167
1348.02	78.6989
1348.29	81.8138
1348.56	76.5935
1348.83	81.7968
1349.1	69.2779
1349.37	61.9702
1349.65	79.6635
1349.92	77.564
1350.19	74.4243
1350.46	78.5733
1350.73	80.6386
1351	78.5356
1351.27	71.2312
1351.54	81.6194
1351.81	75.3569
1352.09	80.5484
1352.36	74.3061
1352.63	76.3929
1352.9	77.4478
1353.17	81.6318
1353.44	76.4397
1353.71	81.7109
1353.98	74.4882
1354.25	79.6233
1354.53	74.3012
1354.8	82.5338
1355.07	75.2679
1355.34	73.194
1355.61	79.3989
1355.88	73.1509
1356.15	72.1351
1356.42	81.4901
1356.69	81.4706
1356.96	87.6927
1357.24	81.4516
1357.51	84.5571
1357.78	81.429
1358.05	88.6818
1358.32	76.2081
1358.59	84.495
1358.86	83.4411
1359.13	80.3096
1359.4	87.553
1359.67	82.3528
1359.94	80.2663
1360.22	80.2435
1360.49	86.4361
1360.76	90.5544
1361.03	82.2479
1361.3	76.0243
1361.57	86.3796
1361.84	82.2311
1362.11	86.3675
1362.38	82.2127
1362.65	90.4861
1362.92	86.3336
1363.19	83.2226
1363.46	90.4741
1363.73	93.5948
1364	86.3544
1364.28	91.5429
1364.55	95.6834
1364.82	106.033
1365.09	102.913
1365.36	102.893
1365.63	93.55
1365.9	96.6309
1366.17	95.5722
1366.44	93.4795
1366.71	91.3868
1366.98	92.3923
1367.25	92.3583
1367.52	90.2748
1367.79	101.632
1368.06	98.5427
1368.33	96.4812
1368.6	122.328
1368.87	148.178
1369.15	193.674
1369.41	208.164
1369.68	169.918
1369.95	131.643
1370.23	116.119
1370.5	102.667
1370.77	100.571
1371.04	95.39
1371.31	99.5027
1371.58	95.3418
1371.85	103.567
1372.12	96.3001
1372.39	102.451
1372.66	98.288
1372.93	101.353
1373.2	100.303
1373.47	94.1034
1373.74	104.395
1374.01	96.139
1374.28	102.311
1374.55	110.545
1374.82	106.414
1375.09	103.314
1375.36	112.569
1375.63	108.451
1375.9	114.645
1376.17	102.278
1376.44	114.645
1376.71	118.733
1376.98	103.256
1377.25	118.661
1377.52	117.581
1377.79	108.332
1378.06	121.739
1378.33	115.608
1378.6	135.239
1378.87	132.219
1379.14	128.116
1379.41	128.109
1379.68	137.368
1379.95	120.855
1380.22	143.499
1380.49	142.405
1380.76	136.113
1381.03	152.508
1381.3	152.449
1381.57	162.758
1381.84	162.714
1382.11	158.525
1382.38	168.717
1382.65	173.779
1382.92	180.9
1383.19	190.063
1383.46	205.396
1383.73	227.896
1384	239.133
1384.27	256.525
1384.54	300.618
1384.81	327.302
1385.08	409.402
1385.34	503.887
1385.61	634.411
1385.88	900.437
1386.15	1279.49
1386.42	1924.52
1386.69	3033.11
1386.96	4430.33
1387.23	5550.88
1387.5	5417.16
1387.77	4080.21
1388.04	2576.19
1388.31	1497.47
1388.58	920.074
1388.85	619.176
1389.12	445.498
1389.39	360.559
1389.66	283.577
1389.93	262.044
1390.2	219.865
1390.46	209.434
1390.73	184.747
1391	170.383
1391.27	165.187
1391.54	156.972
1391.81	146.708
1392.08	139.501
1392.35	142.536
1392.62	135.334
1392.89	128.142
1393.16	130.17
1393.43	118.894
1393.7	115.809
1393.97	112.726
1394.23	110.669
1394.5	111.682
1394.77	116.79
1395.04	113.714
1395.31	110.654
1395.58	107.601
1395.85	96.3525
1396.12	110.686
1396.39	103.516
1396.66	106.576
1396.93	101.444
1397.2	102.453
1397.46	104.478
1397.73	105.48
1398	99.3308
1398.27	109.556
1398.54	106.493
1398.81	99.3431
1399.08	95.2561
1399.35	101.398
1399.62	110.624
1399.89	93.236
1400.16	96.3138
1400.42	97.3347
1400.69	99.3941
1400.96	106.585
1401.23	95.3316
1401.5	99.4223
1401.77	98.4086
1402.04	99.4302
1402.31	92.2911
1402.58	97.4675
1402.84	94.449
1403.11	102.699
1403.38	98.6241
1403.65	94.5312
1403.92	101.717
1404.19	105.8
1404.46	109.842
1404.73	99.5963
1404.99	104.715
1405.26	110.856
1405.53	125.194
1405.8	125.169
1406.07	128.221
1406.34	128.199
1406.61	135.358
1406.87	158.92
1407.14	183.525
1407.41	184.562
1407.68	217.381
1407.95	258.402
1408.22	296.351
1408.49	314.824
1408.76	351.756
1409.02	359.985
1409.29	312.84
1409.56	258.505
1409.83	216.468
1410.1	176.473
1410.37	159.033
1410.63	139.513
1410.9	117.941
1411.17	112.777
1411.44	102.501
1411.71	97.3587
1411.98	93.2462
1412.25	90.1679
1412.51	93.253
1412.78	90.2037
1413.05	78.9781
1413.32	78.0453
1413.59	85.2838
1413.86	84.1894
1414.12	72.7974
1414.39	81.0163
1414.66	76.9648
1414.93	78.0262
1415.2	73.9129
1415.47	78.0206
1415.73	76.9927
1416	71.8598
1416.27	71.8643
1416.54	78.0307
1416.81	78.0369
1417.07	80.0978
1417.34	73.9424
1417.61	63.6761
1417.88	70.8738
1418.15	68.8212
1418.42	73.9588
1418.68	80.1261
1418.95	71.907
1419.22	68.8233
1419.49	67.7953
1419.76	72.9244
1420.02	72.909
1420.29	68.7837
1420.56	65.6879
1420.83	73.8874
1421.1	76.9495
1421.36	72.8278
1421.63	64.6087
1421.9	74.8751
1422.17	68.7336
1422.44	65.6743
1422.7	69.8048
1422.97	63.6737
1423.24	76.0737
1423.51	69.9618
1423.77	76.9837
1424.04	64.5164
1424.31	72.7365
1424.58	75.7373
1424.85	74.7118
1425.11	72.6824
1425.38	68.6298
1425.65	73.7655
1425.92	64.5236
1426.19	74.8036
1426.45	62.4867
1426.72	72.7302
1426.99	59.3795
1427.26	63.4617
1427.52	65.4908
1427.79	68.5353
1428.06	68.5108
1428.33	66.4501
1428.59	55.1816
1428.86	69.5152
1429.13	63.3741
1429.4	56.2095
1429.67	67.4804
1429.93	65.4408
1430.2	60.3307
1430.47	62.3952
1430.74	61.382
1431	61.3995
1431.27	69.6321
1431.54	65.5501
1431.81	56.3227
1432.07	57.3476
1432.34	60.4138
1432.61	60.3977
1432.87	61.4125
1433.14	68.5704
1433.41	57.2663
1433.68	60.314
1433.95	54.1422
1434.21	62.3195
1434.48	63.3355
1434.75	53.1193
1435.01	61.3265
1435.28	60.3027
1435.55	65.4252
1435.82	60.2985
1436.08	59.2693
1436.35	59.2639
1436.62	61.3072
1436.89	57.2019
1437.15	55.1459
1437.42	59.2365
1437.69	59.2332
1437.95	58.2007
1438.22	56.1478
1438.49	62.2941
1438.76	59.2292
1439.02	55.1355
1439.29	60.258
1439.56	57.186
1439.82	57.1935
1440.09	50.0306
1440.36	58.2452
1440.63	56.2003
1440.89	54.1513
1441.16	53.1251
1441.43	57.2286
1441.69	59.2734
1441.96	54.1353
1442.23	57.2044
1442.49	55.164
1442.76	60.291
1443.03	55.1734
1443.3	53.1135
1443.56	68.483
1443.83	54.1183
1444.1	55.1362
1444.36	56.1576
1444.63	61.2853
1444.9	58.2253
1445.16	53.1096
1445.43	57.2296
1445.7	61.3269
1445.97	56.19
1446.23	57.2092
1446.5	56.1769
1446.77	56.1709
1447.03	61.2927
1447.3	57.1841
1447.57	55.1257
1447.83	56.1422
1448.1	54.0844
1448.37	53.0572
1448.63	65.3694
1448.9	57.178
1449.17	58.2055
1449.43	52.0491
1449.7	57.1708
1449.97	57.1615
1450.23	49.9732
1450.5	61.2396
1450.77	56.1073
1451.03	60.201
1451.3	65.3189
1451.57	50.9642
1451.83	54.0314
1452.1	51.975
1452.37	55.0429
1452.63	47.8672
1452.9	56.0624
1453.17	52.9897
1453.43	51.9695
1453.7	49.9233
1453.97	54.0213
1454.23	52.991
1454.5	49.9121
1454.77	48.8857
1455.03	54.0077
1455.3	55.029
1455.56	57.0729
1455.83	49.8998
1456.1	45.8076
1456.36	50.935
1456.63	40.6837
1456.9	49.9022
1457.16	48.8671
1457.43	51.9309
1457.7	51.9251
1457.96	50.8955
1458.23	51.916
1458.49	46.7927
1458.76	51.9142
1459.03	46.7931
1459.29	46.7937
1459.56	44.7444
1459.82	53.965
1460.09	45.7647
1460.36	57.0294
1460.62	51.9013
1460.89	50.8708
1461.16	49.8391
1461.42	47.7825
1461.69	47.7743
1461.95	51.8609
1462.22	51.8502
1462.49	52.8622
1462.75	46.7097
1463.02	45.6743
1463.28	47.7074
1463.55	43.6034
1463.82	42.5696
1464.08	48.7006
1464.35	47.6917
1464.61	48.7358
1464.88	49.7756
1465.15	45.7017
1465.41	55.8962
1465.68	48.6405
1465.94	48.5978
1466.21	45.5296
1466.48	46.5631
1466.74	53.7017
1467.01	46.5338
1467.27	49.586
1467.54	45.5082
1467.8	46.5236
1468.07	48.5585
1468.34	52.6348
1468.6	44.4716
1468.87	50.5889
1469.13	46.5042
1469.4	48.5373
1469.67	54.648
1469.93	49.5376
1470.2	45.4464
1470.46	52.5697
1470.73	48.4844
1470.99	44.4011
1471.26	49.4901
1471.53	48.4625
1471.79	49.4694
1472.06	44.3687
1472.32	50.4734
1472.59	48.433
1472.85	49.4481
1473.12	52.4993
1473.39	52.4934
1473.65	46.3758
1473.92	45.3489
1474.18	45.3414
1474.45	53.4774
1474.71	46.3519
1474.98	49.4076
1475.24	47.3735
1475.51	41.2653
1475.78	51.4401
1476.04	49.398
1476.31	47.3542
1476.57	50.4
1476.84	51.411
1477.1	45.2973
1477.37	48.339
1477.63	51.3839
1477.9	52.3972
1478.16	46.2923
1478.43	48.3186
1478.69	51.3569
1478.96	47.2813
1479.22	42.1906
1479.49	49.2944
1479.76	47.251
1480.02	46.2228
1480.29	49.2576
1480.55	45.1767
1480.82	45.1613
1481.08	45.1502
1481.35	44.1295
1481.61	42.0909
1481.88	48.1803
1482.14	53.26
1482.41	46.1638
1482.67	48.202
1482.94	45.1621
1483.2	48.2059
1483.47	46.1793
1483.73	45.1652
1484	46.1789
1484.26	45.1599
1484.53	44.1242
1484.79	42.0678
1485.06	41.0059
1485.32	46.0067
1485.59	51.0396
1485.85	47.9647
1486.12	47.0644
1486.38	45.0495
1486.65	44.0515
1486.91	42.9886
1487.18	48.0757
1487.44	50.1081
1487.71	47.0517
1487.97	46.0257
1488.24	45.0044
1488.5	37.9069
1488.77	51.057
1489.03	46.9939
1489.3	41.9233
1489.56	40.9047
1489.83	50.0048
1490.09	46.9643
1490.36	47.9738
1490.62	40.8896
1490.89	47.9632
1491.15	47.9514
1491.42	47.9398
1491.68	42.878
1491.95	46.9181
1492.21	49.949
1492.48	46.9162
1492.74	48.9347
1493	48.9302
1493.27	45.8938
1493.53	43.8699
1493.8	35.7779
1494.06	47.9045
1494.33	43.8598
1494.59	44.8719
1494.86	38.8079
1495.12	48.914
1495.39	47.8932
1495.65	44.8452
1495.92	44.8265
1496.18	47.8408
1496.45	50.8589
1496.71	44.7925
1496.97	45.7943
1497.24	44.7766
1497.5	44.7743
1497.77	41.7441
1498.03	44.7674
1498.3	44.7644
1498.56	43.7536
1498.82	45.7712
1499.09	47.7894
1499.35	46.7803
1499.62	49.8097
1499.88	49.8124
1500.15	42.748
1500.41	44.7669
1500.68	51.8317
1500.94	45.7707
1501.2	51.8244
1501.47	46.7697
1501.73	49.786
1502	43.726
1502.26	48.7683
1502.52	46.7463
1502.79	43.7127
1503.05	46.7275
1503.32	43.6902
1503.58	44.6915
1503.85	44.6812
1504.11	43.6708
1504.37	40.648
1504.64	41.6565
1504.9	41.6549
1505.17	49.7182
1505.43	39.6279
1505.7	41.636
1505.96	45.6534
1506.22	47.6496
1506.49	41.5996
1506.75	44.6186
1507.02	48.6486
1507.28	38.5778
1507.54	46.6387
1507.81	46.639
1508.07	43.6135
1508.34	39.578
1508.6	44.6117
1508.86	47.6335
1509.13	43.6028
1509.39	43.6016
1509.66	43.599
1509.92	47.6275
1510.18	39.569
1510.45	49.6479
1510.71	42.5828
1510.98	41.5649
1511.24	47.5961
1511.5	44.5596
1511.77	41.5195
1512.03	46.5248
1512.29	45.4922
1512.56	45.4669
1512.82	46.4497
1513.08	40.4093
1513.35	45.4182
1513.61	44.4032
1513.88	44.3975
1514.14	39.3862
1514.4	44.4224
1514.67	44.425
1514.93	46.4267
1515.2	42.397
1515.46	47.4029
1515.72	45.3811
1515.99	39.3445
1516.25	43.3427
1516.51	36.311
1516.78	47.336
1517.04	43.3193
1517.3	49.3303
1517.57	46.3191
1517.83	43.3101
1518.09	41.306
1518.36	48.3323
1518.62	39.3065
1518.88	45.3257
1519.15	37.3019
1519.41	46.332
1519.67	47.3371
1519.94	50.3475
1520.2	48.3379
1520.47	47.3282
1520.73	48.326
1520.99	40.3015
1521.26	46.3235
1521.52	41.309
1521.78	44.3189
1522.05	42.3084
1522.31	49.3255
1522.57	44.302
1522.84	43.2915
1523.1	48.2997
1523.36	47.2866
1523.62	40.2525
1523.89	45.2444
1524.15	39.2189
1524.41	43.2148
1524.68	43.205
1524.94	46.1999
1525.2	42.1978
1525.47	44.2009
1525.73	47.2052
1525.99	46.2088
1526.26	45.2141
1526.52	43.2205
1526.78	42.2256
1527.05	46.2368
1527.31	42.2242
1527.57	48.2295
1527.84	51.2308
1528.1	50.2224
1528.36	43.2021
1528.63	48.2042
1528.89	48.197
1529.15	45.1854
1529.41	42.1762
1529.68	46.18
1529.94	46.1749
1530.2	44.1624
1530.47	48.164
1530.73	44.1608
1530.99	43.1667
1531.25	52.1908
1531.52	43.179
1531.78	41.174
1532.04	43.1732
1532.31	46.1785
1532.57	47.1721
1532.83	45.172
1533.09	40.1713
1533.36	44.195
1533.62	46.2134
1533.88	42.206
1534.15	45.2171
1534.41	45.2148
1534.67	46.2133
1534.94	41.1925
1535.2	48.2065
1535.46	42.1831
1535.72	44.1781
1535.99	34.1316
1536.25	37.1242
1536.51	42.1216
1536.77	44.1071
1537.04	44.088
1537.3	44.0709
1537.56	47.064
1537.82	48.051
1538.09	41.0479
1538.35	44.0373
1538.61	48.0199
1538.87	45.014
1539.14	45.0075
1539.4	49.0177
1539.66	42.0422
1539.92	49.0803
1540.19	43.0945
1540.45	47.1198
1540.71	52.1517
1540.97	48.1536
1541.24	42.1402
1541.5	45.1273
1541.76	44.1207
1542.02	43.1041
1542.29	48.1003
1542.55	44.0793
1542.81	46.0686
1543.07	44.0532
1543.34	43.04
1543.6	42.0262
1543.86	41.0096
1544.12	47.9933
1544.39	41.9931
1544.65	43.9942
1544.91	49.0036
1545.17	49.0171
1545.43	44.0221
1545.7	47.0424
1545.96	45.0481
1546.22	47.0555
1546.48	47.0591
1546.74	45.0509
1547.01	48.0564
1547.27	46.0565
1547.53	45.0585
1547.79	45.0616
1548.06	47.053
1548.32	44.0216
1548.58	53.0315
1548.84	45.0215
1549.1	41.0267
1549.37	49.9918
1549.63	41.9382
1549.89	45.9246
1550.15	43.9494
1550.42	43.9955
1550.68	44.0634
1550.94	43.1085
1551.2	45.16
1551.46	45.1262
1551.73	45.1289
1551.99	45.1175
1552.25	41.0864
1552.51	46.124
1552.77	49.1552
1553.03	37.0948
1553.3	42.1017
1553.56	50.0941
1553.82	42.0586
1554.08	41.0499
1554.34	48.0593
1554.61	49.0456
1554.87	45.0175
1555.13	48.0046
1555.39	45.9927
1555.65	49.9945
1555.91	44.9836
1556.18	44.9847
1556.44	41.9779
1556.7	39.9659
1556.96	44.9728
1557.22	46.9773
1557.48	37.9623
1557.75	44.9736
1558.01	49.9778
1558.27	43.9569
1558.53	39.9354
1558.79	39.9229
1559.06	42.9087
1559.32	44.8937
1559.58	48.8795
1559.84	45.8668
1560.1	38.8584
1560.36	45.8476
1560.63	44.8412
1560.89	42.8367
1561.15	41.8327
1561.41	43.8289
1561.67	45.829
1561.93	44.8363
1562.19	44.8473
1562.46	41.8589
1562.72	42.8575
1562.98	39.8531
1563.24	39.8477
1563.5	43.8481
1563.76	48.8415
1564.02	45.8368
1564.29	48.8525
1564.55	44.8678
1564.81	43.8709
1565.07	51.8715
1565.33	43.8379
1565.59	46.7502
1565.85	44.6376
1566.11	43.5817
1566.38	44.7675
1566.64	43.8221
1566.9	44.7961
1567.16	43.7642
1567.42	47.7985
1567.68	40.8371
1567.94	43.8261
1568.2	42.7922
1568.47	42.7957
1568.73	42.8001
1568.99	32.8017
1569.25	46.7945
1569.51	45.775
1569.77	39.7669
1570.03	43.7625
1570.29	50.7599
1570.55	43.7633
1570.82	43.762
1571.08	44.7585
1571.34	47.7525
1571.6	40.7512
1571.86	43.7397
1572.12	46.7264
1572.38	45.724
1572.64	46.7147
1572.9	45.7046
1573.17	43.6987
1573.43	43.6902
1573.69	47.6732
1573.95	44.6702
1574.21	48.6613
1574.47	50.665
1574.73	44.6846
1574.99	44.6939
1575.25	43.7049
1575.51	45.7123
1575.78	44.7198
1576.04	48.7176
1576.3	43.7154
1576.56	43.7126
1576.82	46.7029
1577.08	49.6821
1577.34	42.6707
1577.6	42.6525
1577.86	43.6327
1578.12	43.6161
1578.38	45.5948
1578.64	46.5809
1578.9	45.5791
1579.17	44.5797
1579.43	46.5712
1579.69	44.5758
1579.95	46.5705
1580.21	42.5871
1580.47	42.5883
1580.73	46.5761
1580.99	40.589
1581.25	44.5704
1581.51	45.5578
1581.77	39.5689
1582.03	43.5447
1582.29	45.5257
1582.55	42.5312
1582.81	44.5185
1583.07	40.5283
1583.33	48.4925
1583.59	38.5284
1583.85	48.4857
1584.11	38.5192
1584.38	45.4887
1584.64	40.5108
1584.9	46.4882
1585.16	53.461
1585.42	43.4973
1585.68	46.481
1585.94	49.4658
1586.2	41.4913
1586.46	44.4662
1586.72	42.4617
1586.98	45.4376
1587.24	46.4243
1587.5	47.4122
1587.76	47.4059
1588.02	47.4014
1588.28	48.3947
1588.54	48.3968
1588.8	49.3957
1589.06	48.4061
1589.32	43.4334
1589.58	48.4148
1589.84	51.4043
1590.1	49.413
1590.36	42.4414
1590.62	47.4216
1590.88	45.4337
1591.14	47.428
1591.4	40.4534
1591.66	43.4387
1591.92	45.4252
1592.18	42.4312
1592.44	48.3921
1592.7	42.4029
1592.96	45.3752
1593.22	45.3659
1593.48	50.3186
1593.74	44.3314
1594	46.2972
1594.26	50.2562
1594.52	44.2876
1594.78	47.2653
1595.04	45.2825
1595.3	45.2901
1595.56	46.2882
1595.82	43.3052
1596.08	53.2148
1596.34	43.2794
1596.6	48.2434
1596.86	45.2621
1597.12	46.2552
1597.38	41.2899
1597.64	46.2588
1597.9	45.2675
1598.16	44.2708
1598.42	47.2445
1598.68	48.2268
1598.94	47.2181
1599.2	43.2332
1599.46	48.1852
1599.72	52.144
1599.98	46.1797
1600.24	49.1454
1600.5	45.1675
1600.76	45.1563
1601.02	50.0996
1601.28	47.1079
1601.54	35.2001
1601.8	53.0142
1602.06	51.0168
1602.32	42.0936
1602.58	43.0728
1602.84	46.0297
1603.1	47.0052
1603.36	45.014
1603.62	46.981
1603.88	44.9951
1604.14	47.9553
1604.4	45.9746
1604.66	47.9509
1604.92	43.0066
1605.17	46.9601
1605.43	45.9704
1605.69	45.9702
1605.95	40.0387
1606.21	43.0087
1606.47	51.915
1606.73	49.9415
1606.99	40.0512
1607.25	41.0657
1607.51	50.9054
1607.77	41.2016
1608.03	49.5821
1608.29	41.2841
1608.55	50.119
1608.81	44.3642
1609.07	46.7402
1609.32	44.7893
1609.58	43.2055
1609.84	48.3816
1610.1	49.0066
1610.36	49.3862
1610.62	48.0002
1610.88	48.6972
1611.14	45.6156
1611.4	43.4257
1611.66	43.3667
1611.92	41.4449
1612.18	44.792
1612.44	49.5567
1612.69	45.5966
1612.95	48.492
1613.21	52.5223
1613.47	49.0611
1613.73	48.2863
1613.99	43.4579
1614.25	48.488
1614.51	45.8247
1614.77	48.7713
1615.03	43.0967
1615.29	45.8548
1615.54	42.257
1615.8	47.4466
1616.06	46.923
1616.32	48.3907
1616.58	49.459
1616.84	44.116
1617.1	46.2937
1617.36	45.495
1617.62	48.9363
1617.88	51.1401
1618.13	50.2593
1618.39	48.0458
1618.65	51.9761
1618.91	48.9235
1619.17	51.8809
1619.43	45.55
1619.69	47.2441
1619.95	46.313
1620.2	48.5527
1620.46	46.6181
1620.72	47.8595
1620.98	50.3552
1621.24	48.6379
1621.5	46.5101
1621.76	47.3035
1622.02	47.6218
1622.27	49.3402
1622.53	47.3698
1622.79	45.0963
1623.05	48.5286
1623.31	49.4189
1623.57	50.5363
1623.83	49.6536
1624.09	48.9381
1624.34	46.7921
1624.6	46.4797
1624.86	47.6626
1625.12	48.5644
1625.38	46.5962
1625.64	45.3615
1625.9	48.1572
1626.15	48.2979
1626.41	46.9571
1626.67	47.1479
1626.93	48.6002
1627.19	51.6365
1627.45	48.462
1627.7	51.5435
1627.96	51.8698
1628.22	49.9974
1628.48	47.8295
1628.74	46.924
1629	46.3572
1629.26	47.8445
1629.51	49.4042
1629.77	50.119
1630.03	51.2188
1630.29	51.9763
1630.55	49.8052
1630.81	48.1896
1631.06	49.5733
1631.32	50.2056
1631.53	52.5433
1631.79	50.5787
1632.05	46.6444
1632.31	51.5778
1632.57	45.6602
1632.84	50.5993
1633.1	46.6773
1633.36	50.6024
1633.62	51.5602
1633.88	50.5671
1634.14	44.6593
1634.4	50.5778
1634.66	52.5496
1634.93	45.649
1635.19	52.546
1635.45	46.628
1635.71	51.5511
1635.97	45.6317
1636.23	53.5084
1636.49	49.5586
1636.75	52.506
1637.02	51.5118
1637.28	47.562
1637.54	49.5208
1637.8	44.5911
1638.06	45.5721
1638.32	49.5039
1638.58	47.5279
1638.84	51.4596
1639.1	51.4581
1639.37	51.4561
1639.63	50.4691
1639.89	51.451
1640.15	46.5264
1640.41	46.5227
1640.67	47.5063
1640.93	52.4356
1641.19	54.4098
1641.46	44.5627
1641.72	52.4347
1641.98	45.5352
1642.24	51.4368
1642.5	48.4787
1642.76	53.3965
1643.02	50.439
1643.28	49.4508
1643.54	52.4005
1643.8	50.4285
1644.06	53.3749
1644.33	47.4624
1644.59	51.3888
1644.85	48.4285
1645.11	46.4573
1645.37	50.3941
1645.63	48.4306
1645.89	51.3843
1646.15	49.4147
1646.41	46.4557
1646.67	40.5449
1646.93	51.3601
1647.19	49.3872
1647.46	47.4129
1647.72	52.3232
1647.98	49.3661
1648.24	45.4293
1648.5	49.3627
1648.76	47.4018
1649.02	48.3925
1649.28	49.3985
1649.54	48.4214
1649.8	47.4297
1650.06	56.2812
1650.32	50.3728
1650.58	49.4008
1650.85	42.5163
1651.11	49.4173
1651.37	49.4245
1651.63	48.4433
1651.89	51.4001
1652.15	47.4565
1652.41	50.4108
1652.67	47.4542
1652.93	53.3599
1653.19	50.3955
1653.45	48.4202
1653.71	48.4182
1653.97	51.3742
1654.23	55.3188
1654.49	45.4655
1654.75	50.3928
1655.01	52.3652
1655.27	43.4982
1655.53	55.3357
1655.8	49.4322
1656.06	48.4609
1656.32	53.4044
1656.57	49.4626
1656.84	43.5424
1657.1	48.4779
1657.36	42.5518
1657.62	52.4162
1657.88	47.4738
1658.14	49.4424
1658.4	42.5291
1658.66	49.4292
1658.92	46.4606
1659.18	52.3702
1659.44	45.4566
1659.7	49.3923
1659.96	43.4671
1660.22	47.3987
1660.48	48.3863
1660.74	48.3903
1661	47.4094
1661.26	50.3745
1661.52	49.3952
1661.78	45.4563
1662.04	48.4183
1662.3	48.4198
1662.56	50.3463
1662.82	50.4378
1663.08	45.5428
1663.34	48.4812
1663.6	48.4736
1663.86	48.4594
1664.12	46.3873
1664.38	50.3813
1664.64	47.4296
1664.9	50.3936
1665.16	47.4527
1665.42	43.5078
1665.68	47.4076
1665.94	51.3062
1666.2	48.4682
1666.46	49.4652
1666.72	48.4692
1666.98	49.3878
1667.24	49.2348
1667.5	49.3755
1667.76	49.3628
1668.02	47.379
1668.28	42.4385
1668.54	43.4159
1668.8	45.3879
1669.06	43.4318
1669.32	45.429
1669.58	48.3949
1669.84	46.4183
1670.1	47.4056
1670.36	48.3864
1670.62	45.4212
1670.88	48.4068
1671.14	48.4206
1671.4	47.4251
1671.66	53.3496
1671.92	45.4384
1672.18	43.4615
1672.44	48.4054
1672.69	47.4163
1672.95	54.3336
1673.21	46.4231
1673.47	41.4795
1673.73	54.3307
1673.99	45.4343
1674.25	48.4032
1674.51	46.4297
1674.77	48.4113
1675.03	46.437
1675.29	46.4435
1675.55	46.4484
1675.81	45.4606
1676.07	47.4384
1676.33	46.4459
1676.59	47.4349
1676.85	48.4249
1677.11	47.4344
1677.37	47.4315
1677.63	49.4061
1677.89	50.3891
1678.14	42.4643
1678.4	42.454
1678.66	45.41
1678.92	47.3774
1679.18	46.3801
1679.44	41.4292
1679.7	49.3319
1679.96	46.3595
1680.22	46.3526
1680.48	49.3118
1680.74	47.3283
1681	49.2975
1681.26	43.3631
1681.52	48.2985
1681.78	48.2955
1682.03	48.2929
1682.29	41.3752
1682.55	49.2768
1682.81	46.3118
1683.07	47.2956
1683.33	44.3285
1683.59	39.3864
1683.85	48.2749
1684.11	44.32
1684.37	45.3028
1684.63	42.3309
1684.89	44.3003
1685.14	48.2459
1685.4	47.2546
1685.66	45.2766
1685.92	51.1989
1686.18	38.3601
1686.44	46.2586
1686.7	46.2602
1686.96	47.2551
1687.22	43.3061
1687.48	41.329
1687.73	42.3116
1687.99	46.2554
1688.25	44.2728
1688.51	42.2914
1688.77	43.2721
1689.03	41.2891
1689.29	45.2265
1689.55	42.2561
1689.81	46.1934
1690.06	45.1958
1690.32	42.2247
1690.58	51.096
1690.84	45.1866
1691.1	48.15
1691.36	47.1653
1691.62	43.2186
1691.88	43.2209
1692.13	39.2746
1692.39	48.1551
1692.65	48.1502
1692.91	47.1543
1693.17	46.1566
1693.43	50.0895
1693.69	45.1435
1693.95	47.0996
1694.2	41.1745
1694.46	49.0475
1694.72	46.0796
1694.98	43.1157
1695.24	46.0679
1695.5	44.0982
1695.76	45.0835
1696.01	47.0543
1696.27	46.07
1696.53	47.0595
1696.79	40.163
1697.05	43.117
1697.31	47.0524
1697.57	44.0859
1697.82	42.1026
1698.08	44.0589
1698.34	47.001
1698.6	46.9908
1698.86	45.0126
1699.12	45.9884
1699.38	47.9508
1699.63	44.9955
1699.89	43.0277
1700.15	45.9779
1700.41	44.9924
1700.67	45.9659
1700.92	48.9131
1701.18	41.0386
1701.44	47.92
1701.7	43.9791
1701.96	44.9532
1702.22	48.8753
1702.47	44.9321
1702.73	44.921
1702.99	47.8588
1703.25	48.8365
1703.51	49.8156
1703.77	42.9322
1704.02	45.8733
1704.28	47.8332
1704.54	39.9752
1704.8	50.7873
1705.06	43.9079
1705.32	41.9383
1705.57	45.8637
1705.83	46.844
1706.09	44.8767
1706.35	45.8499
1706.61	43.8736
1706.86	49.7531
1707.12	43.8482
1707.38	45.7982
1707.64	40.8799
1707.9	46.7529
1708.16	39.8712
1708.41	48.68
1708.67	38.8618
1708.93	47.663
1709.19	42.7486
1709.44	47.6325
1709.7	40.7701
1709.96	38.8072
1710.22	42.72
1710.48	47.6134
1710.73	38.8017
1710.99	45.6561
1711.25	43.7021
1711.51	39.7867
1711.77	44.6849
1712.02	46.645
1712.28	47.6229
1712.54	44.6773
1712.8	41.7254
1713.06	41.7062
1713.31	40.708
1713.57	42.6456
1713.83	41.6506
1714.09	44.5644
1714.34	40.6461
1714.6	40.6388
1714.86	43.5632
1715.12	50.3954
1715.38	42.5787
1715.63	44.5374
1715.89	40.6365
1716.15	42.5881
1716.41	44.5363
1716.66	43.5509
1716.92	44.5161
1717.18	44.5015
1717.44	46.4358
1717.69	46.4142
1717.95	44.439
1718.21	46.367
1718.47	42.4499
1718.72	36.5899
1718.98	40.4748
1719.24	43.3885
1719.5	41.4381
1719.75	46.3036
1720.01	46.2987
1720.27	41.4315
1720.53	37.5362
1720.78	45.3191
1721.04	45.3087
1721.3	47.2406
1721.56	43.3367
1721.81	42.3531
1722.07	43.3138
1722.33	43.3009
1722.59	39.3995
1722.84	48.1335
1723.1	44.2337
1723.36	41.3081
1723.62	44.2123
1723.87	46.1471
1724.13	38.3759
1724.39	43.2253
1724.64	45.1627
1724.9	44.1825
1725.16	38.3457
1725.42	44.1493
1725.67	45.1013
1725.93	43.1434
1726.19	36.3465
1726.45	40.2161
1726.7	39.2477
1726.96	44.0877
1727.22	44.079
1727.47	43.0927
1727.73	41.1523
1727.99	38.2535
1728.24	46.9672
1728.5	40.1773
1728.76	41.1282
1729.02	44.9373
1729.27	42.9359
1729.53	40.9801
1729.79	42.9317
1730.05	45.8491
1730.3	41.9997
1730.56	43.9034
1730.82	44.8546
1731.07	46.7787
1731.33	39.0977
1731.59	44.8968
1731.84	45.8618
1732.1	45.8586
1732.36	44.8873
1732.61	44.8807
1732.87	41.975
1733.13	45.8307
1733.39	46.7846
1733.64	44.8372
1733.9	39.9916
1734.16	45.7613
1734.41	39.9586
1734.67	43.8006
1734.93	44.7482
1735.18	40.8774
1735.44	45.6784
1735.7	48.5523
1735.95	48.54
1736.21	44.68
1736.47	41.7861
1736.72	41.7796
1736.98	44.6587
1737.24	44.6505
1737.49	49.4519
1737.75	47.5192
1738.01	46.5493
1738.26	44.6157
1738.52	41.72
1738.78	44.5926
1739.03	44.5811
1739.29	42.6468
1739.55	45.5137
1739.8	43.5744
1740.06	44.5123
1740.32	47.3691
1740.57	44.4724
1740.83	43.4977
1741.09	43.4849
1741.34	45.3893
1741.6	40.5874
1741.86	42.4925
1742.11	38.653
1742.37	46.3065
1742.63	50.1313
1742.88	43.4236
1743.14	42.4597
1743.4	44.3691
1743.65	45.3229
1743.91	41.4879
1744.16	42.4341
1744.42	47.2081
1744.68	43.3727
1744.93	48.1499
1745.19	50.0605
1745.45	46.2331
1745.7	47.1874
1745.96	43.3568
1746.22	47.1746
1746.47	45.2507
1746.73	41.4132
1746.98	44.2655
1747.24	44.253
1747.5	42.328
1747.75	43.271
1748.01	45.1681
1748.27	43.2516
1748.52	44.2029
1748.78	45.1559
1749.03	44.2009
1749.29	47.0657
1749.55	38.4757
1749.8	45.1644
1750.06	46.1261
1750.32	41.3575
1750.57	46.1429
1750.83	45.1947
1751.08	41.3726
1751.34	48.0671
1751.6	48.0662
1751.85	45.1902
1752.11	36.5745
1752.36	38.4719
1752.62	48.0121
1752.88	49.9095
1753.13	48.9413
1753.39	42.2468
1753.64	52.734
1753.9	43.1814
1754.15	42.2183
1754.41	43.1606
1754.67	46.0096
1754.92	44.0935
1755.18	43.1318
1755.43	44.0779
1755.69	45.9762
1755.95	40.249
1756.2	40.2382
1756.46	45.9409
1756.71	45.9265
1756.97	44.0057
1757.23	47.7958
1757.48	45.8772
1757.74	43.0158
1757.99	47.7638
1758.25	48.7157
1758.5	41.1165
1758.76	45.8757
1759.02	47.7777
1759.27	44.9215
1759.53	47.7746
1759.78	45.8716
1760.04	43.9655
1760.3	50.6208
1760.55	44.9055
1760.81	42.0449
1761.06	42.9891
1761.32	43.9312
1761.57	42.0184
1761.83	40.1072
1762.08	45.8039
1762.34	46.7488
1762.6	44.8437
1762.85	45.7998
1763.11	44.852
1763.36	40.0965
1763.62	47.699
1763.87	44.8459
1764.13	47.6997
1764.38	41.0455
1764.64	46.759
1764.89	43.9196
1765.15	47.7313
1765.4	41.0724
1765.66	39.1702
1765.92	43.9308
1766.17	42.0261
1766.43	44.8802
1766.68	42.9725
1766.94	42.015
1767.19	48.6732
1767.45	47.7184
1767.7	43.9051
1767.96	48.6553
1768.21	42.9365
1768.47	44.8322
1768.73	45.7775
1768.98	45.772
1769.24	43.8493
1769.49	48.5747
1769.75	43.7981
1770	49.4782
1770.26	45.6792
1770.51	47.5874
1770.77	44.747
1771.02	43.7956
1771.28	46.6471
1771.53	44.7566
1771.79	50.4751
1772.04	51.4304
1772.3	44.7745
1772.55	50.4864
1772.81	45.7381
1773.06	42.8887
1773.32	46.6981
1773.57	49.5565
1773.83	49.5596
1774.08	46.7065
1774.34	47.6601
1774.59	46.7087
1774.85	49.565
1775.1	46.7132
1775.36	47.6671
1775.61	50.5309
1775.87	47.6931
1776.12	47.7034
1776.38	42.9409
1776.63	51.5205
1776.89	41.0296
1777.14	50.5542
1777.4	47.6842
1777.65	44.8182
1777.91	47.6662
1778.16	44.7978
1778.42	43.835
1778.67	40.9683
1778.93	47.6216
1779.18	48.5587
1779.44	44.7369
1779.69	42.8246
1779.95	45.6759
1780.2	53.2999
1780.46	40.9295
1780.71	47.5928
1780.97	48.5468
1781.22	46.6456
1781.47	43.7885
1781.73	41.8842
1781.98	43.7901
1782.24	49.5076
1782.49	45.7038
1782.75	40.9492
1783	43.8118
1783.26	45.7207
1783.51	44.7706
1783.77	46.6807
1784.02	45.7314
1784.28	44.7825
1784.53	42.8813
1784.79	47.6595
1785.04	43.8488
1785.29	40.0339
1785.55	44.8023
1785.8	42.8897
1786.06	45.745
1786.31	38.107
1786.57	46.6905
1786.82	40.9685
1787.08	45.7438
1787.33	44.7971
1787.58	44.8074
1787.84	45.7773
1788.09	43.8917
1788.35	42.9617
1788.6	43.9438
1788.86	44.9177
1789.11	41.0937
1789.37	45.8896
1789.62	49.7369
1789.87	41.123
1790.13	42.0847
1790.38	39.2124
1790.64	41.1328
1790.89	43.0485
1791.15	46.8789
1791.4	43.0325
1791.65	43.004
1791.91	43.9559
1792.16	44.9071
1792.42	43.9479
1792.67	44.9053
1792.93	42.0323
1793.18	38.204
1793.43	46.8271
1793.69	40.12
1793.94	40.1183
1794.2	38.2052
1794.45	41.0792
1794.7	40.1181
1794.96	38.1937
1795.21	41.0775
1795.47	46.8621
1795.72	46.8843
1795.97	43.0551
1796.23	44.0199
1796.48	39.2249
1796.74	41.151
1796.99	46.9207
1797.25	40.2026
1797.5	41.1691
1797.75	42.1348
1798.01	48.8673
1798.26	43.1024
1798.51	40.2198
1798.77	44.0664
1799.02	44.0646
1799.28	40.214
1799.53	41.1689
1799.78	43.0828
1800.04	43.0722
1800.29	43.0622
1800.55	41.1323
1800.8	38.2433
1801.05	40.1588
1801.31	42.0753
1801.56	43.0323
1801.81	42.0697
1802.07	39.1874
1802.32	43.0304
1802.58	42.0718
1802.83	42.0752
1803.08	45.9243
1803.34	39.2029
1803.59	40.1707
1803.84	40.1756
1804.1	33.4454
1804.35	42.1008
1804.61	44.0279
1804.86	43.0721
1805.11	39.229
1805.37	41.1606
1805.62	43.0943
1805.87	40.2139
1806.13	40.2205
1806.38	39.2622
1806.64	40.2299
1806.89	42.1606
1807.14	43.1259
1807.4	40.234
1807.65	38.3046
1807.9	43.1216
1808.16	42.1562
1808.41	41.191
1808.66	45.0454
1808.92	41.1891
1809.17	43.1163
1809.42	45.0439
1809.68	45.0434
1809.93	41.1869
1810.18	42.1506
1810.44	40.2217
1810.69	36.3633
1810.94	44.0723
1811.2	40.2116
1811.45	40.2089
1811.7	40.2059
1811.96	43.0953
1812.21	37.3093
1812.46	38.2731
1812.72	41.1678
1812.97	42.1359
1813.22	39.2477
1813.48	39.2512
1813.73	42.1457
1813.98	37.3252
1814.24	44.0872
1814.49	42.1662
1814.74	40.2447
1815	38.324
1815.25	34.4646
1815.5	44.1313
1815.76	46.0657
1816.01	40.2672
1816.26	41.2335
1816.52	42.2001
1816.77	43.1675
1817.02	42.2018
1817.27	37.3638
1817.53	45.0885
1817.78	44.0991
1818.03	38.2875
1818.29	46.9795
1818.54	38.2919
1818.79	43.1316
1819.05	40.237
1819.3	45.0647
1819.55	38.3007
1819.8	41.2029
1820.06	39.2723
1820.31	43.1409
1820.56	45.0777
1820.82	45.0817
1821.07	41.216
1821.32	40.2505
1821.58	41.2213
1821.83	35.4206
1822.08	39.2943
1822.33	43.168
1822.59	43.1699
1822.84	47.0426
1823.09	45.1071
1823.34	43.1711
1823.6	40.2639
1823.85	40.2583
1824.1	42.1878
1824.36	44.1203
1824.61	40.2499
1824.86	45.0916
1825.11	43.1571
1825.37	41.2228
1825.62	44.1302
1825.87	40.2577
1826.12	42.1932
1826.38	36.3802
1826.63	38.3157
1826.88	40.2516
1827.14	41.2189
1827.39	41.2194
1827.64	43.1586
1827.89	35.4109
1828.15	44.1324
1828.4	43.1616
1828.65	40.2511
1828.9	43.1513
1829.16	38.2997
1829.41	41.1996
1829.66	44.1014
1829.91	40.2235
1830.17	39.2506
1830.42	43.1171
1830.67	46.0146
1830.92	38.2626
1831.18	39.2287
1831.43	42.1357
1831.68	47.9495
1831.93	42.143
1832.19	40.209
1832.44	39.2432
1832.69	45.0601
1832.94	42.1598
1833.2	41.1945
1833.45	39.2546
1833.7	43.1305
1833.95	41.1936
1834.2	48.949
1834.46	48.9502
1834.71	39.2427
1834.96	45.0322
1835.21	45.9759
1835.47	45.9523
1835.72	44.0014
1835.97	43.0198
1836.22	44.9516
1836.48	44.939
1836.73	45.1206
1836.98	42.2
1837.23	44.0798
1837.48	45.0256
1837.74	41.1175
1837.99	43.0251
1838.24	41.0452
1838.49	41.0177
1838.74	38.112
1839	40.1098
1839.25	43.0424
1839.5	43.0564
1839.75	41.1225
1840	40.1569
1840.26	40.1648
1840.51	44.9677
1840.76	40.095
1841.01	42.9703
1841.27	41.9795
1841.52	47.755
1841.77	44.8338
1842.02	44.8134
1842.27	44.7947
1842.53	34.1648
1842.78	40.9022
1843.03	43.8011
1843.28	40.901
1843.53	38.0096
1843.78	38.0068
1844.04	43.7924
1844.29	44.75
1844.54	41.854
1844.79	40.8924
1845.04	39.9264
1845.3	36.0595
1845.55	37.9878
1845.8	35.0922
1846.05	42.8245
1846.3	37.0489
1846.55	35.1298
1846.81	42.8844
1847.06	38.0285
1847.31	37.0066
1847.56	45.6076
1847.81	40.7772
1848.07	45.5889
1848.32	41.7576
1848.57	42.7386
1848.82	44.6404
1849.07	38.8493
1849.32	40.774
1849.57	37.8758
1849.83	43.6368
1850.08	37.8484
1850.33	41.6821
1850.58	34.934
1850.83	38.766
1851.09	39.7145
1851.34	37.7822
1851.59	40.6543
1851.84	40.6461
1852.09	39.6794
1852.34	38.7151
1852.59	37.7523
1852.84	37.7502
1853.1	43.5092
1853.35	35.8241
1853.6	38.7
1853.85	41.5736
1854.1	36.7639
1854.35	34.8321
1854.6	40.5742
1854.86	43.4373
1855.11	33.8396
1855.36	40.5432
1855.61	39.5706
1855.86	35.7228
1856.11	40.5035
1856.36	37.624
1856.61	38.5776
1856.87	40.491
1857.12	38.573
1857.37	40.4846
1857.62	46.2249
1857.87	40.4717
1858.12	38.5495
1858.37	38.5412
1858.63	42.3596
1858.88	41.3907
1859.13	40.4221
1859.38	42.3228
1859.63	38.4848
1859.88	41.3439
1860.13	41.3407
1860.38	39.4266
1860.63	40.383
1860.89	36.5634
1861.14	39.437
1861.39	39.4407
1861.64	40.4028
1861.89	35.6225
1862.14	39.4502
1862.39	36.5751
1862.64	40.3945
1862.9	39.4269
1863.15	36.5461
1863.4	33.6667
1863.65	39.3921
1863.9	37.4699
1864.15	40.3268
1864.4	43.1832
1864.65	40.3077
1864.9	35.5231
1865.15	41.2423
1865.4	40.2749
1865.66	40.2604
1865.91	39.2906
1866.16	40.2268
1866.41	35.4415
1866.66	39.235
1866.91	37.3113
1867.16	41.1013
1867.41	40.1304
1867.66	37.259
1867.91	40.0986
1868.16	40.0893
1868.41	38.1811
1868.67	38.1762
1868.92	36.2733
1869.17	40.0759
1869.42	39.1226
1869.67	38.1677
1869.92	38.163
1870.17	37.208
1870.42	41.9564
1870.67	38.1502
1870.92	36.2456
1871.17	40.0441
1871.42	39.0908
1871.67	38.1354
1871.92	36.2284
1872.17	40.9701
1872.42	35.2633
1872.68	34.3076
1872.93	39.997
1873.18	41.8855
1873.43	38.0801
1873.68	37.1268
1873.93	39.9693
1874.18	43.7577
1874.43	39.9515
1874.68	38.9915
1874.93	37.0824
1875.18	38.0188
1875.43	41.7979
1875.68	37.0452
1875.93	42.7138
1876.18	41.7407
1876.43	40.7763
1876.68	40.7615
1876.93	37.9113
1877.18	38.8494
1877.43	35.046
1877.68	39.7462
1877.93	45.3601
1878.18	34.0615
1878.44	39.8731
1878.69	39.8144
1878.93	40.7402
1879.19	37.8944
1879.44	47.3987
1879.69	38.8918
1879.94	36.9833
1880.19	39.8102
1880.44	40.7528
1880.69	31.2803
1880.94	38.861
1881.19	38.8499
1881.44	44.5259
1881.69	40.7197
1881.94	40.697
1882.19	42.5647
1882.44	36.8702
1882.69	37.7905
1882.94	40.5924
1883.19	41.5219
1883.44	41.4889
1883.69	37.9706
1883.94	37.801
1884.19	36.756
1884.44	40.5265
1884.69	41.4918
1884.94	35.812
1885.19	37.7093
1885.44	33.0101
1885.69	37.7302
1885.94	40.5638
1886.19	41.526
1886.44	39.6451
1886.69	36.8158
1886.94	42.4761
1887.19	39.6238
1887.44	39.6126
1887.69	40.5445
1887.94	40.5322
1888.19	39.5763
1888.44	43.3339
1888.69	42.3719
1888.94	36.7019
1889.19	38.5715
1889.44	36.674
1889.69	35.7241
1889.94	44.1927
1890.19	37.5993
1890.44	41.3662
1890.69	37.6072
1890.94	39.4975
1891.19	39.4981
1891.43	37.6107
1891.68	37.605
1891.94	38.5438
1892.18	41.3642
1892.43	44.1847
1892.68	37.5895
1892.93	36.6402
1893.18	40.3955
1893.43	41.3195
1893.68	39.4129
1893.93	38.4511
1894.18	35.6245
1894.43	42.2083
1894.68	35.6127
1894.93	36.5435
1895.18	36.5384
1895.43	40.2951
1895.68	38.4169
1895.93	42.1774
1896.18	43.1201
1896.43	44.0635
1896.68	34.6682
1896.93	40.3143
1897.18	45.0212
1897.42	41.2629
1897.68	38.4429
1897.92	40.3239
1898.17	41.2622
1898.42	42.198
1898.67	39.3693
1898.92	42.1811
1899.17	39.3487
1899.42	35.5767
1899.67	41.2058
1899.92	37.4407
1900.17	39.3126
1900.42	38.3659
1900.67	37.423
1900.92	43.9977
1901.16	34.6053
1901.41	39.3072
1901.66	40.2533
1901.91	36.4991
1902.16	43.0861
1902.41	40.273
1902.66	43.1017
1902.91	44.9814
1903.16	44.9753
1903.41	39.3254
1903.66	39.3184
1903.91	44.0142
1904.16	35.5468
1904.41	41.1842
1904.65	40.2405
1904.9	33.6558
1905.15	40.2325
1905.4	37.4084
1905.65	38.3457
1905.9	43.0414
1906.15	40.2076
1906.4	40.1913
1906.65	43.9406
1906.9	38.298
1907.14	35.4745
1907.39	39.2258
1907.64	38.2851
1907.89	36.407
1908.14	41.1058
1908.39	42.9904
1908.64	42.0524
1908.89	40.1736
1909.14	40.1758
1909.39	43.9394
1909.63	33.6063
1909.88	41.1348
1910.13	41.1453
1910.38	37.3936
1910.63	43.0519
1910.88	40.239
1911.13	42.1295
1911.38	42.1342
1911.62	40.2524
1911.87	34.6
1912.12	36.4815
1912.37	41.1864
1912.62	39.2976
1912.87	44.9456
1913.12	40.2341
1913.37	43.0577
1913.61	42.1152
1913.86	42.1196
1914.11	41.1876
1914.36	40.2561
1914.61	40.2636
1914.86	45.9282
1915.11	40.2768
1915.36	38.3959
1915.6	43.1173
1915.85	44.0614
1916.1	42.171
1916.35	39.3346
1916.6	39.3303
1916.85	33.6622
1917.1	44.0275
1917.34	44.0174
1917.59	44.9516
1917.84	43.0591
1918.09	36.4552
1918.34	40.225
1918.59	41.1715
1918.83	42.1218
1919.08	40.2446
1919.33	33.6493
1919.58	40.266
1919.83	39.3366
1920.08	36.5147
1920.33	42.189
1920.57	39.354
1920.82	44.0713
1921.07	38.4029
1921.32	42.1914
1921.57	39.3645
1921.81	40.314
1922.06	35.5893
1922.31	43.1565
1922.56	43.1544
1922.81	36.5289
1923.06	44.0855
1923.31	38.4043
1923.55	42.1797
1923.8	39.3382
1924.05	44.0582
1924.3	41.2145
1924.55	42.1497
1924.79	40.2527
1925.04	41.1937
1925.29	39.3037
1925.54	41.1966
1925.79	42.1485
1926.04	39.3234
1926.28	44.0608
1926.53	45.0162
1926.78	43.1344
1927.03	43.1462
1927.28	42.2066
1927.52	40.3173
1927.77	40.321
1928.02	46.0067
1928.27	42.2212
1928.52	39.3818
1928.76	46.9616
1929.01	38.4381
1929.26	39.3887
1929.51	39.3931
1929.76	40.3479
1930	37.5137
1930.25	38.47
1930.5	34.6844
1930.75	36.5891
1931	41.3438
1931.24	37.5472
1931.49	37.5461
1931.74	38.4904
1931.99	44.1788
1932.24	39.4248
1932.48	42.264
1932.73	39.4092
1932.98	39.4007
1933.23	39.3968
1933.47	40.3378
1933.72	38.4409
1933.97	46.0416
1934.22	43.2142
1934.46	43.241
1934.71	36.6221
1934.96	42.3623
1935.21	42.3925
1935.46	35.746
1935.7	34.8085
1935.95	41.4949
1936.2	36.6988
1936.45	40.5051
1936.69	43.3593
1936.94	43.3516
1937.19	37.6241
1937.44	41.4223
1937.68	42.3636
1937.93	42.3524
1938.18	44.2461
1938.43	39.4761
1938.68	41.377
1938.92	39.4855
1939.17	43.2969
1939.42	42.3493
1939.67	39.497
1939.91	36.6423
1940.16	45.2213
1940.41	36.6458
1940.66	41.418
1940.9	40.473
1941.15	41.4523
1941.4	37.6493
1941.64	36.6929
1941.89	37.64
1942.14	36.6702
1942.39	41.4117
1942.63	41.4251
1942.88	41.4665
1943.13	39.5648
1943.38	43.3838
1943.62	41.4546
1943.87	38.5711
1944.12	35.694
1944.37	39.5327
1944.61	39.5393
1944.86	39.5457
1945.11	39.5529
1945.35	47.2027
1945.6	37.6578
1945.85	37.6652
1946.1	47.2309
1946.34	42.4573
1946.59	36.7243
1946.84	40.5518
1947.09	37.6829
1947.33	41.5056
1947.58	38.6308
1947.83	34.7995
1948.07	46.2713
1948.32	38.6189
1948.57	38.6164
1948.82	37.6549
1949.06	43.3919
1949.31	39.5723
1949.56	42.4481
1949.8	37.6714
1950.05	37.679
1950.3	38.6444
1950.54	41.5321
1950.79	41.5496
1951.04	39.6457
1951.29	36.7829
1951.53	48.3076
1951.78	43.5262
1952.03	42.5778
1952.27	38.7439
1952.52	41.6286
1952.77	36.8312
1953.01	45.4712
1953.26	43.5565
1953.51	35.8791
1953.76	41.63
1954	38.731
1954.25	40.6224
1954.49	39.6378
1954.74	39.614
1954.99	37.677
1955.24	42.4591
1955.48	39.5816
1955.73	42.4585
1955.98	39.5932
1956.22	39.6088
1956.47	39.6355
1956.72	47.3227
1956.96	39.6561
1957.21	44.4621
1957.46	43.5103
1957.7	46.3995
1957.95	40.6415
1958.2	40.6454
1958.44	42.5698
1958.69	43.5319
1958.94	37.765
1959.18	40.643
1959.43	43.5156
1959.68	39.6656
1959.92	40.6227
1960.17	43.4962
1960.42	40.6053
1960.66	40.5968
1960.91	40.5876
1961.16	41.5376
1961.4	38.6482
1961.65	45.3581
1961.9	42.4723
1962.14	42.4716
1962.39	37.6733
1962.63	46.3107
1962.88	44.391
1963.13	43.431
1963.37	40.5509
1963.62	35.7505
1963.87	40.5496
1964.11	38.6295
1964.36	39.5925
1964.61	39.5948
1964.85	45.3535
1965.1	43.4274
1965.35	36.7046
1965.59	39.5816
1965.84	40.5405
1966.08	41.5029
1966.33	40.5486
1966.58	40.5558
1966.82	42.4849
1967.07	42.4897
1967.32	36.7258
1967.56	38.6449
1967.81	39.6043
1968.05	47.2961
1968.3	43.4506
1968.55	38.6436
1968.79	43.4475
1969.04	44.4025
1969.29	41.5089
1969.53	41.4962
1969.78	48.2046
1970.02	41.4647
1970.27	43.3716
1970.52	42.4003
1970.76	40.4725
1971.01	41.4226
1971.25	46.211
1971.5	44.2848
1971.75	44.2782
1971.99	42.3542
1972.24	37.5593
1972.48	50.9911
1972.73	50.9917
1972.98	47.1516
1973.22	43.3082
1973.47	39.4622
1973.71	31.7797
1973.96	45.1936
1974.21	47.1025
1974.45	49.0133
1974.7	46.1337
1974.94	44.2148
1975.19	45.1729
1975.44	46.1332
1975.68	47.096
1975.93	48.0602
1976.17	46.1467
1976.42	47.1086
1976.66	45.1913
1976.91	46.1501
1977.16	47.1074
1977.4	43.267
1977.65	46.1393
1977.89	42.2956
1978.14	41.3277
1978.39	48.9887
1978.63	46.1037
1978.88	44.1794
1979.12	48.9667
1979.37	48.006
1979.61	48.0054
1979.86	45.128
1980.1	48.0035
1980.35	51.8365
1980.6	46.0783
1980.84	49.901
1981.09	44.1412
1981.33	47.9674
1981.58	43.1685
1981.82	50.8243
1982.07	49.8608
1982.31	46.0258
1982.56	46.9795
1982.81	50.8
1983.05	51.7465
1983.3	52.6891
1983.54	46.9295
1983.79	48.8302
1984.03	49.7798
1984.28	47.8608
1984.52	49.7668
1984.77	47.8466
1985.02	44.9714
1985.26	57.3912
1985.51	50.6825
1985.75	49.7181
1986	49.7162
1986.24	53.5406
1986.49	45.8982
1986.73	53.5532
1986.98	49.7308
1987.22	55.4639
1987.47	48.7721
1987.71	55.4541
1987.96	48.7445
1988.21	48.7256
1988.45	53.4804
1988.7	47.7256
1988.94	57.2
1989.19	50.4955
1989.43	45.835
1989.68	51.4866
1989.92	53.2015
1990.17	53.0067
1990.41	49.5228
1990.66	56.6382
1990.9	54.1216
1991.15	55.7051
1991.39	50.069
1991.64	54.0454
1991.88	50.8196
1992.13	53.0998
1992.37	48.8965
1992.62	52.6713
1992.86	55.3851
1993.11	57.726
1993.35	54.2906
1993.6	55.7448
1993.84	56.2651
1994.09	53.4409
1994.33	55.2182
1994.58	52.9678
1994.82	56.5199
1995.07	58.3173
1995.31	46.7254
1995.56	53.1918
1995.8	57.7423
1996.05	51.6228
1996.29	53.2213
1996.54	54.1913
1996.78	57.6141
1997.03	54.6944
1997.27	54.8117
1997.52	55.0703
1997.76	51.5292
1998.01	60.2185
1998.25	60.16
1998.5	58.4277
1998.74	57.0507
1998.99	55.1615
1999.23	57.3788
1999.48	58.3239
1999.72	58.6518
1999.97	56.8471
2000.21	54.5637
2000.46	56.9743
2000.7	56.5368
2000.95	57.3124
2001.19	60.0569
2001.43	54.9924
2001.68	57.2483
2001.92	58.9835
2002.17	57.9321
2002.41	57.1526
2002.66	58.1144
2002.9	57.602
2003.15	57.9402
2003.39	54.6595
2003.64	55.9695
2003.88	58.2951
2004.13	59.7906
2004.37	58.9604
2004.61	58.3135
2004.86	59.1772
2005.1	59.1315
2005.35	60.0785
2005.59	59.7068
2005.84	57.9375
2006.08	60.1122
2006.33	58.1978
2006.57	55.9494
2006.81	59.2637
2007.06	58.665
2007.3	56.1675
2007.55	56.9933
2007.79	55.5278
2008.04	57.5503
2008.28	57.6338
2008.53	59.7576
2008.77	59.2581
2009.01	57.845
2009.26	56.9016
2009.5	60.8167
2009.75	60.1735
2009.99	63.85
2010.24	54.1193
2010.48	56.279
2010.73	61.3121
2010.97	56.3105
2011.21	63.4126
2011.46	51.1183
2011.7	54.642
2011.95	57.2626
2012.19	58.9947
2012.43	55.3249
2012.68	60.9694
2012.92	58.1396
2013.17	59.0683
2013.42	53.401
2013.67	51.4928
2013.91	55.2385
2014.16	58.9774
2014.41	54.2533
2014.66	55.1632
2014.9	55.137
2015.15	54.1907
2015.4	58.8849
2015.64	54.1991
2015.89	55.1465
2016.14	55.1524
2016.39	56.0846
2016.63	58.9152
2016.88	54.259
2017.13	56.1459
2017.37	60.8411
2017.62	60.8312
2017.87	54.2401
2018.11	57.0404
2018.36	58.8955
2018.61	56.9937
2018.86	54.1581
2019.1	56.9509
2019.35	55.9903
2019.6	54.0954
2019.84	56.8948
2020.09	55.9494
2020.34	58.7544
2020.58	56.8792
2020.83	50.3199
2021.08	51.2537
2021.33	55.9389
2021.57	55.9417
2021.82	47.5114
2022.07	51.2549
2022.31	50.313
2022.56	58.7328
2022.81	55.9124
2023.05	54.0262
2023.3	54.9461
2023.55	50.2561
2023.8	44.6326
2024.04	53.0382
2024.29	54.8958
2024.54	52.0804
2024.78	43.6531
2025.03	51.1101
2025.27	58.5627
2025.52	54.8097
2025.77	49.1937
2026.02	51.9786
2026.26	50.0946
2026.51	55.695
2026.76	47.3174
2027	50.1475
2027.25	50.1847
2027.5	47.4212
2027.74	51.1884
2027.99	49.3098
2028.23	49.2781
2028.48	51.1006
2028.73	51.8933
2028.98	53.8979
2029.22	46.5933
2029.47	48.3715
2029.72	54.0346
2029.96	50.2009
2030.21	49.212
2030.45	49.1558
2030.7	50.0851
2030.95	53.7715
2031.19	53.8097
2031.44	49.1749
2031.69	50.0999
2031.93	51.0326
2032.18	54.7657
2032.43	51.0475
2032.67	44.5278
2032.92	57.6196
2033.17	49.2289
2033.41	52.0446
2033.66	48.3154
2033.91	44.5887
2034.15	50.2056
2034.4	46.4401
2034.64	51.0787
2034.89	46.3607
2035.14	46.3481
2035.38	46.367
2035.63	47.3156
2035.87	45.4733
2036.12	43.6357
2036.37	48.3338
2036.61	45.5252
2036.86	46.4359
2037.11	48.3062
2037.35	50.1872
2037.6	45.5108
2037.84	46.4429
2038.09	44.5679
2038.34	48.3009
2038.58	54.8361
2038.83	51.0888
2039.08	48.2768
2039.32	47.3343
2039.57	47.3255
2039.81	48.2506
2040.06	49.173
2040.31	51.0253
2040.55	50.0775
2040.8	47.2652
2041.04	49.1186
2041.29	50.0402
2041.54	50.0309
2041.78	47.2294
2042.03	44.4291
2042.27	45.3545
2042.52	47.2124
2042.77	43.4748
2043.01	49.9925
2043.26	41.6064
2043.5	49.9954
2043.75	48.144
2044	44.4328
2044.24	45.3833
2044.49	47.2554
2044.73	48.1854
2044.98	47.2406
2045.23	39.7605
2045.47	48.1077
2045.72	38.8396
2045.96	45.381
2046.21	46.3786
2046.45	46.453
2046.7	45.478
2046.95	44.4998
2047.19	39.7997
2047.44	37.9338
2047.68	50.0528
2047.93	42.5533
2048.17	45.3402
2048.42	45.3414
2048.67	49.0721
2048.91	48.1423
2049.16	47.2142
2049.4	47.2257
2049.65	42.5705
2049.89	44.4483
2050.14	49.1314
2050.39	45.4088
2050.63	43.5529
2050.88	44.4933
2051.12	43.5606
2051.37	40.7546
2051.61	49.1518
2051.86	45.4019
2052.11	44.4671
2052.35	44.4673
2052.6	45.4073
2052.84	45.4087
2053.09	43.5453
2053.33	49.1569
2053.58	42.6251
2053.82	41.7007
2054.07	42.6548
2054.31	44.5327
2054.56	42.6671
2054.8	48.2806
2055.05	44.5371
2055.3	44.5342
2055.54	42.6597
2055.79	34.233
2056.03	41.7085
2056.28	46.3806
2056.52	38.8966
2056.77	44.5004
2057.01	46.3663
2057.26	43.5612
2057.5	39.8236
2057.75	41.6957
2058	40.7652
2058.24	45.4463
2058.49	41.7115
2058.73	42.6566
2058.98	44.537
2059.22	42.6737
2059.47	47.36
2059.71	42.6817
2059.96	43.6196
2060.2	42.6836
2060.45	43.6138
2060.69	41.7347
2060.94	39.8579
2061.18	40.7979
2061.43	42.6753
2061.67	44.5514
2061.92	41.744
2062.16	48.2982
2062.41	41.7451
2062.65	37.0654
2062.9	40.8147
2063.14	42.6931
2063.39	42.7001
2063.63	45.5175
2063.88	36.1519
2064.12	44.5901
2064.37	39.9067
2064.61	39.9093
2064.86	43.6633
2065.1	42.7314
2065.35	38.0513
2065.59	41.8148
2065.84	41.8257
2066.08	46.5285
2066.33	39.965
2066.57	43.7258
2066.82	40.91
2067.06	43.7311
2067.31	39.9784
2067.55	39.9812
2067.8	43.7438
2068.04	40.9314
2068.29	39.9966
2068.53	43.7598
2068.78	46.5816
2069.02	40.9474
2069.27	41.8874
2069.51	39.0608
2069.76	40.9285
2070	38.0923
2070.25	36.207
2070.49	35.2705
2070.73	42.8014
2070.98	40.0019
2071.22	41.903
2071.47	46.6021
2071.71	44.7072
2071.96	42.8747
2072.2	42.8915
2072.45	41.9461
2072.69	41.0007
2072.94	39.1156
2073.18	40.9946
2073.43	35.3448
2073.67	40.0496
2073.92	42.8753
2074.16	40.0514
2074.4	45.7028
2074.65	42.8821
2074.89	42.8895
2075.14	43.8423
2075.38	41.0293
2075.63	42.9326
2075.87	44.8415
2076.12	42.0255
2076.36	39.2007
2076.6	41.089
2076.85	42.0342
2077.09	40.1412
2077.34	41.0761
2077.58	38.2355
2077.83	42.9329
2078.07	41.0414
2078.31	37.2732
2078.56	44.8271
2078.8	44.8305
2079.05	39.1728
2079.29	40.1214
2079.54	41.0741
2079.78	36.3709
2080.03	38.2666
2080.27	39.2172
2080.51	41.1126
2080.76	39.2273
2081	38.2822
2081.25	38.2776
2081.49	43.9434
2081.74	42.0518
2081.98	35.437
2082.22	38.2693
2082.47	39.2165
2082.71	39.2188
2082.96	39.2204
2083.2	41.1106
2083.45	38.2742
2083.69	42.0519
2083.93	42.9945
2084.18	38.2692
2084.42	38.2691
2084.67	39.2129
2084.91	43.9377
2085.15	38.2685
2085.4	42.0482
2085.64	38.2673
2085.89	39.2119
2086.13	41.1041
2086.37	42.0593
2086.62	38.2895
2086.86	37.3517
2087.11	36.4088
2087.35	39.2508
2087.59	36.4179
2087.84	42.0989
2088.08	38.3131
2088.32	37.3667
2088.57	41.1527
2088.81	40.2074
2089.06	36.4228
2089.3	43.0499
2089.54	38.3223
2089.79	39.275
2090.03	35.4961
2090.28	34.5515
2090.52	40.2364
2090.76	39.2913
2091.01	37.3993
2091.25	37.4027
2091.5	40.2493
2091.74	35.5139
2091.98	36.4704
2092.23	37.4286
2092.47	35.5425
2092.72	39.3491
2092.96	41.2606
2093.2	40.3215
2093.45	42.2305
2093.69	38.4404
2093.93	38.449
2094.18	39.4068
2094.42	38.4628
2094.66	40.3659
2094.91	40.3652
2095.15	41.3133
2095.39	39.4084
2095.64	35.5993
2095.88	42.2443
2096.13	37.4868
2096.37	34.6316
2096.61	37.4784
2096.86	37.4764
2097.1	41.2739
2097.34	40.3179
2097.59	39.3597
2097.83	42.1995
2098.07	39.3473
2098.32	45.9896
2098.56	37.4434
2098.8	41.2339
2099.05	43.1315
2099.29	43.1298
2099.53	38.3813
2099.78	39.328
2100.02	41.2246
2100.27	37.4282
2100.51	41.2249
2100.75	39.3283
2101	43.1283
2101.24	39.3405
2101.48	39.3474
2101.73	37.4522
2101.97	36.504
2102.21	39.3528
2102.45	41.2508
2102.7	40.3006
2102.94	33.6492
2103.18	37.4416
2103.43	41.2309
2103.67	40.2764
2103.92	34.5789
2104.16	45.0178
2104.4	38.3732
2104.64	40.2745
2104.89	37.4315
2105.13	39.3357
2105.37	40.2903
2105.62	38.3968
2105.86	37.4545
2106.1	41.2624
2106.35	37.4644
2106.59	39.3686
2106.83	39.37
2107.08	41.2724
2107.32	37.4725
2107.56	37.473
2107.8	43.1724
2108.05	35.5594
2108.29	39.3507
2108.53	38.3893
2108.78	38.3783
2109.02	37.4201
2109.26	36.4669
2109.51	42.1648
2109.75	39.3256
2109.99	39.3329
2110.23	38.3826
2110.48	43.132
2110.72	42.1813
2110.96	41.2305
2111.21	36.48
2111.45	37.4289
2111.69	38.3756
2111.93	43.1187
2112.18	36.4658
2112.42	35.5133
2112.66	38.3613
2112.91	35.5152
2113.15	38.3676
2113.39	39.3214
2113.63	39.3304
2113.88	37.4369
2114.12	41.2418
2114.36	38.3874
2114.61	36.4826
2114.85	38.3819
2115.09	37.4326
2115.33	39.3336
2115.58	43.1323
2115.82	39.3268
2116.06	40.2732
2116.31	37.4188
2116.55	40.2604
2116.79	36.453
2117.03	40.2477
2117.28	38.3457
2117.52	33.5955
2117.76	42.1428
2118	41.1884
2118.25	40.2319
2118.49	40.2245
2118.73	39.2643
2118.97	38.3035
2119.22	42.088
2119.46	36.3888
2119.7	36.3805
2119.94	39.2161
2120.19	41.1036
2120.43	40.1495
2120.67	40.1467
2120.91	36.3569
2121.16	35.4145
2121.4	39.2083
2121.64	34.4762
2121.88	40.1735
2122.13	37.3362
2122.37	35.4458
2122.61	37.3494
2122.85	37.3544
2123.1	39.257
2123.34	38.3116
2123.58	36.4154
2123.82	39.2643
2124.07	33.5646
2124.31	34.5094
2124.55	39.2481
2124.79	36.391
2125.03	36.376
2125.28	37.306
2125.52	31.6036
2125.76	39.17
2126	42.9451
2126.25	37.252
2126.49	39.1345
2126.73	39.1256
2126.97	30.6027
2127.21	40.0534
2127.46	41.9356
2127.7	38.1491
2127.94	39.092
2128.18	35.3073
2128.43	36.2481
2128.67	38.1357
2128.91	38.1351
2129.15	39.0798
2129.39	35.2967
2129.64	35.2931
2129.88	36.2351
2130.12	40.9581
2130.36	39.0654
2130.6	36.2275
2130.85	35.2791
2131.09	39.999
2131.33	39.9934
2131.57	35.2641
2131.81	40.9243
2132.06	38.0851
2132.3	34.304
2132.54	39.0197
2132.78	36.1798
2133.02	39.0035
2133.27	34.281
2133.51	38.0543
2133.75	40.886
2133.99	34.2811
2134.23	37.1119
2134.48	31.4504
2134.72	38.057
2134.96	36.1678
2135.2	41.8284
2135.44	39.9391
2135.68	36.1618
2135.93	34.2704
2136.17	37.094
2136.41	38.0252
2136.65	34.2418
2136.89	42.7203
2137.14	34.2368
2137.38	37.0659
2137.62	40.8371
2137.86	34.2405
2138.1	38.9626
2138.34	41.7881
2138.59	36.1189
2138.83	40.8234
2139.07	32.3455
2139.31	38.9565
2139.55	39.9081
2139.79	38.9448
2140.03	32.3323
2140.28	41.7488
2140.52	38.9154
2140.76	40.7938
2141	36.0791
2141.24	37.0174
2141.49	36.072
2141.73	40.7807
2141.97	37.0054
2142.21	40.762
2142.45	40.7577
2142.69	37.9331
2142.93	39.8227
2143.18	35.12
2143.42	37.0326
2143.66	38.9014
2143.9	45.3816
2144.14	36.9238
2144.38	38.8096
2144.62	38.8224
2144.87	37.8944
2145.11	34.1384
2145.35	34.1183
2145.59	35.0606
2145.83	37.8823
2146.07	36.9393
2146.31	33.1749
2146.55	35.0515
2146.8	38.8079
2147.04	36.9242
2147.28	35.0402
2147.52	39.733
2147.76	38.7875
2148	39.7214
2148.24	36.8985
2148.48	30.3188
2148.73	40.645
2148.97	37.822
2149.21	39.6932
2149.45	34.0523
2149.69	42.4896
2149.93	36.8429
2150.17	40.5851
2150.42	34.9479
2150.66	35.8775
2150.9	33.9985
2151.14	33.9972
2151.38	40.5608
2151.62	42.4419
2151.86	42.4455
2152.1	35.887
2152.34	41.5158
2152.58	36.8311
2152.83	38.7005
2153.07	39.6321
2153.31	37.7491
2153.55	38.6795
2153.79	34.9263
2154.03	42.4201
2154.27	35.8529
2154.51	37.717
2154.75	41.4495
2154.99	33.0063
2155.24	36.7355
2155.48	35.783
2155.72	32.0309
2155.96	38.5638
2156.2	40.4222
2156.44	38.5452
2156.68	39.4746
2156.92	39.4721
2157.16	40.4046
2157.4	38.5357
2157.64	35.7352
2157.89	36.6737
2158.13	37.6143
2158.37	36.6849
2158.61	35.751
2158.85	35.75
2159.09	38.5518
2159.33	34.8093
2159.57	37.6076
2159.81	41.3381
2160.05	39.4608
2160.29	34.7809
2160.53	35.7052
2160.77	42.2308
2161.01	34.7556
2161.25	39.417
2161.5	38.481
2161.74	39.4097
2161.98	37.5393
2162.22	39.4031
2162.46	36.6035
2162.7	40.3346
2162.94	38.4673
2163.18	41.2617
2163.42	34.7266
2163.66	39.3851
2163.9	38.4478
2164.14	38.4429
2164.38	31.9116
2164.62	38.4287
2164.86	34.6905
2165.11	38.411
2165.35	40.2752
2165.59	35.6193
2165.83	37.4828
2166.07	34.687
2166.31	40.2779
2166.55	36.5454
2166.79	38.4041
2167.03	36.5346
2167.27	37.4579
2167.51	36.5205
2167.75	37.4423
2167.99	33.7076
2168.23	37.4115
2168.47	38.3241
2168.71	31.8096
2168.95	34.5971
2169.19	41.1064
2169.43	40.1813
2169.67	32.7485
2169.91	37.4084
2170.15	40.2124
2170.39	39.2962
2170.63	35.5795
2170.87	39.307
2171.11	32.785
2171.35	41.1573
2171.59	38.36
2171.83	35.5521
2172.07	35.5266
2172.31	40.1607
2172.56	33.6465
2172.79	39.2155
2173.04	40.1386
2173.28	32.704
2173.51	38.2772
2173.76	37.3469
2174	40.1363
2174.24	37.3529
2174.48	39.2144
2174.72	35.4978
2174.96	38.2858
2175.2	35.4966
2175.44	44.7891
2175.68	33.6335
2175.92	39.2063
2176.16	39.2042
2176.4	33.6263
2176.64	35.481
2176.88	37.3327
2177.12	41.9742
2177.36	38.2579
2177.6	34.5424
2177.84	30.8264
2178.08	34.5408
2178.32	36.3993
2178.55	36.3952
2178.8	38.242
2179.03	36.3767
2179.28	35.4466
2179.52	36.3759
2179.75	41.0183
2180	40.0895
2180.23	38.2316
2180.47	40.0876
2180.71	38.2288
2180.95	41.9393
2181.19	37.2941
2181.43	31.7223
2181.67	38.2176
2181.91	40.0687
2182.15	37.2792
2182.39	30.7804
2182.63	38.1989
2182.87	38.1945
2183.11	38.1903
2183.35	38.1821
2183.59	38.1728
2183.83	36.3069
2184.07	38.1523
2184.31	38.1456
2184.55	39.0659
2184.79	39.0634
2185.03	34.4311
2185.27	36.2871
2185.51	37.2158
2185.75	38.1448
2185.99	41.8566
2186.23	38.1545
2186.47	36.3061
2186.7	32.602
2186.95	38.1768
2187.18	36.3316
2187.42	37.2698
2187.66	35.4228
2187.9	36.3585
2188.14	35.431
2188.38	38.2127
2188.62	37.2768
2188.86	35.4122
2189.1	36.3321
2189.34	38.1786
2189.58	35.3844
2189.82	42.7912
2190.06	36.2888
2190.3	35.3563
2190.54	36.2811
2190.78	38.1352
2191.01	33.5024
2191.25	35.3588
2191.49	35.3581
2191.73	29.7961
2191.97	41.8528
2192.21	34.4368
2192.45	39.0765
2192.69	35.3688
2192.93	32.5884
2193.17	38.1599
2193.41	39.0938
2193.65	34.4589
2193.89	37.2509
2194.13	40.9811
2194.36	36.3542
2194.6	39.1538
2194.84	37.3007
2195.08	35.4387
2195.32	35.4339
2195.56	39.1474
2195.8	35.4234
2196.04	38.2024
2196.28	40.9775
2196.52	38.1771
2196.76	36.3078
2197	39.0821
2197.23	40.0018
2197.47	39.0668
2197.71	38.1328
2197.95	38.1323
2198.19	39.9879
2198.43	33.4979
2198.67	35.361
2198.91	33.513
2199.15	37.2358
2199.38	40.0342
2199.62	38.1871
2199.86	32.6231
2200.1	38.211
2200.34	48.4597
2200.58	39.179
2200.82	35.4724
2201.06	41.0747
2201.3	38.2911
2201.54	40.1637
2201.77	35.4887
2202.01	41.0355
2202.25	41.8769
2202.49	38.1073
2202.73	39.0587
2202.97	38.196
2203.21	32.6437
2203.45	42.8637
2203.68	36.3456
2203.92	35.4458
2204.16	42.0942
2204.4	40.177
2204.64	38.3084
2204.88	39.2468
2205.12	37.3555
2205.36	41.0461
2205.59	37.2917
2205.83	38.2001
2206.07	40.9829
2206.31	38.1939
2206.55	39.132
2206.79	39.1326
2207.03	43.7657
2207.26	36.3302
2207.5	38.1946
2207.74	37.271
2207.98	37.2781
2208.22	35.4246
2208.46	37.2927
2208.7	35.438
2208.93	41.9607
2209.17	37.3105
2209.41	36.3825
2209.65	41.9719
2209.89	37.315
2210.13	41.0384
2210.36	39.1766
2210.6	36.3867
2210.84	39.186
2211.08	37.3282
2211.32	42.925
2211.56	41.9989
2211.8	37.3443
2212.03	41.0814
2212.27	36.4264
2212.51	38.2968
2212.75	35.5005
2212.99	41.0943
2213.23	33.6279
2213.46	35.4892
2213.7	33.618
2213.94	37.3407
2214.18	40.1393
2214.42	38.2815
2214.66	36.4307
2214.89	33.6441
2215.13	36.4474
2215.37	34.5829
2215.61	33.6509
2215.85	38.32
2216.08	35.5194
2216.32	38.3199
2216.56	34.5841
2216.8	37.3835
2217.04	34.5804
2217.28	38.3127
2217.51	37.3784
2217.75	36.4456
2217.99	35.513
2218.23	40.1806
2218.47	38.3122
2218.7	33.6447
2218.94	34.5812
2219.18	38.3212
2219.42	35.525
2219.66	34.5967
2219.9	31.7967
2220.13	36.4727
2220.37	37.4103
2220.61	35.5396
2220.85	37.4066
2221.09	30.8629
2221.32	36.4658
2221.56	41.1277
2221.8	31.7763
2222.04	39.2389
2222.27	39.2309
2222.51	38.2918
2222.75	37.3567
2222.99	34.5582
2223.23	36.4299
2223.46	34.567
2223.7	32.7042
2223.94	37.3825
2224.18	31.7858
2224.42	36.4689
2224.65	35.5436
2224.89	36.4871
2225.13	36.4945
2225.37	36.5018
2225.6	34.6382
2225.84	30.9025
2226.08	35.5911
2226.32	35.5979
2226.56	37.4788
2226.79	29.0507
2227.03	34.6796
2227.27	36.5606
2227.51	36.5659
2227.74	35.6319
2227.98	35.6337
2228.22	33.7568
2228.46	36.5667
2228.69	35.6258
2228.93	31.8725
2229.17	42.1829
2229.41	32.8053
2229.64	34.6796
2229.88	38.4354
2230.12	34.6933
2230.36	33.7629
2230.6	37.5216
2230.83	42.2206
2231.07	30.9644
2231.31	36.6037
2231.55	34.7334
2231.78	34.7412
2232.02	32.8682
2232.26	35.6934
2232.5	33.82
2232.73	37.5865
2232.97	39.4734
2233.21	35.7184
2233.45	36.6649
2233.68	35.7301
2233.92	37.6183
2234.16	34.7995
2234.39	31.979
2234.63	31.9766
2234.87	35.7381
2235.11	33.8512
2235.34	35.7263
2235.58	38.5348
2235.82	31.0018
2236.06	31.0018
2236.29	34.7641
2236.53	31.944
2236.77	34.7668
2237	31.9459
2237.24	36.6501
2237.48	37.5991
2237.72	33.8422
2237.95	32.9131
2238.19	31.9843
2238.43	34.8225
2238.67	32.9466
2238.9	37.6682
2239.14	40.5081
2239.38	36.7488
2239.61	32.9769
2239.85	34.8602
2240.09	38.6279
2240.33	38.6166
2240.56	36.7212
2240.8	39.5443
2241.04	39.5605
2241.27	34.8578
2241.51	33.916
2241.75	32.974
2241.99	34.8633
2242.22	32.9775
2242.46	32.9798
2242.7	33.9267
2242.93	35.8184
2243.17	37.7067
2243.41	32.9845
2243.64	33.9235
2243.88	33.9178
2244.12	36.7458
2244.36	31.082
2244.59	33.9136
2244.83	31.0865
2245.07	32.0392
2245.3	33.9407
2245.54	38.677
2245.78	39.6306
2246.01	35.8565
2246.25	36.8091
2246.49	33.9788
2246.72	36.8217
2246.96	33.0407
2247.2	34.9375
2247.43	32.1032
2247.67	36.838
2247.91	36.8391
2248.14	40.6239
2248.38	35.8892
2248.62	34.94
2248.85	37.7762
2249.09	34.9348
2249.33	32.0936
2249.56	33.0379
2249.8	35.8821
2250.04	38.7253
2250.27	33.0455
2250.51	35.8799
2250.75	38.7109
2250.98	29.2425
2251.22	33.9638
2251.46	39.6306
2251.69	37.7335
2251.93	34.8945
2252.17	35.8407
2252.4	33.0074
2252.64	34.9034
2252.88	33.9639
2253.11	33.9741
2253.35	34.9386
2253.59	36.8456
2253.82	33.0663
2254.06	34.9688
2254.3	36.8704
2254.53	36.8769
2254.77	35.9332
2255.01	34.9851
2255.24	33.085
2255.48	34.9823
2255.72	29.2929
2255.95	38.7755
2256.19	34.0353
2256.42	33.0921
2256.66	34.995
2256.9	40.6932
2257.13	41.6483
2257.37	36.9092
2257.61	36.9146
2257.84	35.0209
2258.08	34.0747
2258.32	33.1264
2258.55	36.9259
2258.79	36.9278
2259.02	34.0813
2259.26	34.0856
2259.5	39.7908
2259.73	35.0431
2259.97	36.946
2260.2	35.0489
2260.44	34.1015
2260.68	36.0056
2260.91	43.6142
2261.15	35.0625
2261.39	36.0243
2261.62	35.08
2261.86	39.8383
2262.1	36.0341
2262.33	41.7462
2262.57	36.0391
2262.8	36.9955
2263.04	35.0987
2263.28	34.1537
2263.51	32.2571
2263.75	36.0777
2263.98	32.2771
2264.22	39.9177
2264.46	33.2548
2264.69	35.1743
2264.93	38.0476
2265.16	33.2823
2265.4	39.9736
2265.64	33.2939
2265.87	34.2497
2266.11	37.1163
2266.34	35.2025
2266.58	37.1042
2266.81	34.2306
2267.05	34.2216
2267.29	37.0765
2267.52	33.2531
2267.76	33.2476
2267.99	31.3339
2268.23	33.2338
2268.47	36.0882
2268.7	33.225
2268.94	36.0861
2269.17	29.4149
2269.41	37.0515
2269.65	33.2442
2269.88	35.1619
2270.12	33.2625
2270.35	32.3184
2270.59	36.1495
2270.82	37.1114
2271.06	31.3815
2271.3	36.1672
2271.53	39.0414
2271.77	35.221
2272	34.2691
2272.24	35.2316
2272.47	35.2346
2272.71	37.1482
2272.95	35.236
2273.18	34.2805
2273.42	32.3683
2273.65	35.2401
2273.89	40.9833
2274.12	37.1569
2274.36	39.0724
2274.6	34.2881
2274.83	38.1181
2275.07	35.2479
2275.3	30.4632
2275.54	35.2513
2275.77	34.2956
2276.01	32.379
2276.24	33.3409
2276.48	35.2639
2276.72	34.314
2276.95	36.2376
2277.18	37.2029
2277.42	36.252
2277.66	36.2634
2277.89	39.1547
2278.13	37.2499
2278.36	36.3051
2278.6	33.429
2278.83	34.3913
2279.07	35.3517
2279.3	33.4289
2279.54	32.4658
2279.78	36.3002
2280.01	38.2029
2280.24	35.3127
2280.48	32.4248
2280.72	34.3348
2280.95	35.2864
2281.19	38.1568
2281.42	32.4007
2281.66	35.2715
2281.89	37.1845
2282.13	34.3124
2282.36	37.1902
2282.6	35.2775
2282.83	31.4481
2283.07	34.3325
2283.3	36.2587
2283.54	33.3894
2283.77	35.3222
2284.01	37.2592
2284.24	32.4696
2284.48	34.4072
2284.71	36.3393
2284.95	36.343
2285.19	36.3509
2285.42	31.5471
2285.65	38.2855
2285.89	33.4741
2286.12	33.4664
2286.36	35.3768
2286.59	35.3751
2286.83	38.2629
2287.06	32.4963
2287.3	35.3985
2287.54	34.4489
2287.77	34.4535
2288	38.3094
2288.24	32.5387
2288.47	31.5724
2288.71	32.5303
2288.94	37.3403
2289.18	35.4072
2289.41	33.4705
2289.65	39.2311
2289.88	36.3312
2290.12	35.354
2290.35	35.3484
2290.59	34.3829
2290.82	37.2665
2291.06	37.2668
2291.29	37.2717
2291.53	37.281
2291.76	34.4066
2292	35.3762
2292.23	38.2694
2292.47	33.4621
2292.7	35.3937
2292.94	32.5122
2293.17	36.3722
2293.41	32.524
2293.64	33.492
2293.88	37.3503
2294.11	36.3881
2294.34	33.4935
2294.58	36.3799
2294.81	36.3737
2295.05	36.3662
2295.28	34.4341
2295.52	33.4656
2295.75	37.3121
2295.99	33.455
2296.22	35.3759
2296.46	40.1795
2296.69	33.4277
2296.93	31.5011
2297.16	33.4274
2297.39	40.1677
2297.63	34.3997
2297.86	35.3697
2298.1	29.6012
2298.33	35.3907
2298.57	32.5072
2298.8	38.2935
2299.04	34.445
2299.27	38.3099
2299.51	33.4959
2299.74	34.4658
2299.97	34.4687
2300.21	34.4676
2300.44	33.5025
2300.68	34.4657
2300.91	34.4692
2301.15	31.5798
2301.38	33.5134
2301.61	36.4121
2301.85	36.4141
2302.08	30.6227
2302.32	34.4821
2302.55	38.3391
2302.79	36.4057
2303.02	30.6152
2303.25	39.3
2303.49	37.3671
2303.72	37.3659
2303.96	35.4359
2304.19	36.404
2304.43	33.5136
2304.66	33.5184
2304.89	35.4529
2305.13	30.6285
2305.36	35.4636
2305.6	36.4332
2305.83	32.5699
2306.07	31.6057
2306.3	34.5083
2306.53	35.4785
2306.77	38.3791
2307	29.6802
2307.24	38.3783
2307.47	38.3765
2307.7	33.5401
2307.94	32.5689
2308.17	36.431
2308.41	37.3932
2308.64	33.525
2308.87	33.5244
2309.11	34.4915
2309.34	34.4961
2309.58	38.3674
2309.81	27.7423
2310.04	33.5528
2310.28	36.4613
2310.51	40.3338
2310.75	34.5299
2310.98	34.5284
2311.21	32.5895
2311.45	35.4825
2311.68	42.2272
2311.92	35.438
2312.15	36.3904
2312.38	27.6928
2312.62	39.2702
2312.85	36.3676
2313.08	37.3272
2313.32	34.4314
2313.55	33.4698
2313.79	40.2366
2314.02	34.4576
2314.25	37.3652
2314.49	36.4094
2314.72	31.5872
2314.95	33.5324
2315.19	37.4123
2315.42	35.4833
2315.66	35.4732
2315.89	34.4968
2316.12	37.3895
2316.36	33.5127
2316.59	35.4258
2316.82	39.2779
2317.06	34.4438
2317.29	34.4424
2317.52	35.4092
2317.76	37.342
2317.99	36.3855
2318.23	36.3915
2318.46	37.3443
2318.69	35.4061
2318.93	36.3663
2319.16	35.3946
2319.39	34.4228
2319.63	37.3123
2319.86	42.1325
2320.09	39.2341
2320.33	37.3038
2320.56	36.3393
2320.79	38.2683
2321.03	36.3413
2321.26	36.3462
2321.5	37.3171
2321.73	38.2891
2321.96	41.1942
2322.2	39.2733
2322.43	43.1505
2322.66	33.495
2322.9	42.1984
2323.13	41.2292
2323.36	43.164
2323.6	45.1003
2323.83	45.1024
2324.06	47.0389
2324.3	47.0399
2324.53	52.839
2324.76	47.0345
2325	47.0224
2325.23	58.6038
2325.46	55.6841
2325.7	60.4995
2325.93	67.2465
2326.16	71.0944
2326.4	88.4536
2326.63	104.84
2326.86	127.973
2327.09	165.565
2327.33	213.749
2327.56	302.408
2327.79	378.524
2328.03	390.028
2328.26	376.491
2328.49	301.33
2328.73	206.874
2328.96	152.901
2329.19	107.576
2329.43	99.8468
2329.66	84.4074
2329.89	76.6935
2330.13	65.132
2330.36	58.3973
2330.59	54.5398
2330.82	50.6822
2331.06	49.7138
2331.29	40.0814
2331.52	42.0097
2331.76	40.0889
2331.99	37.2048
2332.22	43.9586
2332.46	34.3122
2332.69	32.3783
2332.92	33.336
2333.16	46.8115
2333.39	35.2511
2333.62	34.2833
2333.85	35.2414
2334.09	37.1624
2334.32	36.1942
2334.55	35.2252
2334.79	38.1012
2335.02	37.133
2335.25	35.205
2335.48	36.1648
2335.72	33.2773
2335.95	36.1629
2336.18	31.3561
2336.41	35.2013
2336.65	33.2737
2336.88	39.0401
2337.11	37.1147
2337.34	39.0356
2337.58	37.1101
2337.81	36.1465
2338.04	39.0267
2338.28	36.1396
2338.51	38.0597
2338.74	36.1349
2338.97	37.0943
2339.21	36.1339
2339.44	36.1341
2339.67	31.3272
2339.91	39.9763
2340.14	37.089
2340.37	33.2398
2340.6	36.116
2340.84	38.0304
2341.07	38.9817
2341.3	35.1293
2341.53	35.1173
2341.77	36.0627
2342	29.3369
2342.23	31.249
2342.46	32.2019
2342.7	40.8253
2342.93	36.0267
2343.16	36.9825
2343.39	32.1881
2343.63	33.1464
2343.86	33.1441
2344.09	40.8104
2344.32	34.1005
2344.56	39.8539
2344.79	34.1027
2345.02	36.977
2345.25	35.0568
2345.49	33.1354
2345.72	33.1293
2345.95	35.0361
2346.18	34.071
2346.41	35.0217
2346.65	37.8914
2346.88	31.1854
2347.11	35.9709
2347.34	32.1372
2347.58	36.921
2347.81	35.9622
2348.04	38.8346
2348.27	33.0915
2348.5	34.0525
2348.74	33.0969
2348.97	37.8845
2349.2	33.0923
2349.43	33.0861
2349.67	34.9853
2349.9	36.8828
2350.13	37.8197
2350.36	32.0629
2350.59	34.9033
2350.83	35.8106
2351.06	34.7819
2351.29	36.743
2351.52	30.1743
2351.75	36.907
2351.99	34.9194
2352.22	35.8339
2352.45	32.9731
2352.68	31.0674
2352.91	33.9096
2353.15	32.9247
2353.38	32.9006
2353.61	31.9557
2353.84	34.8101
2354.07	33.8502
2354.31	33.8501
2354.54	32.8956
2354.77	29.0925
2355	33.8634
2355.23	29.0972
2355.47	27.189
2355.7	37.6661
2355.93	37.6618
2356.16	32.894
2356.39	30.0304
2356.63	35.7325
2356.86	34.7631
2357.09	35.7004
2357.32	34.7413
2357.55	34.7346
2357.79	36.6297
2358.02	33.7718
2358.25	38.5187
2358.48	39.4644
2358.71	29.9574
2358.94	29.0001
2359.18	35.6466
2359.41	32.7935
2359.64	36.5905
2359.87	38.485
2360.1	32.7798
2360.33	37.5192
2360.57	35.6113
2360.8	36.5513
2361.03	39.3885
2361.26	39.3785
2361.49	38.4198
2361.72	36.5133
2361.96	32.712
2362.19	33.6503
2362.42	31.7454
2362.65	35.5246
2362.88	33.6221
2363.11	32.6678
2363.34	31.7147
2363.58	36.441
2363.81	36.4359
2364.04	34.5389
2364.27	34.534
2364.5	35.4743
2364.73	29.7935
2364.97	35.4622
