#Acq. time (s)=	60
#Accumulations=	2
#Range (cm-¹)=	100...4000
#Windows=	1
#Auto scanning=	Off
#Autofocus=	Off
#Macrospot=	Off
#AutoExposure=	Off
#Spike filter=	Multiple accum.
#Delay time (s)=	2
#Binning=	1
#Readout mode=	Signal
#DeNoise=	Off
#ICS correction=	On
#Dark correction=	Off
#Inst. Process=	Off
#Detector Gain=	Best Dynamic
#Detector ADC=	50 kHz HS
#Detector temperature (°C)=	-60.09
#Instrument=	LabRAM HR Evol
#Detector=	SIN-EM FIVIS
#Objective=	x100_VIS
#Grating=	150 (500nm)
#ND Filter=	100%
#Laser=	633nm_Edge
#Hole=	49.98
#Temperature=	0
#Range=	Visible
#StageXY=	75x50mm Scan+
#StageZ=	Z motor
#X (µm)=	0
#Y (µm)=	0
#Z (µm)=	-272.4
#Full time(mm:ss)=	2:04
#Project=	21_11_04
#Sample=	BU19w
#Site=	
#Title=	BU19w-E-FF11-FI06-V_150 (500nm)_633nm_Edge_100%_x100_VIS_H50um_60sX2
#Remark=	
#Date=	04.11.2021 15:52
#Acquired=	04.11.2021 15:52:12
102.881	186.39
106.139	179.796
109.397	173.208
112.653	172.341
115.908	156.183
119.161	145.725
122.414	164.898
125.664	160.168
128.914	166.917
132.162	180.347
135.409	189.942
138.654	186.116
141.898	180.378
145.14	182.313
148.383	179.459
151.622	210.119
154.861	219.752
158.098	267.699
161.335	244.786
164.569	195.984
167.801	166.311
171.034	143.322
174.264	128.942
177.494	120.292
180.721	115.467
183.949	117.323
187.173	111.505
190.396	120.979
193.62	110.37
196.84	103.607
200.061	109.283
203.279	110.231
206.496	112.129
209.712	115.921
212.926	121.62
216.139	140.674
219.352	152.086
222.562	202.567
225.772	255.84
228.979	316.584
232.185	320.183
235.392	284.829
238.595	210.549
241.797	165.797
244.999	168.628
248.199	152.452
251.397	153.355
254.595	164.691
257.791	159.902
260.985	175.048
264.178	159.838
267.371	151.28
270.561	161.701
273.75	171.18
276.939	192.994
280.125	180.651
283.31	173.982
286.494	154.983
289.678	152.091
292.859	148.236
296.039	140.599
299.217	152.844
302.396	166.019
305.572	175.391
308.746	202.715
311.919	272.529
315.093	375.337
318.263	493.169
321.433	527.033
324.601	488.274
327.768	371.217
330.935	271.2
334.099	230.617
337.262	205.126
340.423	185.3
343.584	178.675
346.743	185.23
349.902	185.189
353.058	202.084
356.213	201.999
359.367	192.492
362.52	189.573
365.671	162.205
368.821	136.747
371.971	131.983
375.119	121.581
378.265	116.827
381.41	116.767
384.553	110.172
387.696	104.559
390.837	119.611
393.976	117.808
397.116	120.723
400.253	124.632
403.389	127.592
406.524	130.554
409.657	134.465
412.789	142.138
415.92	152.621
419.05	155.573
422.178	173.62
425.305	203.884
428.431	212.212
431.555	226.131
434.678	222.097
437.8	199.221
440.921	191.452
444.04	181.811
447.158	184.37
450.275	189.714
453.391	205.35
456.505	197.614
459.618	166.603
462.73	141.292
465.84	125.377
468.949	116.002
472.057	113.175
475.164	111.311
478.27	104.806
481.374	115.063
484.477	109.477
487.579	119.732
490.679	122.537
493.778	125.352
496.876	128.158
499.973	136.565
503.068	147.791
506.162	159.019
509.255	170.258
512.346	181.522
515.436	174.128
518.525	176.1
521.613	169.697
524.7	181.08
527.785	173.775
530.869	173.988
533.952	165.774
537.033	135.907
540.113	141.715
543.192	127.715
546.27	113.665
549.347	115.589
552.423	113.751
555.497	110.016
558.568	107.173
561.64	100.504
564.711	96.6558
567.78	90.9055
570.848	95.4943
573.915	92.5345
576.979	96.1327
580.043	105.339
583.107	107.065
586.169	109.731
589.228	131.072
592.287	147.765
595.345	161.662
598.402	147.66
601.458	141.195
604.511	138.499
607.565	133.94
610.617	137.806
613.667	140.761
616.716	138.154
619.764	143.044
622.811	118.846
625.856	111.528
628.9	106.01
631.944	112.688
634.986	98.5716
638.026	107.988
641.066	114.534
644.104	116.306
647.14	107.746
650.177	118.004
653.211	112.231
656.244	107.392
659.276	98.8184
662.308	91.2001
665.336	90.1512
668.365	80.7098
671.393	70.3947
674.418	74.1356
677.443	71.3424
680.467	76.0015
683.489	62.0337
686.511	66.7335
689.53	63.0551
692.549	62.1897
695.567	66.0059
698.582	61.3927
701.598	66.1488
704.611	72.7878
707.624	64.3874
710.635	68.1844
713.646	66.2785
716.655	65.3171
719.662	68.1124
722.669	63.4016
725.674	71.8164
728.679	65.1894
731.681	66.0682
734.683	60.3912
737.683	60.3361
740.683	57.4798
743.681	58.3665
746.678	62.9934
749.673	63.8877
752.669	70.3969
755.661	64.7829
758.654	62.9335
761.645	67.6484
764.635	66.7933
767.623	65.0165
770.611	70.7301
773.597	63.3284
776.582	62.4731
779.565	68.1845
782.549	65.4198
785.53	63.5804
788.511	71.1572
791.489	68.3604
794.466	69.3211
797.444	66.4957
800.419	68.3676
803.394	60.7996
806.366	63.5927
809.339	68.2637
812.309	63.504
815.278	69.0807
818.247	66.1876
821.214	65.1723
824.18	65.0922
827.145	66.8808
830.108	62.1438
833.072	71.4671
836.033	69.6037
838.992	70.5714
841.952	69.7068
844.909	68.8296
847.865	68.894
850.822	72.7238
853.776	78.4472
856.728	86.0733
859.681	80.5383
862.631	83.479
865.58	88.3171
868.528	88.4381
871.476	97.0615
874.422	101.877
877.366	95.2939
880.311	97.2327
883.253	97.2607
886.194	102.014
889.134	105.8
892.074	102.928
895.012	108.582
897.948	105.664
900.883	100.818
903.818	107.314
906.751	100.572
909.683	96.6658
912.614	105.015
915.543	101.12
918.473	104.798
921.4	99.106
924.326	109.424
927.251	118.829
930.174	114.206
933.098	130.264
936.019	141.712
938.94	158.926
941.859	171.499
944.777	186.961
947.693	197.772
950.61	217.179
953.525	214.733
956.438	211.291
959.35	212.566
962.261	216.681
965.171	224.575
968.08	245.895
970.988	297.893
973.894	325.878
976.801	353.755
979.705	409.284
982.608	424.38
985.51	400.107
988.411	394.991
991.311	333.415
994.209	281.49
997.107	269.788
1000	245.734
1002.9	240.813
1005.79	234.994
1008.68	248.3
1011.58	256.019
1014.47	280.001
1017.36	290.623
1020.25	286.962
1023.13	273.833
1026.02	232.045
1028.9	211.257
1031.79	179.873
1034.67	178.21
1037.55	165.016
1040.43	153.708
1043.31	152.977
1046.19	155.156
1049.07	139.874
1051.94	140.997
1054.82	126.585
1057.69	123.772
1060.56	113.152
1063.44	119.984
1066.31	123.847
1069.17	126.739
1072.04	111.184
1074.91	133.484
1077.77	157.691
1080.64	162.466
1083.5	174.992
1086.37	209.795
1089.23	244.612
1092.09	261.003
1094.95	288.037
1097.8	285.032
1100.66	238.499
1103.52	208.469
1106.37	177.583
1109.22	165.99
1112.08	149.631
1114.93	144.04
1117.78	130.689
1120.63	141.578
1123.48	127.128
1126.32	131.166
1129.17	143.05
1132.01	152.028
1134.86	165.927
1137.7	178.867
1140.54	208.54
1143.38	224.486
1146.22	288.547
1149.06	304.519
1151.89	294.842
1154.73	214.158
1157.56	172.782
1160.4	139.253
1163.23	115.527
1166.06	107.558
1168.89	96.6649
1171.72	93.6312
1174.55	87.6606
1177.38	90.5023
1180.2	71.8492
1183.03	76.683
1185.85	66.896
1188.67	72.7562
1191.49	67.88
1194.31	71.827
1197.13	67.9629
1199.95	64.1187
1202.77	63.2358
1205.58	59.4126
1208.4	57.5565
1211.21	60.6203
1214.02	59.7577
1216.84	63.851
1219.65	66.9772
1222.46	57.1925
1225.27	59.3251
1228.07	56.4672
1230.88	56.5918
1233.68	60.7195
1236.49	54.7971
1239.29	55.8899
1242.09	52.9318
1244.89	52.9795
1247.69	56.0424
1250.49	56.06
1253.29	61.1272
1256.08	61.1212
1258.88	61.0971
1261.67	58.0276
1264.47	58.9957
1267.26	53.9186
1270.05	61.9315
1272.84	84.0011
1275.63	113.055
1278.42	81.8095
1281.2	62.668
1283.99	58.6009
1286.77	56.5515
1289.56	52.5121
1292.34	61.4824
1295.12	55.4694
1297.9	58.4619
1300.68	57.4622
1303.46	50.4833
1306.23	61.5194
1309.01	59.5764
1311.78	58.659
1314.56	52.725
1317.33	51.8041
1320.1	51.8934
1322.87	56.0268
1325.64	49.0572
1328.41	48.1428
1331.18	53.3186
1333.94	52.3986
1336.71	52.4897
1339.47	53.5954
1342.24	48.5536
1345	51.6765
1347.76	52.752
1350.52	50.7507
1353.28	53.8714
1356.04	54.9343
1358.79	53.9348
1361.55	50.8698
1364.3	60.1261
1367.06	54.9831
1369.81	56.0021
1372.56	59.0727
1375.31	72.416
1378.06	129.913
1380.81	121.671
1383.56	70.3162
1386.3	56.9579
1389.05	58.9963
1391.79	60.0211
1394.53	57.9794
1397.28	53.9162
1400.02	65.2604
1402.76	64.2762
1405.5	56.0922
1408.23	52.0197
1410.97	58.2544
1413.71	58.314
1416.44	55.2801
1419.17	62.5834
1421.91	54.3726
1424.64	52.3681
1427.37	56.5874
1430.1	50.4241
1432.83	50.4888
1435.55	57.8489
1438.28	53.747
1441.01	51.7194
1443.73	58.0655
1446.45	60.2293
1449.17	56.0899
1451.89	58.2245
1454.62	51.9559
1457.33	53.0211
1460.05	51.9786
1462.77	51.9791
1465.48	58.274
1468.2	58.2651
1470.91	56.1577
1473.63	54.0537
1476.34	45.6586
1479.05	53.0165
1481.76	57.2281
1484.47	47.7923
1487.17	52.0165
1489.88	49.9431
1492.59	59.4474
1495.29	61.6052
1497.99	53.2284
1500.7	52.2279
1503.4	55.4534
1506.1	55.5186
1508.8	57.7104
1511.5	52.4879
1514.19	55.7526
1516.89	53.7138
1519.59	55.9342
1522.28	54.9607
1524.97	57.1972
1527.67	51.9399
1530.36	53.1056
1533.05	58.584
1535.74	54.3806
1538.42	60.9287
1541.11	57.7727
1543.8	55.6701
1546.48	62.1897
1549.16	54.6291
1551.85	58.9484
1554.53	57.8362
1557.21	61.0352
1559.89	56.6836
1562.57	60.974
1565.25	57.7075
1567.93	58.7552
1570.6	54.4136
1573.28	57.6165
1575.95	55.4406
1578.62	60.8186
1581.29	59.7433
1583.97	59.7484
1586.64	65.142
1589.3	53.3111
1591.97	63.0273
1594.64	65.2144
1597.3	62.021
1599.97	56.6672
1602.63	55.6361
1605.3	61.0979
1607.96	60.0893
1610.62	55.8371
1613.28	51.585
1615.94	60.382
1618.59	60.4982
1621.25	58.4309
1623.91	62.9193
1626.56	58.6527
1629.21	54.3691
1631.87	67.6713
1634.52	60.0629
1637.17	59.0394
1639.82	63.4912
1642.47	59.1147
1645.12	66.9042
1647.76	63.6316
1650.41	61.4552
1653.05	60.3806
1655.7	62.6207
1658.34	62.6359
1660.98	61.5374
1663.62	60.4373
1666.26	62.6589
1668.9	60.4427
1671.54	58.2253
1674.18	61.5529
1676.81	62.654
1679.45	61.5422
1682.08	59.3088
1684.71	63.7147
1687.34	62.5779
1689.98	60.3403
1692.61	63.648
1695.23	58.1141
1697.86	63.6705
1700.49	59.2943
1703.12	61.6693
1705.74	66.2732
1708.36	59.7202
1710.99	66.3632
1713.61	58.5314
1716.23	61.9261
1718.85	69.8569
1721.47	64.3406
1724.09	56.5438
1726.7	63.3232
1729.32	61.1459
1731.94	64.5788
1734.55	70.2653
1737.16	63.5811
1739.77	64.7685
1742.39	60.3204
1745	69.4066
1747.61	64.9453
1750.21	67.2504
1752.82	71.8148
1755.43	67.3265
1758.03	65.0849
1760.64	68.4924
1763.24	67.371
1765.84	60.5904
1768.44	68.5365
1771.05	67.4242
1773.64	64.0459
1776.24	67.4768
1778.84	65.2487
1781.44	68.704
1784.03	61.9404
1786.63	63.1331
1789.22	71.1732
1791.81	63.2721
1794.41	73.6161
1797	65.705
1799.59	70.3711
1802.18	70.4674
1804.76	67.1237
1807.35	67.2105
1809.94	69.5851
1812.52	67.3567
1815.11	70.8869
1817.69	72.1199
1820.27	66.4197
1822.85	66.4937
1825.43	72.3579
1828.01	67.8048
1830.59	70.2079
1833.17	67.968
1835.74	68.0574
1838.32	64.6375
1840.89	74.0249
1843.47	76.4253
1846.04	65.9808
1848.61	69.5397
1851.18	66.0882
1853.75	67.2939
1856.32	67.3431
1858.89	66.2275
1861.45	74.5051
1864.02	71.0535
1866.58	68.7808
1869.15	70.0251
1871.71	72.437
1874.27	73.6642
1876.83	65.4578
1879.39	71.3969
1881.95	74.9831
1884.51	67.931
1887.07	75.0559
1889.63	67.9768
1892.18	66.7973
1894.74	76.2564
1897.29	69.1714
1899.84	68.0109
1902.39	75.1618
1904.94	71.6793
1907.49	70.5635
1910.04	69.466
1912.59	75.5191
1915.14	69.6924
1917.68	74.5715
1920.23	72.2145
1922.77	71.0717
1925.32	66.3589
1927.86	77.1953
1930.4	72.4782
1932.94	76.1439
1935.48	67.8089
1938.02	72.6671
1940.56	67.9105
1943.09	65.5474
1945.63	75.2096
1948.16	71.6349
1950.7	72.8644
1953.23	71.6779
1955.76	70.487
1958.29	76.5229
1960.82	77.7366
1963.35	72.9199
1965.88	77.7419
1968.41	77.7305
1970.93	76.5059
1973.46	75.2789
1975.98	72.8501
1978.51	71.6266
1981.03	71.6056
1983.55	81.2109
1986.07	71.5684
1988.59	65.541
1991.11	84.7674
1993.63	72.7336
1996.15	78.7379
1998.66	67.9185
2001.18	75.1354
2003.69	78.7526
2006.2	73.9627
2008.72	83.6092
2011.23	70.4055
2013.74	75.2499
2016.25	74.0765
2018.76	69.277
2021.27	80.1455
2023.77	81.3914
2026.28	82.648
2028.78	82.7062
2031.29	83.9841
2033.79	75.5978
2036.29	86.5662
2038.79	84.2262
2041.3	69.7533
2043.79	75.8972
2046.29	79.6266
2048.79	83.3667
2051.29	84.6757
2053.78	81.0757
2056.28	81.1529
2058.77	82.4651
2061.27	82.5571
2063.76	75.3029
2066.25	76.6156
2068.74	80.3794
2071.23	81.6925
2073.72	85.4691
2076.21	75.7077
2078.69	79.4781
2081.18	82.0183
2083.66	83.3206
2086.15	83.3811
2088.63	87.1405
2091.11	81.026
2093.59	79.8658
2096.07	84.9147
2098.55	86.2538
2101.03	86.3565
2103.51	86.4651
2105.99	84.0873
2108.46	85.4505
2110.94	95.5678
2113.41	84.4538
2115.89	85.8385
2118.36	85.9722
2120.83	86.1042
2123.3	84.9744
2125.77	86.3595
2128.24	90.2691
2130.71	82.8053
2133.17	80.379
2135.64	85.5448
2138.11	90.7178
2140.57	84.4667
2143.03	83.287
2145.49	85.9149
2147.96	87.2644
2150.42	87.3285
2152.88	92.4892
2155.34	84.8841
2157.79	87.4808
2160.25	91.3502
2162.71	91.379
2165.16	88.8414
2167.62	82.4595
2170.07	82.4756
2172.52	82.5059
2174.97	88.936
2177.43	87.684
2179.88	80.0121
2182.32	87.6963
2184.77	87.6857
2187.22	88.9645
2189.67	88.975
2192.11	83.8741
2194.56	101.83
2197	87.7789
2199.44	85.266
2201.89	87.8916
2204.33	90.5302
2206.77	90.6106
2209.21	93.2735
2211.64	83.0706
2214.08	90.898
2216.52	89.717
2218.95	80.7826
2221.39	89.9449
2223.82	93.9471
2226.26	84.9842
2228.69	85.0924
2231.12	90.4036
2233.55	90.5185
2235.98	91.9371
2238.41	85.5246
2240.84	90.8601
2243.26	84.431
2245.69	91.0937
2248.12	87.2734
2250.54	88.6975
2252.96	88.806
2255.39	91.5494
2257.81	87.7125
2260.23	90.4671
2262.65	97.1865
2265.07	93.3187
2267.49	93.408
2269.9	92.161
2272.32	92.2301
2274.74	92.2903
2277.15	101.646
2279.57	84.4138
2281.98	92.4218
2284.39	87.1211
2286.8	93.782
2289.21	92.4658
2291.62	85.824
2294.03	92.4867
2296.44	91.1732
2298.84	89.8745
2301.25	93.9084
2303.66	95.2944
2306.06	94.032
2308.46	100.789
2310.87	99.554
2313.27	95.6471
2315.67	103.796
2318.07	99.9063
2320.47	94.6619
2322.87	100.156
2325.26	93.5592
2327.66	92.3385
2330.06	92.4665
2332.45	92.6051
2334.85	95.455
2337.24	94.2484
2339.63	97.1133
2342.02	104.079
2344.41	91.9922
2346.8	94.8985
2349.19	99.1685
2351.58	88.3787
2353.97	91.2668
2356.35	90.0216
2358.74	92.895
2361.12	99.868
2363.51	93.0772
2365.89	101.463
2368.27	98.8093
2370.65	104.446
2373.03	100.398
2375.41	103.27
2377.79	90.8852
2380.17	93.7332
2382.55	96.5767
2384.92	102.186
2387.3	102.232
2389.67	103.658
2392.05	93.937
2394.42	113.438
2396.79	100.912
2399.16	96.7348
2401.53	102.304
2403.9	92.5505
2406.27	107.849
2408.64	89.7745
2411.01	102.371
2413.37	99.6913
2415.74	98.484
2418.1	98.7674
2420.47	101.784
2422.83	99.0861
2425.19	96.3278
2427.55	106.286
2429.91	107.83
2432.27	99.5053
2434.63	103.89
2436.99	108.296
2439.34	97.118
2441.7	101.522
2444.05	100.251
2446.41	97.5524
2448.76	100.552
2451.11	102.133
2453.47	102.281
2455.82	95.2658
2458.17	111.187
2460.51	95.5438
2462.86	111.51
2465.21	107.345
2467.56	101.72
2469.9	116.301
2472.25	107.768
2474.59	99.2149
2476.94	115.301
2479.28	98.0259
2481.62	112.688
2483.96	99.72
2486.3	108.569
2488.64	97.011
2490.98	104.411
2493.32	94.2835
2495.65	114.872
2497.99	100.34
2500.32	115.099
2502.66	100.53
2504.99	100.618
2507.32	112.461
2509.66	103.719
2511.99	102.318
2514.32	111.221
2516.65	114.238
2518.98	108.421
2521.3	107.033
2523.63	102.687
2525.96	108.677
2528.28	99.882
2530.61	114.766
2532.93	108.937
2535.25	119.424
2537.57	101.721
2539.89	116.688
2542.22	95.9759
2544.53	109.482
2546.85	112.588
2549.17	105.248
2551.49	108.353
2553.8	109.967
2556.12	105.579
2558.43	101.175
2560.75	101.282
2563.06	110.406
2565.37	101.518
2567.68	107.668
2569.99	115.349
2572.3	109.462
2574.61	117.16
2576.92	112.76
2579.23	96.215
2581.53	108.442
2583.84	114.592
2586.14	110.111
2588.45	114.731
2590.75	114.761
2593.05	101.132
2595.35	114.895
2597.66	130.223
2599.96	113.554
2602.26	119.73
2604.55	106.068
2606.85	112.237
2609.15	113.829
2611.44	116.928
2613.74	118.502
2616.03	117.018
2618.33	123.196
2620.62	115.592
2622.91	117.178
2625.2	114.176
2627.49	112.709
2629.78	122.008
2632.07	120.598
2634.36	108.433
2636.64	110.123
2638.93	119.556
2641.22	113.56
2643.5	118.384
2645.78	118.584
2648.07	112.558
2650.35	128.28
2652.63	116.023
2654.91	117.713
2657.19	113.139
2659.47	111.674
2661.75	121.139
2664.03	127.477
2666.3	125.985
2668.58	116.691
2670.85	124.634
2673.13	116.935
2675.4	124.974
2677.67	107.911
2679.95	120.829
2682.22	113.197
2684.49	113.453
2686.76	118.483
2689.03	121.935
2691.29	117.381
2693.56	125.601
2695.83	125.692
2698.09	138.637
2700.36	125.957
2702.62	108.42
2704.89	118.172
2707.15	132.767
2709.41	129.663
2711.67	124.937
2713.93	129.893
2716.19	125.205
2718.45	107.538
2720.7	117.355
2722.96	135.282
2725.22	117.543
2727.47	122.488
2729.73	125.803
2731.98	129.096
2734.23	117.783
2736.49	114.575
2738.74	130.866
2740.99	119.551
2743.24	121.25
2745.49	124.591
2747.73	129.58
2749.98	131.338
2752.23	125.015
2754.47	120.275
2756.72	130.229
2758.96	140.178
2761.21	123.866
2763.45	137.106
2765.69	115.874
2767.93	140.674
2770.17	124.328
2772.41	126.101
2774.65	113.045
2776.89	129.719
2779.13	121.624
2781.36	131.775
2783.6	123.693
2785.84	127.231
2788.07	125.777
2790.3	130.987
2792.54	132.864
2794.77	121.35
2797	131.569
2799.23	133.421
2801.46	128.542
2803.69	130.368
2805.92	128.819
2808.14	140.745
2810.37	118.944
2812.59	122.428
2814.82	141.108
2817.04	120.917
2819.27	124.395
2821.49	131.269
2823.71	126.294
2825.93	124.705
2828.15	126.504
2830.37	130
2832.59	136.898
2834.81	128.483
2837.03	126.871
2839.24	133.779
2841.46	132.171
2843.67	125.444
2845.89	125.556
2848.1	132.508
2850.31	130.926
2852.53	139.64
2854.74	132.951
2856.95	126.248
2859.16	135.002
2861.37	130.017
2863.57	144.004
2865.78	123.502
2867.99	135.807
2870.19	136.018
2872.4	120.607
2874.6	127.747
2876.81	119.245
2879.01	126.416
2881.21	131.872
2883.41	133.856
2885.61	123.582
2887.81	130.824
2890.01	131.046
2892.21	124.217
2894.41	129.717
2896.6	135.26
2898.8	139.059
2901	144.636
2903.19	135.981
2905.38	127.288
2907.58	131.045
2909.77	133.02
2911.96	136.753
2914.15	138.696
2916.34	135.263
2918.53	130.044
2920.72	135.593
2922.91	130.368
2925.09	141.35
2927.28	137.947
2929.47	130.926
2931.65	134.74
2933.83	138.539
2936.02	126.011
2938.2	140.659
2940.38	138.972
2942.56	139.104
2944.74	131.945
2946.92	133.856
2949.1	121.192
2951.28	141.344
2953.46	126.845
2955.63	126.935
2957.81	137.989
2959.98	134.429
2962.16	121.719
2964.33	145.627
2966.5	142.086
2968.68	142.213
2970.85	142.344
2973.02	135.124
2975.19	142.612
2977.36	146.43
2979.52	150.254
2981.69	143.027
2983.86	132.108
2986.03	148.921
2988.19	141.706
2990.36	136.334
2992.52	129.099
2994.68	138.579
2996.85	142.511
2999.01	140.866
3001.17	146.699
3003.33	137.584
3005.49	139.695
3007.65	141.809
3009.8	155.212
3011.96	153.556
3014.12	144.374
3016.27	146.518
3018.43	148.679
3020.58	139.463
3022.74	151.105
3024.89	139.918
3027.04	153.456
3029.19	151.747
3031.34	153.844
3033.49	146.36
3035.64	152.248
3037.79	146.622
3039.94	144.871
3042.09	143.1
3044.23	143.232
3046.38	151.055
3048.52	141.556
3050.67	151.314
3052.81	157.228
3054.95	163.165
3057.09	159.451
3059.24	161.527
3061.38	159.732
3063.51	157.934
3065.65	181.349
3067.79	144.623
3069.93	156.407
3072.07	164.323
3074.2	164.472
3076.34	172.418
3078.47	160.88
3080.61	166.884
3082.74	157.27
3084.87	171.134
3087	171.332
3089.14	149.99
3091.27	171.801
3093.39	170.095
3095.52	168.404
3097.65	180.517
3099.78	161.049
3101.91	165.279
3104.03	179.454
3106.16	185.748
3108.28	180.128
3110.41	170.509
3112.53	180.842
3114.65	183.193
3116.77	199.602
3118.89	195.975
3121.01	184.299
3123.13	182.675
3125.25	195.213
3127.37	185.518
3129.49	187.988
3131.61	192.527
3133.72	178.701
3135.84	191.418
3137.95	202.13
3140.06	202.587
3142.18	188.599
3144.29	203.448
3146.4	179.019
3148.51	206.327
3150.62	194.233
3152.73	202.858
3154.84	205.251
3156.95	195.118
3159.06	193.315
3161.16	206.16
3163.27	202.277
3165.37	200.459
3167.48	204.926
3169.58	192.554
3171.69	201.273
3173.79	212.087
3175.89	212.307
3177.99	204.041
3180.09	219.017
3182.19	214.938
3184.29	208.724
3186.39	196.131
3188.49	208.936
3190.58	206.956
3192.68	198.629
3194.77	220.064
3196.87	235.206
3198.96	214.221
3201.06	227.424
3203.15	204.292
3205.24	211.092
3207.33	209.369
3209.42	196.877
3211.51	186.497
3213.6	206.333
3215.69	185.134
3217.78	202.887
3219.86	194.595
3221.95	208.056
3224.04	201.921
3226.12	193.583
3228.2	196.16
3230.29	189.948
3232.37	192.524
3234.45	192.864
3236.53	199.824
3238.61	182.5
3240.7	196.167
3242.77	194.347
3244.85	183.661
3246.93	179.553
3249.01	191.068
3251.08	184.638
3253.16	164.73
3255.23	162.679
3257.31	180.835
3259.38	190.122
3261.46	179.167
3263.53	177.228
3265.6	157.229
3267.67	173.596
3269.74	182.967
3271.81	165.191
3273.88	170.027
3275.95	170.189
3278.02	188.662
3280.08	172.83
3282.15	166.131
3284.21	168.595
3286.28	166.468
3288.34	173.527
3290.41	175.993
3292.47	171.547
3294.53	164.783
3296.59	178.765
3298.65	167.384
3300.71	165.262
3302.77	167.734
3304.83	163.268
3306.89	175.02
3308.95	177.506
3311	177.664
3313.06	156.891
3315.11	173.328
3317.17	175.81
3319.22	159.673
3321.27	173.844
3323.33	157.704
3325.38	174.271
3327.43	179.19
3329.48	151.282
3331.53	182.081
3333.58	161.232
3335.63	156.8
3337.67	164.164
3339.72	152.563
3341.77	171.691
3343.81	150.533
3345.86	155.433
3347.9	167.424
3349.95	155.696
3351.99	179.625
3354.03	163.109
3356.07	163.289
3358.11	168.247
3360.15	142.153
3362.19	175.806
3364.23	152.051
3366.27	178.575
3368.31	169.166
3370.34	152.535
3372.38	157.491
3374.42	157.629
3376.45	157.75
3378.48	167.503
3380.52	155.561
3382.55	160.492
3384.58	155.765
3386.61	141.362
3388.64	155.952
3390.68	127.004
3392.7	163.377
3394.73	168.325
3396.76	153.906
3398.79	146.745
3400.82	163.833
3402.84	156.63
3404.87	144.554
3406.89	147.057
3408.92	161.718
3410.94	152.046
3412.96	152.105
3414.98	154.599
3417	159.534
3419.03	154.723
3421.05	166.965
3423.06	149.953
3425.08	147.568
3427.1	164.72
3429.12	150.16
3431.14	150.252
3433.15	135.684
3435.17	157.805
3437.18	143.243
3439.2	150.723
3441.21	172.935
3443.22	163.283
3445.23	151.177
3447.25	146.448
3449.26	149.095
3451.27	144.346
3453.28	142.074
3455.28	159.61
3457.29	135.088
3459.3	152.702
3461.31	162.919
3463.31	150.748
3465.32	148.518
3467.32	143.78
3469.33	154.043
3471.33	149.279
3473.33	159.502
3475.34	162.252
3477.34	137.306
3479.34	160.223
3481.34	132.666
3483.34	137.921
3485.34	153.324
3487.33	148.463
3489.33	161.373
3491.33	161.593
3493.32	149.064
3495.32	151.793
3497.32	157.073
3499.31	149.569
3501.3	147.158
3503.3	147.282
3505.29	149.97
3507.28	150.071
3509.27	147.576
3511.26	145.06
3513.25	137.403
3515.24	147.723
3517.23	155.475
3519.22	158.091
3521.2	142.707
3523.19	147.893
3525.18	147.948
3527.16	150.582
3529.15	140.315
3531.13	158.416
3533.11	132.762
3535.1	148.369
3537.08	164.031
3539.06	161.648
3541.04	133.34
3543.02	141.241
3545	143.956
3546.98	144.072
3548.96	157.163
3550.93	159.849
3552.91	152.061
3554.89	133.908
3556.86	141.778
3558.84	147.064
3560.81	157.577
3562.78	149.872
3564.76	126.516
3566.73	152.745
3568.7	152.928
3570.67	163.55
3572.64	153.239
3574.61	156.033
3576.58	153.597
3578.55	153.801
3580.52	154.019
3582.48	162.157
3584.45	157.119
3586.41	144.13
3588.38	146.99
3590.35	152.509
3592.31	152.73
3594.27	139.651
3596.23	139.854
3598.2	140.049
3600.16	140.227
3602.12	148.429
3604.08	153.97
3606.04	121.979
3608	143.583
3609.95	151.789
3611.91	143.874
3613.87	138.648
3615.83	136.083
3617.78	136.216
3619.74	136.331
3621.69	141.816
3623.64	120.253
3625.6	141.918
3627.55	147.372
3629.5	128.479
3631.45	128.498
3633.4	142.053
3635.35	152.923
3637.3	142.162
3639.25	136.832
3641.2	145.084
3643.15	142.509
3645.09	139.932
3647.04	148.264
3648.98	142.858
3650.93	142.927
3652.87	126.666
3654.82	134.901
3656.76	134.963
3658.7	143.206
3660.64	140.537
3662.58	135.125
3664.53	124.258
3666.47	148.912
3668.4	127.122
3670.34	138.124
3672.28	138.19
3674.22	127.332
3676.16	141.136
3678.09	154.98
3680.03	141.408
3681.96	136.071
3683.9	122.479
3685.83	133.673
3687.76	158.699
3689.69	114.701
3691.63	139.777
3693.56	134.418
3695.49	134.578
3697.42	154.212
3699.35	148.854
3701.28	129.556
3703.2	138.08
3705.13	152.237
3707.06	138.465
3708.98	127.453
3710.91	141.652
3712.83	130.61
3714.76	133.582
3716.68	119.656
3718.6	133.876
3720.53	134.013
3722.45	128.495
3724.37	142.745
3726.29	140.038
3728.21	137.328
3730.13	137.448
3732.05	137.581
3733.97	143.392
3735.88	137.845
3737.8	132.282
3739.72	118.162
3741.63	138.206
3743.55	124.058
3745.46	121.299
3747.38	124.242
3749.29	132.896
3751.2	141.549
3753.11	133.036
3755.02	127.367
3756.93	138.863
3758.84	138.903
3760.75	130.343
3762.66	136.105
3764.57	124.669
3766.48	133.297
3768.39	133.341
3770.29	133.394
3772.2	127.713
3774.1	139.253
3776.01	142.186
3777.91	136.51
3779.81	139.467
3781.72	136.685
3783.62	133.912
3785.52	136.9
3787.42	134.117
3789.32	137.093
3791.22	125.633
3793.12	134.404
3795.02	143.206
3796.92	149.139
3798.81	126.098
3800.71	126.229
3802.61	140.888
3804.5	141.045
3806.4	132.474
3808.29	138.458
3810.18	124.02
3812.08	138.755
3813.97	133.047
3815.86	133.179
3817.75	142.101
3819.64	136.373
3821.53	139.433
3823.42	133.678
3825.31	133.778
3827.2	128
3829.09	145.78
3830.97	131.179
3832.86	140.157
3834.75	131.425
3836.63	131.538
3838.52	122.769
3840.4	131.747
3842.28	137.838
3844.17	140.901
3846.05	155.815
3847.93	146.956
3849.81	138.097
3851.69	114.379
3853.57	132.231
3855.45	132.266
3857.33	126.333
3859.21	138.22
3861.08	141.208
3862.96	126.373
3864.84	135.384
3866.71	123.61
3868.59	123.772
3870.46	138.829
3872.34	114.976
3874.21	138.903
3876.08	144.924
3877.95	115.078
3879.82	121.094
3881.69	133.1
3883.56	127.167
3885.44	136.204
3887.3	130.28
3889.17	127.35
3891.04	130.421
3892.91	145.515
3894.77	136.649
3896.64	109.712
3898.51	154.916
3900.37	121.923
3902.23	137.082
3904.1	131.147
3905.96	125.21
3907.82	155.483
3909.69	146.532
3911.55	140.611
3913.41	119.544
3915.27	131.77
3917.13	134.934
3918.99	129.011
3920.84	120.05
3922.7	135.414
3924.56	135.572
3926.42	129.622
3928.27	129.759
3930.13	123.779
3931.98	130.01
3933.84	139.292
3935.69	114.885
3937.54	124.162
3939.4	130.401
3941.25	127.451
3943.1	139.885
3944.95	112.326
3946.8	130.914
3948.65	137.2
3950.5	124.965
3952.35	128.143
3954.19	137.498
3956.04	131.404
3957.89	134.571
3959.73	131.532
3961.58	119.199
3963.42	128.537
3965.27	125.479
3967.11	116.208
3968.96	131.716
3970.8	141.032
3972.64	113.155
3974.48	137.981
3976.32	122.497
3978.16	125.612
3980	122.512
3981.84	134.91
3983.68	113.195
3985.52	128.7
3987.36	128.693
3989.19	131.795
3991.03	128.709
3992.86	128.737
3994.7	125.672
3996.53	138.141
3998.37	125.785
