#Acq. time (s)=	30
#Accumulations=	2
#Range (cm-¹)=	100...4000
#Windows=	1
#Auto scanning=	Off
#Autofocus=	Off
#Macrospot=	Off
#AutoExposure=	Off
#Spike filter=	Multiple accum.
#Delay time (s)=	2
#Binning=	1
#Readout mode=	Signal
#DeNoise=	Off
#ICS correction=	On
#Dark correction=	Off
#Inst. Process=	Off
#Detector Gain=	Best Dynamic
#Detector ADC=	50 kHz HS
#Detector temperature (°C)=	-60.09
#Instrument=	LabRAM HR Evol
#Detector=	SIN-EM FIVIS
#Objective=	x100_VIS
#Grating=	150 (500nm)
#ND Filter=	100%
#Laser=	633nm_Edge
#Hole=	49.98
#Temperature=	0
#Range=	Visible
#StageXY=	75x50mm Scan+
#StageZ=	Z motor
#X (µm)=	0
#Y (µm)=	0
#Z (µm)=	-270.9
#Full time(mm:ss)=	1:04
#Project=	21_11_04
#Sample=	BU19w
#Site=	
#Title=	BU19w-E-FF11-FI10-V_150 (500nm)_633nm_Edge_100%_x100_VIS_H50um_30sX2
#Remark=	
#Date=	04.11.2021 11:51
#Acquired=	04.11.2021 11:51:31
102.881	137.767
106.139	128.29
109.397	128.355
112.653	115.053
115.908	117.973
119.161	106.546
122.414	107.542
125.664	104.707
128.914	98.0457
132.162	91.3696
135.409	96.167
138.654	99.9955
141.898	101.911
145.14	107.665
148.383	102.89
151.622	106.735
154.861	96.2312
158.098	97.2146
161.335	106.824
164.569	102.065
167.801	106.88
171.034	106.893
174.264	102.099
177.494	87.703
180.721	82.8871
183.949	82.8444
187.173	78.963
190.396	84.6375
193.62	73.1022
196.84	73.05
200.061	73.0142
203.279	72.056
206.496	72.0488
209.712	79.6662
212.926	72.0183
216.139	73.9132
219.352	73.8975
222.562	67.2046
225.772	78.6101
228.979	81.4074
232.185	98.4812
235.392	106.038
238.595	118.344
241.797	116.39
244.999	101.177
248.199	90.7114
251.397	82.1375
254.595	74.5144
257.791	78.2903
260.985	79.2224
264.178	82.0531
267.371	82.0419
270.561	79.191
273.75	78.2403
276.939	77.2923
280.125	83.9244
283.31	88.6501
286.494	83.8901
289.678	92.3915
292.859	84.774
296.039	75.2699
299.217	78.0782
302.396	76.1512
305.572	72.331
308.746	76.0771
311.919	77.9328
315.093	79.7886
318.263	89.1951
321.433	97.6686
324.601	114.638
327.768	139.147
330.935	153.287
334.099	125.92
337.262	113.644
340.423	88.1706
343.584	85.3304
346.743	77.7684
349.902	81.5207
353.058	80.551
356.213	84.2839
359.367	83.3035
362.52	80.4394
365.671	75.6957
368.821	85.0556
371.971	75.6199
375.119	79.333
378.265	67.0934
381.41	66.1212
384.553	63.2902
387.696	60.4848
390.837	68.0143
393.976	63.3631
397.116	64.354
400.253	66.3136
403.389	58.8523
406.524	65.5127
409.657	61.8067
412.789	67.5274
415.92	57.1739
419.05	63.837
422.178	63.8655
425.305	65.7537
428.431	69.4769
431.555	71.2855
434.678	77.8048
437.8	79.5942
440.921	74.7934
444.04	75.6369
447.158	78.3455
450.275	71.6697
453.391	81.8593
456.505	88.2956
459.618	74.2015
462.73	80.6715
465.84	83.4291
468.949	76.8685
472.057	62.8751
475.164	65.6686
478.27	58.2258
481.374	60.0937
484.477	64.7547
487.579	61.0308
490.679	61.9676
493.778	62.9088
496.876	64.7782
499.973	61.9904
503.068	62.0068
506.162	70.416
509.255	72.3014
512.346	77.9283
515.436	69.5577
518.525	74.2702
521.613	78.07
524.7	72.5256
527.785	73.5383
530.869	80.1938
533.952	82.1826
537.033	71.0104
540.113	71.0927
543.192	71.1625
546.27	73.1041
549.347	69.3536
552.423	63.7197
555.497	65.6318
558.568	63.7373
561.64	61.8126
564.711	65.5374
567.78	60.7607
570.848	65.3877
573.915	58.7148
576.979	57.6796
580.043	54.7765
583.107	60.3118
586.169	53.6983
589.228	61.1048
592.287	64.7927
595.345	58.2355
598.402	66.6102
601.458	64.7728
604.511	68.55
607.565	65.8034
610.617	73.3407
613.667	73.4203
616.716	75.399
619.764	78.3226
622.811	71.8715
625.856	63.5287
628.9	67.375
631.944	66.481
634.986	62.7274
638.026	60.8319
641.066	57.9741
644.104	65.4515
647.14	58.8134
650.177	55.0058
653.211	54.0025
656.244	58.6201
659.276	66.9717
662.308	50.0431
665.336	61.1907
668.365	55.5171
671.393	58.2738
674.418	52.6876
677.443	51.7582
680.467	54.5532
683.489	55.5038
686.511	48.0668
689.53	48.1087
692.549	52.8379
695.567	48.2171
698.582	50.1452
701.598	53.0129
704.611	49.3079
707.624	52.1679
710.635	48.4344
713.646	49.3563
716.655	51.2199
719.662	51.2018
722.669	46.4945
725.674	45.5307
728.679	54.8717
731.681	46.3883
734.683	49.1556
737.683	54.7235
740.683	47.1988
743.681	52.7634
746.678	49.9281
749.673	47.0997
752.669	46.1542
755.661	52.6652
758.654	50.8129
761.645	49.9198
764.635	50.9124
767.623	53.7906
770.611	57.6146
773.597	50.1936
776.582	52.1392
779.565	47.494
782.549	45.6527
785.53	47.5675
788.511	50.4227
791.489	46.6737
794.466	53.2876
797.444	52.3477
800.419	49.5075
803.394	51.3733
806.366	47.5767
809.339	53.1986
812.309	52.2144
815.278	51.2231
818.247	51.1663
821.214	46.4177
824.18	43.5509
827.145	51.9144
830.108	47.1919
833.072	46.2434
836.033	53.721
838.992	52.8117
841.952	50.9936
844.909	50.1004
847.865	50.1473
850.822	52.0796
853.776	44.6257
856.728	49.3863
859.681	55.1051
862.631	48.5782
865.58	49.5898
868.528	49.6578
871.476	52.5552
874.422	51.6495
877.366	57.366
880.311	56.4424
883.253	54.5609
886.194	57.4124
889.134	57.4069
892.074	48.8552
895.012	61.1665
897.948	55.4383
900.883	62.0054
903.818	53.4208
906.751	59.0214
909.683	57.9995
912.614	54.1558
915.543	59.7315
918.473	55.9238
921.4	55.8939
924.326	54.0073
927.251	57.7706
930.174	55.9278
933.098	58.7835
936.019	57.9088
938.94	54.233
941.859	61.8907
944.777	65.7915
947.693	65.9239
950.61	67.9576
953.525	74.7517
956.438	75.8359
959.35	80.7275
962.261	78.9237
965.171	78.0507
968.08	81.0062
970.988	84.9068
973.894	78.2299
976.801	84.9588
979.705	105.08
982.608	110.77
985.51	126.98
988.411	132.621
991.311	127.722
994.209	117.088
997.107	108.393
1000	108.314
1002.9	97.7559
1005.79	87.2289
1008.68	90.0742
1011.58	89.1536
1014.47	86.3377
1017.36	90.1933
1020.25	91.1974
1023.13	91.2777
1026.02	94.2535
1028.9	89.5808
1031.79	87.778
1034.67	78.297
1037.55	74.5697
1040.43	71.7945
1043.31	79.6255
1046.19	67.1861
1049.07	73.0828
1051.94	69.2872
1054.82	65.4751
1057.69	67.4678
1060.56	64.5891
1063.44	65.5784
1066.31	57.7953
1069.17	54.8718
1072.04	64.5744
1074.91	60.6746
1077.77	59.6801
1080.64	63.5316
1083.5	59.6234
1086.37	74.1308
1089.23	74.1102
1092.09	77.9618
1094.95	90.5258
1097.8	86.6226
1100.66	93.3677
1103.52	105.928
1106.37	97.2594
1109.22	91.464
1112.08	85.7112
1114.93	79.0523
1117.78	67.5307
1120.63	73.465
1123.48	65.7561
1126.32	67.7771
1129.17	65.9103
1132.01	65.9929
1134.86	69.9928
1137.7	73.017
1140.54	69.1862
1143.38	74.1736
1146.22	77.1751
1149.06	80.1884
1151.89	93.0303
1154.73	101.909
1157.56	96.9745
1160.4	94.9675
1163.23	77.1821
1166.06	64.3386
1168.89	70.1679
1171.72	60.2965
1174.55	60.2361
1177.38	49.4094
1180.2	56.2086
1183.03	58.1228
1185.85	47.3644
1188.67	51.2711
1191.49	51.2763
1194.31	52.2823
1197.13	46.4495
1199.95	46.4983
1202.77	46.569
1205.58	51.5564
1208.4	49.6855
1211.21	46.8206
1214.02	48.8927
1216.84	49.0019
1219.65	46.1399
1222.46	45.2567
1225.27	47.3604
1228.07	39.4771
1230.88	45.5739
1233.68	41.6505
1236.49	40.7208
1239.29	43.8056
1242.09	44.866
1244.89	51.9704
1247.69	47.9642
1250.49	44.949
1253.29	47.9924
1256.08	41.9261
1258.88	43.9293
1261.67	48.945
1264.47	48.911
1267.26	43.8404
1270.05	40.7842
1272.84	44.7671
1275.63	40.6998
1278.42	50.6918
1281.2	70.6895
1283.99	92.6596
1286.77	62.5569
1289.56	47.511
1292.34	46.4867
1295.12	42.4766
1297.9	48.4684
1300.68	39.474
1303.46	42.4859
1306.23	46.5147
1309.01	45.5585
1311.78	45.6237
1314.56	41.6779
1317.33	45.7687
1320.1	42.8246
1322.87	42.9034
1325.64	41.9768
1328.41	46.1158
1331.18	47.2251
1333.94	44.259
1336.71	47.3936
1339.47	44.4077
1342.24	51.6201
1345	44.5134
1347.76	42.5089
1350.52	42.5486
1353.28	47.7147
1356.04	48.7734
1358.79	43.6615
1361.55	39.5654
1364.3	53.9593
1367.06	44.7059
1369.81	46.754
1372.56	50.8539
1375.31	47.7637
1378.06	46.7277
1380.81	50.8245
1383.56	74.4222
1386.3	119.56
1389.05	73.3606
1391.79	48.7351
1394.53	48.7438
1397.28	47.7543
1400.02	45.7337
1402.76	44.7363
1405.5	49.9169
1408.23	55.11
1410.97	48.975
1413.71	43.8645
1416.44	40.8143
1419.17	41.8947
1421.91	44.0159
1424.64	47.1832
1427.37	49.3193
1430.1	44.1861
1432.83	41.1197
1435.55	44.2987
1438.28	48.5289
1441.01	44.4055
1443.73	49.6957
1446.45	46.6123
1449.17	44.5574
1451.89	43.5373
1454.62	46.7078
1457.33	43.5718
1460.05	44.6281
1462.77	44.6285
1465.48	45.6742
1468.2	45.6672
1470.91	44.6112
1473.63	45.657
1476.34	43.5594
1479.05	43.568
1481.76	43.5774
1484.47	42.5404
1487.17	47.8131
1489.88	44.6859
1492.59	45.7692
1495.29	48.9682
1497.99	47.9582
1500.7	46.9524
1503.4	50.1721
1506.1	44.9437
1508.8	47.1214
1511.5	42.9446
1514.19	45.133
1516.89	48.3956
1519.59	43.1493
1522.28	45.3559
1524.97	45.437
1527.67	51.9399
1530.36	45.5957
1533.05	49.9846
1535.74	46.8427
1538.42	45.8313
1541.11	49.1338
1543.8	47.0223
1546.48	40.5585
1549.16	48.1385
1551.85	50.2955
1554.53	49.1878
1557.21	45.9115
1559.89	50.2055
1562.57	43.707
1565.25	47.9997
1567.93	47.9745
1570.6	47.9486
1573.28	49.001
1575.95	52.211
1578.62	47.9014
1581.29	44.6729
1583.97	44.6767
1586.64	52.2213
1589.3	49.0031
1591.97	47.9438
1594.64	49.0456
1597.3	49.0775
1599.97	53.429
1602.63	50.2345
1605.3	51.3655
1607.96	49.2624
1610.62	47.1634
1613.28	48.327
1615.94	47.3264
1618.59	48.5075
1621.25	49.6935
1623.91	49.7883
1626.56	47.6896
1629.21	54.3691
1631.87	43.4637
1634.52	49.0422
1637.17	45.7969
1639.82	51.3451
1642.47	50.2751
1645.12	50.3164
1647.76	52.5652
1650.41	50.3822
1653.05	51.5174
1655.7	45.9957
1658.34	49.3327
1660.98	52.6671
1663.62	53.7837
1666.26	59.3318
1668.9	54.8975
1671.54	46.0257
1674.18	50.4622
1676.81	49.3469
1679.45	50.4535
1682.08	42.6802
1684.71	50.4177
1687.34	47.0718
1689.98	50.3758
1692.61	49.258
1695.23	50.3656
1697.86	47.0608
1700.49	50.4278
1703.12	45.002
1705.74	42.8827
1708.36	50.7901
1710.99	52.979
1713.61	51.8421
1716.23	50.7683
1718.85	45.2672
1721.47	52.0319
1724.09	46.4667
1726.7	54.357
1729.32	54.4142
1731.94	47.7322
1734.55	54.5259
1737.16	48.9519
1739.77	51.2516
1742.39	50.173
1745	52.4781
1747.61	52.521
1750.21	49.1663
1752.82	52.5888
1755.43	52.6165
1758.03	49.2382
1760.64	48.1145
1763.24	50.3867
1765.84	51.5302
1768.44	51.544
1771.05	50.4265
1773.64	53.8439
1776.24	56.1362
1778.84	55.0358
1781.44	49.3987
1784.03	50.5752
1786.63	47.2076
1789.22	54.0917
1791.81	53.0118
1794.41	47.3654
1797	50.8499
1799.59	46.3419
1802.18	49.8428
1804.76	51.0599
1807.35	51.1259
1809.94	51.1825
1812.52	51.2371
1815.11	57.0553
1817.69	50.1955
1820.27	58.3338
1822.85	50.3039
1825.43	54.992
1828.01	51.578
1830.59	53.9614
1833.17	57.5114
1835.74	50.6068
1838.32	55.3204
1840.89	56.5387
1843.47	51.9225
1846.04	54.3028
1848.61	54.3462
1851.18	55.5609
1853.75	52.0796
1856.32	47.433
1858.89	46.3007
1861.45	51.0389
1864.02	49.9136
1866.58	49.969
1869.15	50.0179
1871.71	52.4137
1874.27	51.2703
1876.83	48.9459
1879.39	50.1548
1881.95	49.0047
1884.51	53.7541
1887.07	57.3261
1889.63	47.8793
1892.18	49.0635
1894.74	50.2465
1897.29	53.8
1899.84	53.8173
1902.39	52.6725
1904.94	45.6141
1907.49	51.5885
1910.04	54.0291
1912.59	54.1121
1915.14	49.4399
1917.68	50.7086
1920.23	57.891
1922.77	49.571
1925.32	53.2067
1927.86	56.8493
1930.4	52.1124
1932.94	50.9624
1935.48	53.407
1938.02	47.4438
1940.56	58.2948
1943.09	53.5204
1945.63	49.9392
1948.16	52.3717
1950.7	48.777
1953.23	48.7891
1955.76	48.7987
1958.29	52.4212
1960.82	59.6583
1963.35	58.4564
1965.88	59.6624
1968.41	56.0382
1970.93	53.6144
1973.46	52.3941
1975.98	52.3798
1978.51	55.9771
1981.03	51.1469
1983.55	52.3359
1986.07	53.526
1988.59	53.5152
1991.11	55.9104
1993.63	55.9027
1996.15	57.1
1998.66	55.8976
2001.18	57.1029
2003.69	59.5154
2006.2	58.3283
2008.72	51.1279
2011.23	59.5739
2013.74	54.7819
2016.25	53.6
2018.76	57.2288
2021.27	56.0416
2023.77	54.8639
2026.28	56.1041
2028.78	56.1436
2031.29	51.3572
2033.79	56.2447
2036.29	61.1411
2038.79	57.5647
2041.3	50.3437
2043.79	54.0388
2046.29	56.5288
2048.79	56.592
2051.29	59.0902
2053.78	53.0345
2056.28	53.085
2058.77	53.1442
2061.27	58.0958
2063.76	61.8341
2066.25	57.002
2068.74	59.5176
2071.23	58.3518
2073.72	54.7248
2076.21	59.7044
2078.69	62.227
2081.18	57.3512
2083.66	62.3361
2086.15	64.8519
2088.63	59.9477
2091.11	56.2853
2093.59	60.0541
2096.07	60.1221
2098.55	57.7094
2101.03	56.5355
2103.51	57.8507
2105.99	52.9439
2108.46	58.0066
2110.94	55.5917
2113.41	69.4398
2115.89	55.7637
2118.36	68.4012
2120.83	58.4503
2123.3	61.0557
2125.77	61.1451
2128.24	59.969
2130.71	49.936
2133.17	52.5312
2135.64	64.0002
2138.11	57.7295
2140.57	57.793
2143.03	59.1274
2145.49	49.0033
2147.96	63.0597
2150.42	61.8311
2152.88	68.2507
2155.34	56.8021
2157.79	55.5535
2160.25	63.2424
2162.71	61.9844
2165.16	54.3275
2167.62	65.8398
2170.07	59.4591
2172.52	58.2018
2174.97	55.665
2177.43	58.2427
2179.88	59.529
2182.32	56.9706
2184.77	64.6442
2187.22	62.0831
2189.67	58.2498
2192.11	60.8247
2194.56	58.2799
2197	60.8686
2199.44	59.6221
2201.89	60.9468
2204.33	57.1432
2206.77	57.1939
2209.21	62.3968
2211.64	57.3123
2214.08	63.822
2216.52	63.8992
2218.95	60.1022
2221.39	58.8848
2223.82	53.7766
2226.26	62.9273
2228.69	60.4091
2231.12	64.3882
2233.55	67.0748
2235.98	60.6394
2238.41	65.9388
2240.84	64.7133
2243.26	60.8688
2245.69	63.569
2248.12	57.0886
2250.54	58.4746
2252.96	61.1774
2255.39	61.2525
2257.81	62.6518
2260.23	64.0534
2262.65	64.1299
2265.07	66.8453
2267.49	64.2594
2269.9	61.6617
2272.32	55.0726
2274.74	63.0761
2277.15	69.7568
2279.57	56.4974
2281.98	71.1448
2284.39	57.859
2286.8	63.1864
2289.21	64.5265
2291.62	61.8731
2294.03	63.2103
2296.44	63.2223
2298.84	72.5653
2301.25	64.6036
2303.66	63.3075
2306.06	70.0239
2308.46	63.4101
2310.87	60.8014
2313.27	67.5549
2315.67	68.974
2318.07	67.7217
2320.47	67.8074
2322.87	62.5134
2325.26	63.9433
2327.66	65.3784
2330.06	62.7692
2332.45	64.2152
2334.85	61.6057
2337.24	72.5509
2339.63	64.5158
2342.02	56.461
2344.41	62.0096
2346.8	59.3969
2349.19	62.2368
2351.58	60.9745
2353.97	66.563
2356.35	70.7804
2358.74	59.8657
2361.12	59.9208
2363.51	64.1199
2365.89	60.0495
2368.27	62.8787
2370.65	67.0947
2373.03	64.393
2375.41	57.526
2377.79	64.5216
2380.17	52.074
2382.55	68.7849
2384.92	59.087
2387.3	56.3317
2389.67	61.9168
2392.05	64.7121
2394.42	67.5063
2396.79	63.3312
2399.16	73.0731
2401.53	70.2907
2403.9	63.324
2406.27	60.5347
2408.64	60.5456
2411.01	68.9436
2413.37	67.6228
2415.74	70.5453
2418.1	59.5406
2420.47	61.0707
2422.83	68.1656
2425.19	71.0154
2427.55	68.2763
2429.91	64.1342
2432.27	62.8083
2434.63	67.1396
2436.99	64.4116
2439.34	68.7624
2441.7	67.4447
2444.05	70.3887
2446.41	59.1011
2448.76	62.0429
2451.11	73.5642
2453.47	62.227
2455.82	70.9121
2458.17	68.147
2460.51	75.4293
2462.86	66.9063
2465.21	69.8826
2467.56	67.0921
2469.9	65.7355
2472.25	67.2646
2474.59	63.0051
2476.94	63.0892
2479.28	67.529
2481.62	70.5212
2483.96	72.0604
2486.3	70.6789
2488.64	66.3759
2490.98	66.4431
2493.32	66.51
2495.65	69.5088
2497.99	72.5086
2500.32	69.6459
2502.66	71.1779
2504.99	71.2402
2507.32	62.4782
2509.66	74.2949
2511.99	59.6241
2514.32	64.0812
2516.65	64.1206
2518.98	71.543
2521.3	81.9359
2523.63	73.1368
2525.96	73.1909
2528.28	70.2873
2530.61	70.3408
2532.93	73.3661
2535.25	70.4674
2537.57	64.5964
2539.89	70.6075
2542.22	64.7279
2544.53	70.7534
2546.85	66.36
2549.17	70.9115
2551.49	75.4736
2553.8	75.5555
2556.12	65.1442
2558.43	60.7051
2560.75	72.7729
2563.06	59.3336
2565.37	66.9265
2567.68	74.5391
2569.99	68.606
2572.3	70.2065
2574.61	71.8078
2576.92	70.3802
2579.23	70.4566
2581.53	69.0083
2583.84	59.9522
2586.14	69.1041
2588.45	70.662
2590.75	69.1604
2593.05	72.2368
2595.35	78.372
2597.66	63.2077
2599.96	73.9244
2602.26	84.6499
2604.55	74.0188
2606.85	66.426
2609.15	67.9916
2611.44	77.1876
2613.74	77.2174
2616.03	72.6585
2618.33	72.6931
2620.62	74.2547
2622.91	72.7575
2625.2	81.9921
2627.49	72.8392
2629.78	79.0367
2632.07	63.7554
2634.36	73.0579
2636.64	76.2393
2638.93	70.1909
2641.22	71.8444
2643.5	75.0542
2645.78	72.0802
2648.07	84.6126
2650.35	67.6383
2652.63	83.3186
2654.91	75.6171
2657.19	74.1257
2659.47	77.3127
2661.75	71.1203
2664.03	75.8603
2666.3	74.3389
2668.58	74.4003
2670.85	66.6283
2673.13	74.5558
2675.4	79.3862
2677.67	79.5545
2679.95	70.2861
2682.22	83.1165
2684.49	75.371
2686.76	73.9526
2689.03	74.1171
2691.29	69.4703
2693.56	69.6006
2695.83	76.0558
2698.09	76.1299
2700.36	77.8205
2702.62	73.0834
2704.89	76.3694
2707.15	74.8325
2709.41	68.4557
2711.67	66.9017
2713.93	73.4179
2716.19	79.9696
2718.45	88.1328
2720.7	73.6504
2722.96	68.856
2725.22	70.5261
2727.47	77.0618
2729.73	78.7281
2731.98	75.5092
2734.23	75.5437
2736.49	77.1961
2738.74	77.2191
2740.99	87.0199
2743.24	82.1896
2745.49	80.6178
2747.73	74.1622
2749.98	74.2344
2752.23	82.5263
2754.47	79.365
2756.72	84.3621
2758.96	77.8765
2761.21	77.9286
2763.45	84.5624
2765.69	74.7837
2767.93	74.8616
2770.17	79.8662
2772.41	79.9465
2774.65	80.0391
2776.89	65.2728
2779.13	73.6363
2781.36	77.0759
2783.6	73.8839
2785.84	83.9888
2788.07	77.4654
2790.3	77.591
2792.54	87.7405
2794.77	77.8313
2797	82.9641
2799.23	74.6822
2801.46	83.1743
2803.69	84.9496
2805.92	78.302
2808.14	76.6933
2810.37	85.2009
2812.59	71.7679
2814.82	76.891
2817.04	78.6384
2819.27	70.2364
2821.49	85.5363
2823.71	73.7419
2825.93	80.5916
2828.15	87.449
2830.37	79.0198
2832.59	79.078
2834.81	77.4305
2837.03	80.891
2839.24	86.0615
2841.46	86.1241
2843.67	77.656
2845.89	70.8919
2848.1	74.3755
2850.31	76.1597
2852.53	77.9585
2854.74	84.917
2856.95	78.1538
2859.16	74.8102
2861.37	81.799
2863.57	81.9182
2865.78	75.1376
2867.99	82.1763
2870.19	80.5711
2872.4	84.1648
2874.6	86.0336
2876.81	80.9474
2879.01	81.0805
2881.21	81.2192
2883.41	79.6135
2885.61	74.5001
2887.81	86.9231
2890.01	85.3121
2892.21	81.9304
2894.41	75.0062
2896.6	89.2895
2898.8	94.7729
2901	84.2971
2903.19	87.9879
2905.38	93.4632
2907.58	84.6888
2909.77	83.026
2911.96	83.1245
2914.15	88.5863
2916.34	68.975
2918.53	81.6136
2920.72	85.3067
2922.91	85.4135
2925.09	85.53
2927.28	92.8665
2929.47	82.1673
2931.65	76.865
2933.83	82.3991
2936.02	89.7485
2938.2	82.5805
2940.38	82.6563
2942.56	86.3716
2944.74	88.2668
2946.92	82.8633
2949.1	77.4537
2951.28	84.8065
2953.46	84.8678
2955.63	79.4488
2957.81	83.1587
2959.98	81.3892
2962.16	75.9599
2964.33	77.8511
2966.5	87.0849
2968.68	94.5031
2970.85	83.5698
2973.02	76.2946
2975.19	91.0878
2977.36	89.3314
2979.52	89.415
2981.69	82.1254
2983.86	82.2212
2986.03	82.3228
2988.19	87.9877
2990.36	91.8169
2992.52	90.0908
2994.68	79.0551
2996.85	92.2127
2999.01	73.6982
3001.17	85.0291
3003.33	79.5556
3005.49	83.4421
3007.65	92.9739
3009.8	78.0762
3011.96	89.4959
3014.12	89.6438
3016.27	74.6768
3018.43	91.8592
3020.58	93.924
3022.74	90.2831
3024.89	75.1943
3027.04	82.9235
3029.19	88.7575
3031.34	81.2222
3033.49	90.8774
3035.64	90.9657
3037.79	96.7898
3039.94	94.9815
3042.09	95.0801
3044.23	91.3226
3046.38	97.1758
3048.52	89.5558
3050.67	83.8489
3052.81	95.4944
3054.95	89.7888
3057.09	68.6122
3059.24	93.8209
3061.38	84.2224
3063.51	92.0475
3065.65	86.3104
3067.79	86.3858
3069.93	86.4612
3072.07	88.4815
3074.2	94.4014
3076.34	86.6961
3078.47	98.478
3080.61	92.7136
3082.74	96.7066
3084.87	94.8571
3087	93.009
3089.14	95.0915
3091.27	91.3
3093.39	93.4049
3095.52	101.436
3097.65	91.738
3099.78	101.767
3101.91	96.0004
3104.03	104.103
3106.16	98.337
3108.28	98.5228
3110.41	98.7159
3112.53	90.9206
3114.65	91.0959
3116.77	97.2936
3118.89	109.545
3121.01	101.717
3123.13	101.934
3125.25	96.0894
3127.37	102.39
3129.49	94.5019
3131.61	106.959
3133.72	94.967
3135.84	95.197
3137.95	115.943
3140.06	105.921
3142.18	102.029
3144.29	114.633
3146.4	108.653
3148.51	88.1298
3150.62	102.829
3152.73	107.151
3154.84	101.062
3156.95	103.298
3159.06	105.539
3161.16	105.696
3163.27	101.663
3165.37	112.299
3167.48	116.65
3169.58	108.377
3171.69	95.8944
3173.79	108.681
3175.89	115.132
3177.99	113.121
3180.09	121.676
3182.19	117.528
3184.29	109.13
3186.39	115.559
3188.49	102.877
3190.58	102.947
3192.68	111.529
3194.77	120.132
3196.87	109.621
3198.96	105.512
3201.06	118.517
3203.15	99.472
3205.24	118.94
3207.33	102
3209.42	106.507
3211.51	100.255
3213.6	119.911
3215.69	107.183
3217.78	111.751
3219.86	114.148
3221.95	125.269
3224.04	118.97
3226.12	117.025
3228.2	106.299
3230.29	119.678
3232.37	117.715
3234.45	117.922
3236.53	126.96
3238.61	111.712
3240.7	98.6378
3242.77	105.502
3244.85	114.649
3246.93	110.408
3249.01	101.679
3251.08	108.545
3253.16	104.217
3255.23	113.314
3257.31	111.197
3259.38	106.873
3261.46	109.303
3263.53	102.725
3265.6	121.032
3267.67	112.327
3269.74	114.78
3271.81	108.228
3273.88	99.2772
3275.95	117.647
3278.02	113.197
3280.08	111.023
3282.15	101.97
3284.21	118.131
3286.28	106.769
3288.34	106.874
3290.41	106.976
3292.47	107.073
3294.53	104.862
3296.59	109.566
3298.65	114.283
3300.71	112.101
3302.77	112.208
3304.83	98.4237
3306.89	103.157
3308.95	107.896
3311	101.025
3313.06	110.405
3315.11	115.164
3317.17	112.937
3319.22	110.722
3321.27	108.506
3323.33	120.322
3325.38	106.434
3327.43	106.577
3329.48	116.1
3331.53	104.55
3333.58	114.157
3335.63	123.789
3337.67	119.284
3339.72	105.257
3341.77	107.751
3343.81	107.862
3345.86	115.092
3347.9	110.429
3349.95	112.909
3351.99	132.043
3354.03	117.867
3356.07	113.23
3358.11	106.198
3360.15	113.483
3362.19	120.792
3364.23	120.922
3366.27	121.048
3368.31	106.779
3370.34	118.905
3372.38	128.638
3374.42	109.498
3376.45	102.357
3378.48	124.121
3380.52	102.502
3382.55	109.81
3384.58	119.54
3386.61	124.447
3388.64	112.43
3390.68	112.489
3392.7	110.128
3394.73	119.886
3396.76	107.855
3398.79	122.49
3400.82	122.571
3402.84	117.776
3404.87	125.118
3406.89	117.888
3408.92	125.241
3410.94	132.584
3412.96	110.732
3414.98	108.341
3417	120.564
3419.03	120.611
3421.05	125.529
3423.06	123.132
3425.08	132.933
3427.1	123.235
3429.12	113.536
3431.14	116.049
3433.15	111.237
3435.17	113.767
3437.18	116.309
3439.2	118.863
3441.21	123.876
3443.22	123.997
3445.23	119.221
3447.25	126.757
3449.26	117.058
3451.27	124.607
3453.28	109.953
3455.28	115.068
3457.29	122.695
3459.3	112.975
3461.31	113.173
3463.31	128.322
3465.32	121.061
3467.32	118.775
3469.33	116.471
3471.33	116.664
3473.33	106.754
3475.34	104.395
3477.34	119.67
3479.34	117.329
3481.34	112.45
3483.34	122.737
3485.34	125.447
3487.33	115.471
3489.33	105.464
3491.33	118.332
3493.32	98.1019
3495.32	110.975
3497.32	103.438
3499.31	116.332
3501.3	119.006
3503.3	116.545
3505.29	126.897
3507.28	114.157
3509.27	116.778
3511.26	106.549
3513.25	121.994
3515.24	114.325
3517.23	111.788
3519.22	101.538
3521.2	114.423
3523.19	114.456
3525.18	109.353
3527.16	119.693
3529.15	91.3981
3531.13	104.323
3533.11	101.827
3535.1	107.084
3537.08	102.035
3539.06	107.334
3541.04	97.0919
3543.02	97.1841
3545	97.2679
3546.98	102.538
3548.96	105.209
3550.93	97.469
3552.91	107.872
3554.89	102.706
3556.86	105.358
3558.84	102.815
3560.81	108.09
3562.78	115.988
3564.76	113.473
3566.73	113.579
3568.7	111.102
3570.67	105.98
3572.64	95.6109
3574.61	108.83
3576.58	108.962
3578.55	109.107
3580.52	93.4643
3582.48	104.15
3584.45	101.665
3586.41	99.1719
3588.38	96.6689
3590.35	91.5051
3592.31	107.575
3594.27	105.071
3596.23	102.56
3598.2	121.376
3600.16	102.833
3602.12	113.662
3604.08	108.448
3606.04	103.213
3608	89.9071
3609.95	87.312
3611.91	98.1569
3613.87	109.034
3615.83	101.052
3617.78	98.4532
3619.74	90.4374
3621.69	93.1935
3623.64	90.5276
3625.6	98.6665
3627.55	87.8825
3629.5	93.3166
3631.45	98.7405
3633.4	87.9373
3635.35	85.2582
3637.3	104.252
3639.25	93.4793
3641.2	98.9823
3643.15	88.2196
3645.09	88.3068
3647.04	96.5758
3648.98	99.3205
3650.93	88.4789
3652.87	99.4263
3654.82	83.1208
3656.76	80.4327
3658.7	85.9235
3660.64	88.6884
3662.58	83.2591
3664.53	99.6794
3666.47	91.5331
3668.4	88.8488
3670.34	102.567
3672.28	91.6709
3674.22	91.7338
3676.16	89.0664
3678.09	86.4048
3680.03	83.7467
3681.96	81.0927
3683.9	78.4417
3685.83	86.8186
3687.76	86.9396
3689.69	89.826
3691.63	95.491
3693.56	78.9878
3695.49	87.4065
3697.42	87.5258
3699.35	87.6429
3701.28	84.9777
3703.2	90.6585
3705.13	85.1966
3707.06	85.3167
3708.98	91.0379
3710.91	85.5523
3712.83	88.4777
3714.76	94.2104
3716.68	97.1326
3718.6	91.5993
3720.53	86.0503
3722.45	88.9581
3724.37	77.7325
3726.29	91.9439
3728.21	86.3608
3730.13	80.7685
3732.05	78.0101
3733.97	86.603
3735.88	89.5283
3737.8	95.3002
3739.72	89.6893
3741.63	95.4616
3743.55	75.5757
3745.46	92.7583
3747.38	95.6805
3749.29	87.1683
3751.2	87.2171
3753.11	84.3989
3755.02	84.4341
3756.93	81.5999
3758.84	81.6235
3760.75	78.7785
3762.66	90.259
3764.57	93.1435
3766.48	87.4315
3768.39	87.46
3770.29	76.02
3772.2	87.5336
3774.1	87.5718
3776.01	90.4818
3777.91	87.6539
3779.81	84.8305
3781.72	96.3988
3783.62	82.075
3785.52	99.4325
3787.42	90.8533
3789.32	82.2556
3791.22	79.4235
3793.12	88.1576
3795.02	88.2379
3796.92	99.9088
3798.81	88.4138
3800.71	88.5056
3802.61	91.5045
3804.5	79.9739
3806.4	88.8012
3808.29	88.9045
3810.18	89.0029
3812.08	89.0951
3813.97	92.1095
3815.86	86.3468
3817.75	77.6431
3819.64	74.785
3821.53	83.66
3823.42	80.7943
3825.31	92.6158
3827.2	75.0346
3829.09	86.879
3830.97	69.2742
3832.86	87.0447
3834.75	75.311
3836.63	81.2876
3838.52	81.3532
3840.4	90.2983
3842.28	96.3383
3844.17	90.473
3846.05	93.4889
3847.93	87.5797
3849.81	90.5799
3851.69	78.7284
3853.57	93.6016
3855.45	84.7094
3857.33	75.7998
3859.21	84.7152
3861.08	90.6704
3862.96	93.6644
3864.84	81.8254
3866.71	84.8889
3868.59	87.9828
3870.46	88.0744
3872.34	85.1125
3874.21	85.1344
3876.08	82.1734
3877.95	94.1546
3879.82	91.1945
3881.69	88.2348
3883.56	82.2847
3885.44	76.3339
3887.3	82.3607
3889.17	67.4208
3891.04	88.4466
3892.91	79.5084
3894.77	79.5867
3896.64	85.6652
3898.51	88.7382
3900.37	79.7771
3902.23	82.852
3904.1	73.8644
3905.96	82.9708
3907.82	83.025
3909.69	77.0424
3911.55	83.1571
3913.41	86.2534
3915.27	89.361
3917.13	74.2896
3918.99	83.4775
3920.84	92.6972
3922.7	83.6826
3924.56	83.7802
3926.42	89.973
3928.27	80.9087
3930.13	93.2165
3931.98	78.0061
3933.84	84.1875
3935.69	81.1857
3937.54	93.505
3939.4	87.4454
3941.25	90.5977
3943.1	66.0995
3944.95	87.7063
3946.8	87.7897
3948.65	81.7033
3950.5	81.7675
3952.35	78.7387
3954.19	91.1505
3956.04	81.9345
3957.89	85.0739
3959.73	88.2041
3961.58	91.3345
3963.42	82.0781
3965.27	66.6121
3967.11	79.0215
3968.96	88.3272
3970.8	103.836
3972.64	75.9531
3974.48	91.4705
3976.32	100.789
3978.16	75.9875
3980	88.3949
3981.84	88.3892
3983.68	88.3848
3985.52	91.4852
3987.36	88.3797
3989.19	79.0767
3991.03	82.1875
3992.86	82.2055
3994.7	79.1267
3996.53	72.9509
3998.37	85.4095
