#Acq. time (s)=	30
#Accumulations=	2
#Range (cm-¹)=	1200...2365
#Windows=	3
#Auto scanning=	Off
#Autofocus=	Off
#Macrospot=	Off
#AutoExposure=	Off
#Spike filter=	Multiple accum.
#Delay time (s)=	2
#Binning=	1
#Readout mode=	Signal
#DeNoise=	Off
#ICS correction=	On
#Dark correction=	Off
#Inst. Process=	Off
#Detector Gain=	Best Dynamic
#Detector ADC=	50 kHz HS
#Detector temperature (°C)=	-60.09
#Instrument=	LabRAM HR Evol
#Detector=	SIN-EM FIVIS
#Objective=	x100_VIS
#Grating=	1800 (450-850nm)
#ND Filter=	100%
#Laser=	532nm_Edge
#Hole=	49.98
#Temperature=	0
#Range=	Visible
#StageXY=	75x50mm Scan+
#StageZ=	Z motor
#X (µm)=	0
#Y (µm)=	0
#Z (µm)=	-245.6
#Full time(mm:ss)=	3:23
#Project=	21_11_04
#Sample=	BU19w
#Site=	
#Title=	BU19w-E-FF11b-FI01-V_1800 (450-850nm)_532nm_Edge_100%_x100_VIS_H50um_30sX2
#Remark=	
#Date=	04.11.2021 18:28
#Acquired=	04.11.2021 18:28:15
1202.73	34.9979
1203.01	32.8287
1203.29	38.1765
1203.57	31.7184
1203.85	37.08
1204.12	30.6417
1204.4	36.0132
1204.68	34.9278
1204.96	34.9126
1205.24	35.9717
1205.51	34.8808
1205.79	33.7916
1206.07	32.7036
1206.35	31.6165
1206.63	36.959
1206.9	29.4509
1207.18	29.4442
1207.46	33.7199
1207.74	29.4331
1208.01	35.8456
1208.29	35.8349
1208.57	30.4785
1208.85	33.6804
1209.13	29.4016
1209.4	33.6761
1209.68	32.6021
1209.96	34.7287
1210.23	35.7823
1210.51	33.6341
1210.79	36.8245
1211.07	33.611
1211.35	33.5992
1211.62	28.2549
1211.9	32.5093
1212.18	35.697
1212.46	33.5559
1212.73	29.2877
1213.01	32.4777
1213.29	36.7304
1213.57	29.2762
1213.84	31.4067
1214.12	31.4074
1214.4	32.4721
1214.68	29.2774
1214.95	35.6635
1215.23	33.5325
1215.51	31.3975
1215.78	30.3237
1216.06	32.4384
1216.34	29.2355
1216.62	35.6021
1216.9	32.4044
1217.17	35.5812
1217.45	32.3867
1217.73	32.3794
1218	29.1879
1218.28	33.4282
1218.56	34.4869
1218.84	36.6059
1219.11	29.176
1219.39	32.3522
1219.67	31.2889
1219.94	32.3503
1220.22	34.4699
1220.5	36.5893
1220.77	36.5825
1221.05	32.3363
1221.33	32.3285
1221.61	34.4362
1221.88	32.3031
1222.16	29.1115
1222.44	34.3868
1222.72	32.257
1222.99	33.2981
1223.27	36.4579
1223.55	30.1056
1223.82	36.4329
1224.1	34.3146
1224.38	37.475
1224.65	37.4726
1224.93	38.5295
1225.21	38.5357
1225.49	38.54
1225.76	35.3735
1226.04	37.4825
1226.32	37.4775
1226.59	31.1375
1226.87	36.402
1227.15	39.5368
1227.42	35.2922
1227.7	36.3247
1227.98	36.296
1228.25	36.2653
1228.53	30.9981
1228.81	37.3554
1229.08	37.4418
1229.36	38.5078
1229.64	33.2009
1229.91	37.3945
1230.19	36.3393
1230.47	36.3305
1230.74	31.0165
1231.02	30.9979
1231.3	37.3045
1231.57	36.253
1231.85	33.0972
1232.13	37.298
1232.4	37.2965
1232.68	38.3436
1232.96	34.1396
1233.23	35.1909
1233.51	28.8904
1233.79	32.045
1234.06	33.0997
1234.34	38.3605
1234.62	29.9558
1234.89	36.2652
1235.17	36.2696
1235.45	36.2735
1235.72	35.2232
1236	34.1686
1236.27	33.1124
1236.55	36.2598
1236.83	34.1473
1237.1	29.9339
1237.38	35.1728
1237.66	29.9126
1237.93	35.1472
1238.21	34.0867
1238.49	34.08
1238.76	36.1718
1239.04	33.0225
1239.31	34.068
1239.59	33.0184
1239.87	34.0659
1240.14	33.0182
1240.42	31.9714
1240.7	33.0217
1240.97	38.263
1241.25	34.0632
1241.52	38.2496
1241.8	35.1041
1242.08	31.9633
1242.35	37.2051
1242.63	35.1166
1242.91	30.9245
1243.18	35.1162
1243.46	34.0701
1243.74	31.975
1244.01	36.1659
1244.29	37.2115
1244.56	31.9656
1244.84	37.1959
1245.11	31.9482
1245.39	35.0772
1245.67	34.0222
1245.94	35.0665
1246.22	36.1114
1246.49	34.0188
1246.77	36.1099
1247.05	34.0143
1247.32	38.1992
1247.6	37.1435
1247.87	31.9013
1248.15	36.0821
1248.43	41.3118
1248.7	36.0854
1248.98	36.0856
1249.25	37.129
1249.53	33.9913
1249.8	32.9423
1250.08	33.9793
1250.36	35.0163
1250.63	37.0992
1250.91	38.1373
1251.18	34.9967
1251.46	34.9905
1251.74	40.2055
1252.01	29.757
1252.29	36.0144
1252.56	36.0072
1252.84	33.9151
1253.11	39.1313
1253.39	32.8734
1253.66	36.0106
1253.94	38.106
1254.22	36.0231
1254.49	38.1127
1254.77	36.0261
1255.04	37.0715
1255.32	33.9376
1255.59	37.0706
1255.87	36.0286
1256.14	36.0332
1256.42	36.0364
1256.7	32.9025
1256.97	36.0319
1257.25	40.2052
1257.52	39.1578
1257.8	40.1988
1258.07	41.2394
1258.35	41.2303
1258.62	40.182
1258.9	34.9666
1259.18	40.1879
1259.45	37.0739
1259.73	32.8935
1260	37.0625
1260.28	36.0057
1260.55	38.0821
1260.83	42.2473
1261.1	39.1132
1261.38	44.358
1261.65	40.2262
1261.93	43.4334
1262.2	42.3247
1262.48	44.3593
1262.75	49.517
1263.03	51.6476
1263.31	48.5572
1263.58	49.6371
1263.85	46.562
1264.13	43.3917
1264.41	46.5103
1264.68	39.1921
1264.96	45.4654
1265.23	38.1384
1265.51	44.4059
1265.78	43.363
1266.06	42.3228
1266.33	41.2847
1266.61	42.3389
1266.88	45.4868
1267.16	50.7297
1267.43	40.2821
1267.71	43.4373
1267.98	47.6472
1268.26	51.8473
1268.53	46.6181
1268.81	42.434
1269.08	40.3407
1269.36	46.6186
1269.63	48.7008
1269.91	46.5935
1270.18	57.0519
1270.46	44.4805
1270.73	47.615
1271.01	45.518
1271.28	47.609
1271.56	44.4778
1271.83	46.5833
1272.1	44.5048
1272.38	49.7567
1272.65	49.7694
1272.93	45.5905
1273.2	45.6025
1273.48	47.7118
1273.75	48.7707
1274.03	49.8243
1274.3	50.873
1274.58	50.8722
1274.85	49.8265
1275.13	45.6372
1275.4	47.7436
1275.68	46.7043
1275.95	51.9628
1276.22	47.7728
1276.5	45.6802
1276.78	40.4379
1277.05	52.0043
1277.32	48.8644
1277.6	43.6196
1277.87	49.9354
1278.15	50.9998
1278.42	44.6997
1278.7	49.9676
1278.97	45.7608
1279.24	45.7578
1279.52	44.7009
1279.79	48.9043
1280.07	53.1134
1280.34	49.9617
1280.62	52.0753
1280.89	49.9871
1281.17	56.3135
1281.44	54.2087
1281.71	64.7377
1281.99	66.8536
1282.26	73.1664
1282.54	99.4558
1282.81	104.627
1283.09	131.887
1283.36	167.618
1283.63	182.276
1283.91	182.716
1284.18	138.554
1284.46	103.804
1284.73	80.5856
1285.01	67.9132
1285.28	54.2181
1285.55	52.1244
1285.83	45.8136
1286.1	42.6427
1286.38	44.7477
1286.65	39.4823
1286.93	44.7415
1287.2	40.523
1287.47	40.5167
1287.75	44.7246
1288.02	42.6211
1288.3	41.5701
1288.57	36.3127
1288.84	35.2666
1289.12	43.6962
1289.39	40.5455
1289.67	40.5542
1289.94	37.398
1290.21	40.5534
1290.49	38.4436
1290.76	37.3896
1291.04	38.4426
1291.31	37.3887
1291.58	38.4404
1291.86	37.3896
1292.13	35.2844
1292.4	38.4393
1292.68	35.2798
1292.95	36.3393
1293.23	36.3558
1293.5	39.5327
1293.77	35.3278
1294.05	36.3807
1294.32	33.2174
1294.59	38.4895
1294.87	38.5038
1295.14	39.5783
1295.42	38.5475
1295.69	35.4013
1295.96	38.5794
1296.24	34.3527
1296.51	34.3516
1296.79	38.5733
1297.06	37.5095
1297.33	37.5014
1297.61	34.3239
1297.88	39.601
1298.15	35.3798
1298.43	36.4301
1298.7	36.4247
1298.97	31.1413
1299.25	38.5274
1299.52	36.42
1299.79	40.6489
1300.07	32.2043
1300.34	38.539
1300.61	40.649
1300.89	31.147
1301.16	41.7103
1301.44	38.549
1301.71	39.6098
1301.98	36.443
1302.26	33.2743
1302.53	32.2166
1302.8	35.3823
1303.08	34.3211
1303.35	36.4296
1303.62	39.5975
1303.9	34.3183
1304.17	35.3741
1304.44	34.3156
1304.72	39.589
1304.99	33.248
1305.26	35.3512
1305.54	34.2878
1305.81	34.2804
1306.08	33.2213
1306.36	33.22
1306.63	37.4407
1306.9	34.2787
1307.18	32.1693
1307.45	33.2235
1307.72	31.1157
1307.99	35.3336
1308.27	34.2791
1308.54	34.2836
1308.81	32.1785
1309.09	36.4042
1309.36	34.2982
1309.63	32.1881
1309.91	34.2967
1310.18	31.1302
1310.45	37.4629
1310.73	34.2989
1311	35.356
1311.27	30.0805
1311.54	31.1409
1311.82	37.4811
1312.09	37.4848
1312.36	32.2065
1312.64	33.2573
1312.91	36.4214
1313.18	35.364
1313.45	33.2498
1313.73	37.4708
1314	36.4167
1314.27	29.0303
1314.55	31.1453
1314.82	35.3728
1315.09	33.2652
1315.36	32.2135
1315.64	34.3272
1315.91	37.4936
1316.18	36.4356
1316.46	37.4906
1316.73	34.322
1317	36.4371
1317.28	36.4417
1317.55	34.3318
1317.82	37.5028
1318.09	34.3347
1318.37	31.1658
1318.64	38.5606
1318.91	38.5593
1319.18	34.3323
1319.46	36.4461
1319.73	34.3346
1320	34.3338
1320.27	32.2176
1320.55	33.2676
1320.82	35.3709
1321.09	34.3044
1321.36	33.2416
1321.64	32.1782
1321.91	33.2271
1322.18	32.1679
1322.45	35.3272
1322.73	35.32
1323	36.3751
1323.27	30.0511
1323.54	28.9977
1323.82	34.2692
1324.09	34.2697
1324.36	35.3229
1324.63	34.2713
1324.91	35.3211
1325.18	31.0918
1325.45	31.0764
1325.72	33.1586
1325.99	36.3012
1326.27	34.1903
1326.54	35.2471
1326.81	33.1647
1327.08	34.232
1327.36	36.3511
1327.63	36.3648
1327.9	35.325
1328.17	36.3924
1328.45	35.3466
1328.72	31.1201
1328.99	35.3442
1329.26	37.4539
1329.53	33.2317
1329.81	34.2831
1330.08	29.0041
1330.35	32.1615
1330.62	31.0986
1330.9	37.4114
1331.17	32.1275
1331.44	33.1678
1331.71	34.2114
1331.98	37.3588
1332.26	34.1906
1332.53	33.1265
1332.8	31.013
1333.07	34.156
1333.34	33.0957
1333.62	34.1367
1333.89	35.1778
1334.16	36.2187
1334.43	36.2107
1334.7	36.2038
1334.98	30.9509
1335.25	33.0434
1335.52	37.2332
1335.79	33.0327
1336.06	36.1738
1336.34	36.1692
1336.61	34.0691
1336.88	36.1625
1337.15	35.1113
1337.42	30.9139
1337.69	34.0475
1337.96	35.0897
1338.24	31.9427
1338.51	28.7963
1338.78	34.0303
1339.05	34.0305
1339.32	38.2214
1339.6	34.0341
1339.87	34.0347
1340.14	29.8473
1340.41	34.0366
1340.68	34.0352
1340.95	34.0334
1341.23	37.1715
1341.5	34.0256
1341.77	40.2996
1342.04	35.0574
1342.31	36.0942
1342.58	35.0409
1342.86	33.9919
1343.13	29.8068
1343.4	33.9897
1343.67	35.0358
1343.94	35.0363
1344.21	35.0347
1344.48	36.0756
1344.76	31.8866
1345.03	29.7876
1345.3	38.138
1345.57	34.9933
1345.84	36.0224
1346.11	36.0075
1346.39	32.8669
1346.66	33.9
1346.93	33.8901
1347.2	35.9676
1347.47	35.9623
1347.74	31.7896
1348.01	40.1247
1348.28	31.7834
1348.55	35.9455
1348.83	34.897
1349.1	38.015
1349.37	36.9668
1349.64	33.8369
1349.91	31.7489
1350.18	33.8235
1350.45	30.6937
1350.73	34.8487
1351	35.8811
1351.27	34.8359
1351.54	36.9141
1351.81	33.7967
1352.08	34.8427
1352.35	30.691
1352.62	39.0211
1352.89	33.8379
1353.17	36.9984
1353.44	36.9899
1353.71	32.7787
1353.98	31.6978
1354.25	33.7671
1354.52	36.8889
1354.79	35.843
1355.06	33.7518
1355.33	36.874
1355.6	32.7334
1355.88	32.7233
1356.15	35.8361
1356.42	36.8716
1356.69	36.8685
1356.96	37.9027
1357.23	41.012
1357.5	36.8528
1357.77	35.8083
1358.04	36.8397
1358.31	35.7959
1358.58	36.8254
1358.86	35.7825
1359.13	35.7779
1359.4	35.7718
1359.67	35.7604
1359.94	40.9319
1360.21	36.7778
1360.48	37.8095
1360.75	42.9874
1361.02	34.7002
1361.29	35.734
1361.56	34.6955
1361.83	34.691
1362.1	42.9715
1362.37	36.7561
1362.65	38.8278
1362.92	38.8327
1363.19	38.8393
1363.46	35.736
1363.73	46.0977
1364	40.9155
1364.27	42.9836
1364.54	38.835
1364.81	41.9331
1365.08	35.7125
1365.35	38.809
1365.62	42.9391
1365.89	38.7916
1366.16	46.0207
1366.43	38.769
1366.7	45.9942
1366.97	49.0899
1367.24	42.89
1367.52	45.9963
1367.79	44.9654
1368.06	43.9344
1368.33	47.0386
1368.6	54.2792
1368.87	48.0797
1369.14	53.2478
1369.41	47.0382
1369.68	49.1004
1369.95	48.0575
1370.22	48.0482
1370.49	45.9746
1370.76	46.9966
1371.03	46.982
1371.3	47.9971
1371.57	44.8832
1371.84	53.1184
1372.11	50.0093
1372.38	53.0917
1372.65	49.9917
1372.92	53.0772
1373.19	56.1629
1373.46	52.0361
1373.73	58.2143
1374	58.2104
1374.27	64.3875
1374.54	63.3504
1374.81	50.9881
1375.08	62.3248
1375.35	64.3871
1375.62	64.3898
1375.89	60.2604
1376.16	67.4548
1376.43	62.2874
1376.7	75.64
1376.97	79.7509
1377.24	81.8254
1377.51	71.5574
1377.78	90.1307
1378.05	89.1515
1378.32	89.179
1378.59	91.2446
1378.86	97.421
1379.13	96.3773
1379.4	97.3916
1379.67	103.545
1379.94	99.349
1380.21	112.672
1380.48	104.387
1380.75	108.511
1381.02	114.67
1381.29	113.596
1381.56	110.457
1381.83	108.353
1382.1	110.367
1382.37	109.296
1382.64	108.239
1382.91	109.23
1383.18	99.9801
1383.45	104.061
1383.72	100.985
1383.99	107.142
1384.26	98.9555
1384.53	101.026
1384.8	102.095
1385.07	102.123
1385.34	107.286
1385.61	113.457
1385.87	119.645
1386.14	151.502
1386.41	204.923
1386.68	307.608
1386.95	394.164
1387.22	367.86
1387.49	233.469
1387.76	142.643
1388.03	108.062
1388.3	90.7636
1388.57	75.4657
1388.84	71.3522
1389.11	70.3475
1389.38	67.2557
1389.65	60.0328
1389.92	57.9243
1390.19	55.8966
1390.46	57.9137
1390.73	54.8302
1390.99	55.8546
1391.26	52.7696
1391.53	45.5852
1391.8	52.7429
1392.07	49.6614
1392.34	43.5115
1392.61	51.6956
1392.88	43.5018
1393.15	46.5681
1393.42	41.4473
1393.69	48.6075
1393.96	41.4417
1394.23	41.4396
1394.5	43.4867
1394.76	45.5419
1395.03	40.4304
1395.3	40.4339
1395.57	42.4812
1395.84	45.5492
1396.11	35.3097
1396.38	36.3286
1396.65	37.3465
1396.92	39.385
1397.19	37.3342
1397.46	39.3782
1397.73	42.4483
1397.99	43.4755
1398.26	40.4105
1398.53	37.3436
1398.8	39.3945
1399.07	41.4469
1399.34	37.3572
1399.61	40.4292
1399.88	39.4086
1400.14	35.3216
1400.41	35.3279
1400.68	41.4731
1400.95	39.4272
1401.22	40.4533
1401.49	37.3883
1401.76	43.5549
1402.03	36.4028
1402.3	35.3955
1402.57	37.4613
1402.83	35.4165
1403.1	39.5257
1403.37	36.4418
1403.64	39.504
1403.91	41.5515
1404.18	30.2661
1404.45	37.4441
1404.72	36.4127
1404.99	36.4062
1405.25	33.3238
1405.52	38.4441
1405.79	39.4645
1406.06	34.336
1406.33	35.3612
1406.6	42.5386
1406.87	45.6177
1407.13	39.4698
1407.4	38.447
1407.67	40.5
1407.94	47.6801
1408.21	46.658
1408.48	48.7133
1408.75	50.7689
1409.01	44.6189
1409.28	42.5703
1409.55	39.4949
1409.82	34.3614
1410.09	36.4041
1410.36	36.393
1410.62	35.3587
1410.89	33.3027
1411.16	33.2977
1411.43	37.3927
1411.7	34.3221
1411.97	32.2802
1412.23	33.3183
1412.5	36.4348
1412.77	33.3891
1413.04	36.4642
1413.31	33.3299
1413.58	34.3485
1413.84	36.4201
1414.11	32.3388
1414.38	30.2853
1414.65	36.4463
1414.92	30.2868
1415.19	35.4206
1415.45	30.2895
1415.72	28.2385
1415.99	31.3223
1416.26	34.4067
1416.53	34.4109
1416.8	34.4151
1417.06	30.3097
1417.33	29.2847
1417.6	32.3683
1417.87	28.2586
1418.14	31.3442
1418.4	33.3991
1418.67	28.2629
1418.94	32.372
1419.21	31.3393
1419.48	29.2782
1419.74	33.3816
1420.01	30.2946
1420.28	29.2614
1420.55	31.3085
1420.82	32.3304
1421.08	33.3569
1421.35	33.362
1421.62	33.3761
1421.89	31.3296
1422.16	33.4004
1422.42	31.3649
1422.69	30.3703
1422.96	33.4629
1423.23	32.2751
1423.5	32.3148
1423.76	29.2105
1424.03	30.2116
1424.3	31.2617
1424.57	34.3323
1424.83	34.3775
1425.1	31.2682
1425.37	30.2647
1425.64	30.2626
1425.91	29.2341
1426.17	36.405
1426.44	30.2445
1426.71	34.3356
1426.98	31.2508
1427.24	32.2615
1427.51	31.2314
1427.78	33.276
1428.05	29.1803
1428.32	33.2776
1428.58	33.2802
1428.85	30.2114
1429.12	32.2642
1429.38	26.1237
1429.65	32.2786
1429.92	35.3619
1430.19	28.1935
1430.46	30.2561
1430.72	30.269
1430.99	31.3026
1431.26	36.437
1431.53	35.4071
1431.79	28.2165
1432.06	27.1852
1432.33	29.2315
1432.6	28.1954
1432.86	29.2094
1433.13	30.2217
1433.4	28.1641
1433.67	30.2079
1433.93	32.2617
1434.2	31.2517
1434.47	29.204
1434.73	37.4027
1435	29.2047
1435.27	30.2284
1435.54	31.2516
1435.8	30.2251
1436.07	32.2718
1436.34	31.2445
1436.6	36.3634
1436.87	29.1917
1437.14	27.1416
1437.41	35.3323
1437.67	26.1156
1437.94	34.3129
1438.21	32.2684
1438.48	31.246
1438.74	32.272
1439.01	31.2512
1439.28	36.3817
1439.54	31.2658
1439.81	30.2465
1440.08	32.3001
1440.35	32.3014
1440.61	27.1754
1440.88	30.2514
1441.15	27.1716
1441.41	30.2442
1441.68	31.2725
1441.95	31.2756
1442.21	31.2801
1442.48	30.2547
1442.75	27.1739
1443.02	29.2204
1443.28	33.3178
1443.55	32.2908
1443.82	28.191
1444.08	33.3237
1444.35	32.3067
1444.62	27.1873
1444.88	31.2931
1445.15	30.2645
1445.42	29.2362
1445.69	28.2081
1445.95	33.3345
1446.22	33.3321
1446.49	30.2532
1446.75	29.2252
1447.02	34.3485
1447.28	28.1935
1447.55	29.2173
1447.82	31.2711
1448.09	29.2273
1448.35	31.2822
1448.62	26.1546
1448.89	27.1788
1449.15	26.1504
1449.42	28.1974
1449.69	32.2933
1449.95	29.2148
1450.22	28.1876
1450.49	29.2105
1450.75	32.2828
1451.02	32.2799
1451.29	28.1782
1451.55	32.2742
1451.82	27.1498
1452.09	31.248
1452.35	27.1507
1452.62	31.2522
1452.88	27.1567
1453.15	31.2575
1453.42	32.2808
1453.68	30.2293
1453.95	27.1548
1454.22	27.1551
1454.48	29.2044
1454.75	30.2273
1455.02	32.2753
1455.28	30.231
1455.55	31.2601
1455.81	29.2113
1456.08	29.2102
1456.35	30.2308
1456.61	25.1023
1456.88	29.1982
1457.15	30.2208
1457.41	28.1703
1457.68	30.2191
1457.95	26.122
1458.21	30.2213
1458.48	29.1986
1458.74	27.1505
1459.01	29.2011
1459.28	31.2498
1459.54	29.199
1459.81	26.1238
1460.08	31.2438
1460.34	30.2168
1460.61	30.213
1460.87	25.0891
1461.14	33.2772
1461.41	28.1532
1461.67	30.1957
1461.94	28.1431
1462.2	32.2301
1462.47	30.1771
1462.74	30.1702
1463	29.1406
1463.27	31.1807
1463.54	28.1182
1463.8	27.1101
1464.07	30.1902
1464.33	32.2485
1464.6	33.2885
1464.86	32.1878
1465.13	32.1554
1465.4	31.1195
1465.66	27.0493
1465.93	26.0322
1466.19	32.1446
1466.46	29.0712
1466.73	26.0166
1466.99	32.1366
1467.26	33.1544
1467.52	30.0922
1467.79	29.0717
1468.05	27.0312
1468.32	29.0704
1468.59	26.0082
1468.85	33.1439
1469.12	30.0803
1469.38	28.0343
1469.65	28.0283
1469.92	25.9861
1470.18	31.0778
1470.45	28.0182
1470.71	29.0352
1470.98	26.9921
1471.24	33.0981
1471.51	33.0951
1471.77	30.0389
1472.04	29.0199
1472.31	33.092
1472.57	27.9997
1472.84	29.0146
1473.1	29.0099
1473.37	26.9708
1473.64	27.9859
1473.9	26.9675
1474.17	30.0219
1474.43	31.0429
1474.7	34.0972
1474.96	25.9544
1475.23	34.0949
1475.49	26.9674
1475.76	26.9641
1476.02	26.9621
1476.29	26.9589
1476.55	30.0056
1476.82	26.9509
1477.09	27.9668
1477.35	30
1477.62	24.9138
1477.88	32.0266
1478.15	28.9715
1478.41	32.0166
1478.68	30.9953
1478.94	27.9417
1479.21	31.9995
1479.47	28.9459
1479.74	29.9528
1480	29.9433
1480.27	27.9069
1480.53	27.9032
1480.8	29.9286
1481.07	28.9137
1481.33	27.9029
1481.6	27.9078
1481.86	26.8982
1482.12	31.979
1482.39	35.0269
1482.65	27.922
1482.92	26.9091
1483.19	29.9563
1483.45	27.925
1483.72	34.0091
1483.98	26.8897
1484.25	27.8806
1484.51	31.8963
1484.78	30.859
1485.04	31.8478
1485.31	31.8857
1485.57	23.8122
1485.84	30.9173
1486.1	25.8341
1486.37	28.8719
1486.63	24.8271
1486.9	31.9164
1487.16	31.9083
1487.43	33.9285
1487.69	29.8729
1487.96	31.892
1488.22	31.8846
1488.49	27.83
1488.75	33.8974
1489.02	27.8237
1489.28	25.7982
1489.54	27.8208
1489.81	30.8557
1490.07	26.807
1490.34	30.8481
1490.6	23.7634
1490.87	35.8933
1491.13	31.847
1491.4	26.7914
1491.66	29.8255
1491.93	29.8254
1492.19	26.791
1492.46	25.779
1492.72	31.8446
1492.99	27.7994
1493.25	30.8305
1493.52	29.8195
1493.78	29.8209
1494.04	26.7908
1494.31	29.824
1494.57	28.8099
1494.84	28.803
1495.1	25.7622
1495.37	30.8039
1495.63	33.8265
1495.9	27.7639
1496.16	33.8175
1496.43	28.7657
1496.69	27.7552
1496.96	30.7831
1497.22	25.7355
1497.48	26.7438
1497.75	28.7622
1498.01	30.7811
1498.28	25.7358
1498.54	29.774
1498.81	31.7943
1499.07	31.7969
1499.33	30.7905
1499.6	32.8114
1499.86	26.7542
1500.13	30.7916
1500.39	33.8196
1500.66	31.7987
1500.92	33.8107
1501.18	31.7892
1501.45	26.7424
1501.71	31.7871
1501.98	31.7855
1502.24	28.7532
1502.51	26.7291
1502.77	32.778
1503.03	29.7461
1503.3	27.7275
1503.56	30.7552
1503.83	27.7318
1504.09	25.7157
1504.35	28.7405
1504.62	32.7715
1504.88	30.7509
1505.15	26.713
1505.41	29.7239
1505.68	25.6905
1505.94	30.7269
1506.2	28.711
1506.47	28.7164
1506.73	26.7023
1507	34.7654
1507.26	27.7121
1507.52	30.7337
1507.79	30.7311
1508.05	29.7236
1508.32	30.7325
1508.58	31.741
1508.84	30.7333
1509.11	32.7477
1509.37	27.7107
1509.63	29.7326
1509.9	30.7346
1510.16	28.7144
1510.43	28.708
1510.69	26.687
1510.95	25.6716
1511.22	30.6898
1511.48	28.6617
1511.75	30.6587
1512.01	31.6477
1512.27	29.6303
1512.54	30.6275
1512.8	33.6329
1513.07	30.6163
1513.33	27.6061
1513.59	28.6239
1513.86	31.6441
1514.12	28.6281
1514.38	30.632
1514.65	29.6187
1514.91	32.6238
1515.17	25.5895
1515.44	29.5946
1515.7	24.5718
1515.96	29.5832
1516.23	27.5754
1516.49	24.5653
1516.76	28.5747
1517.02	30.5801
1517.28	30.5815
1517.55	25.572
1517.81	26.5777
1518.07	29.5883
1518.34	31.5964
1518.6	32.602
1518.86	28.5918
1519.13	33.61
1519.39	23.5774
1519.65	29.5953
1519.92	26.5835
1520.18	29.5932
1520.44	32.6054
1520.71	29.5985
1520.97	28.5969
1521.23	29.6
1521.5	30.6013
1521.76	26.5854
1522.02	27.5854
1522.29	28.5854
1522.55	26.5758
1522.81	28.5746
1523.08	27.5622
1523.34	30.5594
1523.6	31.5541
1523.87	32.5498
1524.13	28.5391
1524.39	28.5393
1524.66	31.5458
1524.92	27.5411
1525.18	28.5456
1525.45	30.554
1525.71	28.5571
1525.97	29.5659
1526.24	25.5603
1526.5	30.5728
1526.76	31.5721
1527.02	30.5671
1527.29	26.5563
1527.55	27.5562
1527.81	31.5611
1528.08	32.5595
1528.34	29.5512
1528.6	32.5543
1528.87	31.5518
1529.13	29.5472
1529.39	31.5464
1529.65	27.5381
1529.92	25.5363
1530.18	31.55
1530.44	31.5565
1530.71	28.5561
1530.97	29.5603
1531.23	31.5632
1531.5	28.5573
1531.76	30.5587
1532.02	31.5614
1532.28	34.5744
1532.55	34.5858
1532.81	26.5748
1533.07	30.5923
1533.34	32.6019
1533.6	28.5901
1533.86	27.5859
1534.12	30.5932
1534.39	28.5844
1534.65	31.5905
1534.91	28.5781
1535.17	29.569
1535.44	30.5599
1535.7	27.5475
1535.96	33.5478
1536.22	30.5326
1536.49	31.5224
1536.75	27.5145
1537.01	30.5092
1537.28	29.5076
1537.54	31.5043
1537.8	30.4952
1538.06	33.4893
1538.33	28.4872
1538.59	28.491
1538.85	29.5041
1539.11	28.524
1539.38	30.5433
1539.64	30.5567
1539.9	30.5704
1540.16	28.5751
1540.43	30.5875
1540.69	31.5807
1540.95	28.5695
1541.21	25.5569
1541.48	29.5583
1541.74	32.5562
1542	27.5407
1542.26	29.5367
1542.52	30.5312
1542.79	31.525
1543.05	33.5171
1543.31	30.5036
1543.57	31.502
1543.84	25.5026
1544.1	30.5077
1544.36	31.5173
1544.62	33.5253
1544.89	28.5322
1545.15	32.5459
1545.41	28.5444
1545.67	35.5607
1545.93	27.5461
1546.2	28.5481
1546.46	28.5509
1546.72	31.5598
1546.98	33.5687
1547.25	30.561
1547.51	31.5456
1547.77	34.5464
1548.03	28.5362
1548.29	30.5533
1548.56	32.538
1548.82	30.5014
1549.08	29.4849
1549.34	30.4941
1549.61	29.5174
1549.87	29.5625
1550.13	33.6066
1550.39	34.6602
1550.65	29.6214
1550.91	25.6046
1551.18	30.6235
1551.44	32.6164
1551.7	30.617
1551.96	29.6298
1552.22	28.6243
1552.49	31.6348
1552.75	31.6099
1553.01	30.5975
1553.27	28.5891
1553.53	33.5995
1553.79	33.5907
1554.06	30.5736
1554.32	33.567
1554.58	31.5574
1554.84	30.5529
1555.1	35.5605
1555.37	32.5567
1555.63	31.5579
1555.89	32.5541
1556.15	26.5433
1556.41	33.5567
1556.68	31.5554
1556.94	31.5567
1557.2	28.5506
1557.46	34.5579
1557.72	33.545
1557.98	31.5354
1558.25	31.525
1558.51	29.514
1558.77	32.5063
1559.03	31.4988
1559.29	33.4924
1559.55	35.4865
1559.82	27.4863
1560.08	31.4817
1560.34	34.4773
1560.6	34.4763
1560.86	34.4771
1561.12	31.4839
1561.38	30.4911
1561.65	35.5024
1561.91	30.5046
1562.17	32.5041
1562.43	30.5014
1562.69	35.5023
1562.95	29.5005
1563.21	35.497
1563.48	29.5037
1563.74	32.5168
1564	32.524
1564.26	34.5263
1564.52	28.513
1564.78	35.47
1565.04	32.4002
1565.3	34.323
1565.57	34.4115
1565.83	34.489
1566.09	32.4917
1566.35	34.4661
1566.61	27.4818
1566.87	33.5097
1567.13	27.5127
1567.39	38.4941
1567.66	32.4904
1567.92	35.4944
1568.18	34.4981
1568.44	36.4974
1568.7	30.489
1568.96	32.4791
1569.22	33.4762
1569.48	33.4783
1569.75	28.4827
1570.01	37.478
1570.27	29.4825
1570.53	33.479
1570.79	28.4802
1571.05	36.4699
1571.31	36.4631
1571.57	30.4671
1571.83	30.4644
1572.1	25.4658
1572.36	32.4512
1572.62	33.445
1572.88	33.4397
1573.14	35.4304
1573.4	33.4329
1573.66	32.439
1573.92	28.4526
1574.18	34.4506
1574.44	33.4604
1574.7	36.4658
1574.97	33.4757
1575.23	37.4767
1575.49	33.4777
1575.75	33.4768
1576.01	34.4739
1576.27	31.4684
1576.53	25.4652
1576.79	32.4439
1577.05	32.4325
1577.31	35.4148
1577.57	32.4119
1577.83	31.4073
1578.1	33.398
1578.36	33.3972
1578.62	35.3907
1578.88	34.3938
1579.14	40.3766
1579.4	34.3993
1579.66	33.4055
1579.92	35.4013
1580.18	33.4063
1580.44	36.3947
1580.7	33.3984
1580.96	33.3941
1581.22	38.3715
1581.48	35.3735
1581.74	33.3768
1582	36.3633
1582.26	38.3528
1582.53	33.3697
1582.79	39.3448
1583.05	32.3718
1583.31	36.3527
1583.57	29.3797
1583.83	35.3576
1584.09	33.3681
1584.35	35.3621
1584.61	37.3547
1584.87	34.3647
1585.13	35.3598
1585.39	38.3458
1585.65	32.3636
1585.91	29.3688
1586.17	39.3164
1586.43	40.3058
1586.69	30.3503
1586.95	31.3424
1587.21	36.315
1587.47	39.299
1587.73	36.3164
1587.99	38.3101
1588.25	37.3203
1588.51	36.3296
1588.77	39.3207
1589.03	33.3516
1589.29	36.3404
1589.55	33.3533
1589.81	39.3291
1590.07	35.3501
1590.33	35.3544
1590.59	36.3501
1590.85	38.3418
1591.12	37.344
1591.38	35.3496
1591.64	36.3391
1591.9	38.3188
1592.16	36.3181
1592.42	38.3031
1592.68	37.2967
1592.94	33.3058
1593.2	39.254
1593.46	38.2484
1593.72	34.2682
1593.98	40.2258
1594.24	40.2286
1594.5	35.2689
1594.76	39.2486
1595.02	36.2729
1595.28	37.2507
1595.54	39.2324
1595.8	30.2932
1596.06	32.2796
1596.32	36.2534
1596.58	36.2555
1596.84	30.2981
1597.09	31.2947
1597.35	37.2561
1597.61	35.2667
1597.87	38.2416
1598.13	40.2181
1598.39	38.2221
1598.65	46.1551
1598.91	40.1926
1599.17	37.2092
1599.43	39.1869
1599.69	40.1725
1599.95	36.1984
1600.21	40.1566
1600.47	38.1625
1600.73	40.132
1600.99	32.194
1601.25	37.136
1601.51	40.0979
1601.77	43.0597
1602.03	42.0613
1602.29	40.0724
1602.55	39.0739
1602.81	36.0989
1603.07	37.0826
1603.33	43.0113
1603.59	34.1109
1603.85	36.0884
1604.11	42.0221
1604.37	37.0787
1604.63	38.0681
1604.89	39.058
1605.14	39.06
1605.4	38.0756
1605.66	43.0258
1605.92	40.0638
1606.18	36.1109
1606.44	38.0932
1606.7	40.074
1606.96	35.1266
1607.22	40.1243
1607.48	41.1795
1607.74	41.3601
1608	44.1131
1608.26	38.6555
1608.52	41.5189
1608.78	39.8906
1609.04	43.9447
1609.29	40.1977
1609.55	44.4668
1609.81	38.9135
1610.07	46.4633
1610.33	44.0307
1610.59	43.3997
1610.85	45.2012
1611.11	41.7805
1611.37	46.6844
1611.63	38.9724
1611.89	43.206
1612.15	41.4723
1612.4	39.444
1612.66	44.9696
1612.92	43.0122
1613.18	42.7718
1613.44	45.7143
1613.7	44.7046
1613.96	40.6078
1614.22	42.1277
1614.48	41.738
1614.74	43.5803
1615	46.2499
1615.25	42.2718
1615.51	46.3438
1615.77	45.1654
1616.03	47.1213
1616.29	42.1082
1616.55	44.8122
1616.81	48.8367
1617.07	43.7681
1617.33	42.9187
1617.59	49.1223
1617.84	46.0816
1618.1	46.8308
1618.36	45.3437
1618.62	46.9355
1618.88	49.3621
1619.14	50.4783
1619.4	48.887
1619.66	47.4156
1619.91	45.2373
1620.17	48.083
1620.43	48.9564
1620.69	49.4821
1620.95	48.2039
1621.21	48.3394
1621.47	50.6994
1621.73	50.588
1621.98	49.9615
1622.24	52.4813
1622.5	50.8771
1622.76	52.4989
1623.02	50.8968
1623.28	47.404
1623.54	47.3004
1623.79	49.6498
1624.05	50.7627
1624.31	50.5816
1624.57	53.2407
1624.83	50.4488
1625.09	50.2155
1625.35	50.4526
1625.6	51.4607
1625.86	46.8755
1626.12	54.6814
1626.38	52.8801
1626.64	49.3835
1626.9	52.9425
1627.16	58.0887
1627.41	54.5873
1627.67	50.5452
1627.93	50.1726
1628.19	54.0844
1628.45	54.021
1628.71	50.939
1628.96	51.547
1629.22	51.0167
1629.48	54.8502
1629.74	55.7856
1630	54.7387
1630.26	49.4152
1630.51	54.3344
1630.77	54.4051
1631.03	54.5645
1631.29	49.8767
1631.3	49.7585
1631.56	57.6515
1631.82	54.695
1632.08	51.7494
1632.34	57.6913
1632.6	55.7093
1632.86	53.71
1633.13	57.6408
1633.39	56.6614
1633.65	56.6708
1633.91	58.6465
1634.17	52.7344
1634.43	56.677
1634.69	60.6179
1634.96	57.6579
1635.22	57.6535
1635.48	58.6334
1635.74	54.6853
1636	52.7082
1636.26	52.7013
1636.52	55.648
1636.79	54.6528
1637.05	59.5702
1637.31	57.5993
1637.57	51.6873
1637.83	54.6354
1638.09	54.6304
1638.35	51.6781
1638.61	56.6005
1638.87	58.5687
1639.13	56.5999
1639.4	51.6778
1639.66	53.6446
1639.92	51.6756
1640.18	59.5623
1640.44	56.6177
1640.7	58.5909
1640.96	54.6491
1641.22	54.6428
1641.48	60.5459
1641.75	46.7605
1642.01	49.712
1642.27	61.522
1642.53	52.6612
1642.79	57.5812
1643.05	59.5493
1643.31	59.5448
1643.57	56.5864
1643.83	58.5463
1644.09	53.6178
1644.35	56.5675
1644.62	57.5536
1644.88	53.6273
1645.14	54.6152
1645.4	54.618
1645.66	52.645
1645.92	54.6066
1646.18	54.6007
1646.44	60.4991
1646.7	56.5597
1646.96	50.6516
1647.22	54.5811
1647.48	54.5787
1647.74	60.4817
1648.01	52.6224
1648.27	59.5192
1648.53	54.6229
1648.79	54.6434
1649.05	58.574
1649.31	60.5373
1649.57	57.5816
1649.83	51.6884
1650.09	51.704
1650.35	58.6082
1650.61	53.6943
1650.87	51.7316
1651.13	62.5752
1651.39	54.6926
1651.65	50.751
1651.92	57.6513
1652.18	60.6043
1652.44	61.5817
1652.7	60.5925
1652.96	58.6219
1653.22	53.698
1653.48	49.7616
1653.74	60.6057
1654	52.7246
1654.26	55.6848
1654.52	54.7059
1654.78	52.7448
1655.04	54.7319
1655.3	58.6976
1655.56	50.8196
1655.82	55.7633
1656.08	54.7822
1656.34	55.7725
1656.6	59.7204
1656.86	57.7419
1657.12	51.8143
1657.38	56.7449
1657.64	52.7937
1657.9	51.8018
1658.16	51.7948
1658.42	57.706
1658.69	54.7386
1658.95	57.689
1659.21	53.7365
1659.47	55.6969
1659.73	55.6988
1659.99	54.72
1660.25	56.7007
1660.51	54.7385
1660.77	50.803
1661.03	53.7744
1661.29	50.819
1661.55	52.8039
1661.81	45.8418
1662.07	48.8856
1662.33	47.963
1662.59	49.915
1662.85	54.8468
1663.11	52.8816
1663.37	56.681
1663.63	53.7888
1663.89	53.8058
1664.15	53.8057
1664.41	54.8213
1664.67	52.8681
1664.93	48.8764
1665.19	46.8081
1665.45	49.922
1665.71	49.9404
1665.97	51.9039
1666.23	45.9642
1666.49	54.5827
1666.75	54.7915
1667.01	48.8575
1667.27	49.8347
1667.53	53.7781
1667.79	50.8084
1668.05	48.8336
1668.31	52.7987
1668.56	51.8477
1668.83	49.8798
1669.09	53.8319
1669.35	50.8707
1669.6	50.8687
1669.86	43.9492
1670.12	47.9224
1670.38	47.9456
1670.64	42.0103
1670.9	53.8671
1671.16	46.9465
1671.42	47.9356
1671.68	46.9523
1671.94	48.9312
1672.2	47.9432
1672.46	45.9657
1672.72	48.9326
1672.98	46.9576
1673.24	48.9381
1673.5	44.9881
1673.76	44.9943
1674.02	47.9675
1674.28	47.9737
1674.54	49.9611
1674.8	47.991
1675.06	49.975
1675.32	53.9353
1675.58	46.0176
1675.83	51.9566
1676.1	48.0008
1676.35	48.9924
1676.61	45.0332
1676.87	44.0414
1677.13	41.0689
1677.39	49.9689
1677.65	38.0881
1677.91	47.9708
1678.17	48.9506
1678.43	47.9548
1678.69	44.983
1678.95	47.9446
1679.21	42.0093
1679.47	42.005
1679.73	45.9548
1679.98	48.915
1680.25	46.9338
1680.5	45.9416
1680.76	45.9391
1681.02	49.8899
1681.28	40.9983
1681.54	43.962
1681.8	47.9141
1682.06	38.0358
1682.32	43.9622
1682.58	54.8277
1682.84	43.9604
1683.1	43.9603
1683.35	44.9473
1683.61	41.9814
1683.87	50.8646
1684.13	44.9343
1684.39	39.0067
1684.65	45.9177
1684.91	45.9168
1685.17	44.9291
1685.43	39.0047
1685.69	44.9304
1685.95	38.0205
1686.2	43.955
1686.46	40.9968
1686.72	43.9624
1686.98	43.9596
1687.24	43.9546
1687.5	42.9618
1687.76	43.9454
1688.02	44.9283
1688.28	42.9479
1688.54	38.9899
1688.79	41.9441
1689.05	42.9236
1689.31	44.8887
1689.57	40.9329
1689.83	34.0234
1690.09	45.8697
1690.35	43.9031
1690.6	40.9473
1690.86	40.9499
1691.12	42.9271
1691.38	43.919
1691.64	40.9588
1691.9	44.9046
1692.16	41.9386
1692.42	40.944
1692.68	40.9351
1692.93	45.8549
1693.19	38.9405
1693.45	37.9458
1693.71	38.9243
1693.97	34.9752
1694.23	41.8649
1694.49	45.8034
1694.74	38.9104
1695	41.8682
1695.26	40.8854
1695.52	37.9325
1695.78	35.9665
1696.04	38.9271
1696.3	40.8986
1696.55	35.9682
1696.81	42.859
1697.07	40.8784
1697.33	38.898
1697.59	40.8584
1697.85	39.8667
1698.11	35.9233
1698.36	41.8226
1698.62	41.8191
1698.88	39.8499
1699.14	37.8836
1699.4	37.8844
1699.66	36.901
1699.92	36.8957
1700.17	34.9253
1700.43	35.9077
1700.69	37.8732
1700.95	35.9028
1701.21	36.8809
1701.46	40.807
1701.72	37.8501
1701.98	39.8086
1702.24	37.8357
1702.5	38.8153
1702.76	34.8836
1703.01	34.8816
1703.27	36.8434
1703.53	37.8233
1703.79	34.8784
1704.05	34.8831
1704.3	35.8676
1704.56	40.7795
1704.82	39.7943
1705.08	39.794
1705.34	34.8818
1705.6	33.8946
1705.85	38.7988
1706.11	38.7898
1706.37	37.7982
1706.63	35.8255
1706.89	36.7994
1707.14	33.8467
1707.4	31.8744
1707.66	35.7859
1707.92	35.7748
1708.18	31.8426
1708.43	35.7493
1708.69	34.7614
1708.95	34.7557
1709.21	35.7319
1709.47	31.8153
1709.72	36.7107
1709.98	32.7958
1710.24	37.6931
1710.5	37.6994
1710.76	36.7238
1711.01	37.7065
1711.27	31.8328
1711.53	34.7726
1711.79	33.7902
1712.04	34.7611
1712.3	35.7255
1712.56	32.7753
1712.82	35.6949
1713.08	34.7056
1713.33	31.7591
1713.59	33.7068
1713.85	35.6561
1714.11	34.6758
1714.36	34.6737
1714.62	35.6494
1714.88	38.5839
1715.14	34.6864
1715.4	37.6181
1715.65	32.7302
1715.91	30.7721
1716.17	38.5794
1716.43	31.734
1716.68	29.7709
1716.94	33.6614
1717.2	32.6698
1717.46	31.6797
1717.71	33.6165
1717.97	33.6045
1718.23	37.4918
1718.49	35.5391
1718.74	33.5905
1719	32.6168
1719.26	30.668
1719.52	30.6691
1719.78	36.5136
1720.03	32.6162
1720.29	33.5842
1720.55	30.656
1720.81	35.5135
1721.06	32.5884
1721.32	29.6633
1721.58	34.5176
1721.83	35.4808
1722.09	31.5844
1722.35	37.4062
1722.61	33.5126
1722.86	32.5353
1723.12	36.4155
1723.38	31.5591
1723.64	32.5282
1723.89	26.7005
1724.15	32.5217
1724.41	34.4547
1724.66	30.5611
1724.92	35.399
1725.18	31.5079
1725.44	32.4683
1725.69	34.4019
1725.95	37.3105
1726.21	23.7422
1726.46	34.3971
1726.72	31.4803
1726.98	33.4143
1727.24	30.5148
1727.49	27.6087
1727.75	36.3216
1728.01	30.4998
1728.27	34.3312
1728.52	34.2783
1728.78	30.3933
1729.04	33.3005
1729.29	35.2502
1729.55	31.4003
1729.81	31.3866
1730.06	34.2723
1730.32	31.3716
1730.58	31.4018
1730.83	27.5434
1731.09	30.4438
1731.35	35.2756
1731.61	29.4754
1731.86	25.6073
1732.12	29.4696
1732.38	31.3975
1732.63	25.596
1732.89	31.3823
1733.15	29.4397
1733.4	30.3914
1733.66	35.2046
1733.92	29.4084
1734.17	32.2906
1734.43	33.2436
1734.69	32.2697
1734.95	31.297
1735.2	31.2902
1735.46	33.2102
1735.72	34.1696
1735.97	30.3166
1736.23	32.2372
1736.49	26.4599
1736.74	32.2282
1737	30.2999
1737.26	31.258
1737.51	28.368
1737.77	28.362
1738.03	35.0845
1738.28	29.3111
1738.54	27.3827
1738.8	31.2172
1739.05	29.2856
1739.31	31.192
1739.57	32.1376
1739.82	31.1661
1740.08	28.2799
1740.34	29.2311
1740.59	27.3082
1740.85	29.218
1741.1	28.2542
1741.36	30.1644
1741.62	24.416
1741.88	33.0313
1742.13	31.1144
1742.39	24.4102
1742.64	27.28
1742.9	32.0651
1743.16	29.1915
1743.41	28.2289
1743.67	28.2235
1743.93	30.1327
1744.18	29.1732
1744.44	30.1297
1744.69	32.9996
1744.95	30.1304
1745.21	29.1727
1745.46	29.1694
1745.72	31.0764
1745.98	30.1126
1746.23	30.1037
1746.49	29.1406
1746.74	29.133
1747	25.3058
1747.26	29.1191
1747.51	31.9785
1747.77	28.1593
1748.03	24.3413
1748.28	23.3877
1748.54	30.0719
1748.8	29.1204
1749.05	31.0348
1749.31	28.1756
1749.56	29.1373
1749.82	29.1443
1750.08	32.9738
1750.33	32.0217
1750.59	32.025
1750.84	30.1147
1751.1	27.2439
1751.36	27.2368
1751.61	25.3177
1751.87	25.3115
1752.12	29.1259
1752.38	32.9383
1752.64	29.1128
1752.89	29.1071
1753.15	30.0562
1753.4	29.0973
1753.66	29.0912
1753.92	26.224
1754.17	28.1265
1754.43	29.0758
1754.68	30.0256
1754.94	28.1157
1755.2	27.1583
1755.45	30.0109
1755.71	31.9087
1755.96	29.0435
1756.22	30.9382
1756.47	28.0734
1756.73	30.9191
1756.99	27.1096
1757.24	29.0084
1757.5	29.9604
1757.75	26.1631
1758.01	30.9241
1758.27	29.0221
1758.52	26.1679
1758.78	27.1199
1759.03	31.8795
1759.29	27.1213
1759.54	30.9257
1759.8	29.0202
1760.05	29.0176
1760.31	27.1119
1760.57	29.9612
1760.82	26.1514
1761.08	25.1957
1761.33	26.1431
1761.59	26.1411
1761.84	28.0399
1762.1	28.9958
1762.36	27.098
1762.61	28.05
1762.87	27.0976
1763.12	27.0984
1763.38	30.9039
1763.63	28.0541
1763.89	27.1074
1764.14	27.1191
1764.4	24.2685
1764.66	29.9831
1764.91	29.0342
1765.17	27.1324
1765.42	29.0378
1765.68	30.9423
1765.93	29.0375
1766.19	27.1315
1766.44	28.0811
1766.7	30.9368
1766.95	30.9345
1767.21	26.1722
1767.46	30.9255
1767.72	28.0681
1767.98	29.016
1768.23	27.113
1768.48	29.9563
1768.74	28.9884
1769	28.974
1769.25	25.1629
1769.51	28.012
1769.76	25.1679
1770.02	27.0763
1770.27	25.1767
1770.53	30.879
1770.78	27.0844
1771.04	30.8981
1771.29	29.002
1771.55	26.1504
1771.8	29.0076
1772.06	29.9649
1772.31	28.0672
1772.57	23.3131
1772.82	28.0743
1773.08	29.0293
1773.33	25.2247
1773.59	28.0828
1773.84	25.2286
1774.1	26.182
1774.35	28.0897
1774.61	26.188
1774.86	27.1446
1775.12	26.203
1775.37	29.0707
1775.63	28.1219
1775.88	25.2635
1776.14	28.1227
1776.39	33.8388
1776.65	25.2558
1776.9	27.1587
1777.16	27.1543
1777.41	29.0547
1777.67	29.0494
1777.92	26.1873
1778.18	26.182
1778.43	23.3198
1778.69	29.0228
1778.94	28.066
1779.2	25.2109
1779.45	29.9749
1779.71	28.075
1779.96	23.3183
1780.21	31.8871
1780.47	28.0827
1780.73	25.2278
1780.98	26.1809
1781.23	27.1353
1781.49	28.0912
1781.74	27.1434
1782	26.1972
1782.25	25.2489
1782.51	29.0638
1782.76	27.1611
1783.02	28.1179
1783.27	25.2619
1783.53	26.2191
1783.78	25.2701
1784.04	29.0921
1784.29	25.2813
1784.54	26.238
1784.8	29.1008
1785.05	26.2374
1785.31	27.1889
1785.56	29.0934
1785.82	28.1397
1786.07	25.28
1786.33	28.1463
1786.58	29.1066
1786.84	27.2054
1787.09	28.1696
1787.34	30.0975
1787.6	28.2049
1787.85	27.2673
1788.11	27.2807
1788.36	26.3282
1788.62	28.2488
1788.87	27.3023
1789.12	25.3936
1789.38	27.3139
1789.63	27.3174
1789.89	25.4045
1790.14	27.3227
1790.4	31.1559
1790.65	25.4018
1790.91	28.2565
1791.16	26.3389
1791.41	30.1665
1791.67	24.4207
1791.92	24.422
1792.18	26.3384
1792.43	30.1738
1792.68	22.5127
1792.94	23.4721
1793.19	26.3453
1793.45	27.308
1793.7	23.4761
1793.96	23.4769
1794.21	28.2631
1794.46	30.1834
1794.72	24.4545
1794.97	28.3068
1795.23	25.4359
1795.48	28.32
1795.73	23.5244
1795.99	26.4101
1796.24	26.4155
1796.49	25.4603
1796.75	26.4263
1797	27.3921
1797.26	30.2798
1797.51	29.3221
1797.76	26.4407
1798.02	28.3657
1798.27	26.4433
1798.53	26.4422
1798.78	29.3239
1799.04	29.3196
1799.29	27.3918
1799.54	24.5038
1799.8	29.3043
1800.05	21.6153
1800.3	24.4951
1800.56	25.4541
1800.81	27.3743
1801.07	23.5322
1801.32	27.3752
1801.57	23.5347
1801.83	30.2618
1802.08	24.5009
1802.33	26.427
1802.59	24.5099
1802.84	24.5154
1803.1	27.4049
1803.35	25.4846
1803.6	23.5626
1803.86	30.2983
1804.11	24.5319
1804.36	29.3478
1804.62	26.4669
1804.87	27.4364
1805.13	26.4805
1805.38	25.5234
1805.63	28.4183
1805.89	25.5325
1806.14	24.5727
1806.39	29.3939
1806.65	28.4315
1806.9	26.5044
1807.15	29.396
1807.41	26.505
1807.66	32.2886
1807.91	26.5063
1808.17	26.5072
1808.42	28.4362
1808.67	29.4014
1808.93	25.5465
1809.18	24.5836
1809.43	26.513
1809.69	23.6217
1809.94	24.5863
1810.2	25.5496
1810.45	28.4406
1810.7	27.476
1810.95	27.4756
1811.21	26.5112
1811.46	26.5115
1811.71	26.5126
1811.97	27.4797
1812.22	28.4478
1812.47	26.524
1812.73	29.4227
1812.98	24.6006
1813.23	25.5687
1813.49	27.5044
1813.74	27.5121
1813.99	26.5538
1814.25	28.4956
1814.5	23.6706
1814.75	25.6075
1815.01	26.5763
1815.26	26.578
1815.51	27.5457
1815.77	23.6812
1816.02	26.5823
1816.27	29.4857
1816.53	28.5169
1816.78	25.6152
1817.03	26.5697
1817.29	26.5584
1817.54	24.6276
1817.79	23.6658
1818.04	25.6045
1818.3	23.6777
1818.55	23.6759
1818.8	25.6104
1819.06	27.5466
1819.31	25.6169
1819.56	28.5196
1819.81	27.5561
1820.07	23.6919
1820.32	27.5634
1820.57	26.5987
1820.83	27.5697
1821.08	31.4443
1821.33	26.6109
1821.58	25.6465
1821.84	24.6811
1822.09	28.5549
1822.34	26.6206
1822.6	27.5902
1822.85	27.5903
1823.1	25.6521
1823.35	25.6497
1823.61	28.5519
1823.86	28.5542
1824.11	24.6848
1824.37	27.5914
1824.62	26.626
1824.87	28.5656
1825.12	22.7577
1825.38	23.7269
1825.63	27.6006
1825.88	25.6641
1826.14	28.5706
1826.39	22.7602
1826.64	27.6044
1826.89	29.5444
1827.15	27.6102
1827.4	24.7066
1827.65	24.7074
1827.9	28.5819
1828.16	26.6421
1828.41	26.6384
1828.66	23.7299
1828.91	26.6345
1829.17	22.7597
1829.42	23.7269
1829.67	27.5979
1829.92	27.5946
1830.18	22.7512
1830.43	24.6869
1830.68	35.3399
1830.93	25.6613
1831.19	25.6649
1831.44	27.6056
1831.69	29.5468
1831.94	22.7688
1832.2	27.6186
1832.45	24.7155
1832.7	26.6552
1832.95	28.5942
1833.2	24.7191
1833.46	26.6597
1833.71	25.6918
1833.96	24.7179
1834.21	23.7368
1834.47	29.5347
1834.72	28.5532
1834.97	27.5761
1835.22	24.6668
1835.47	25.6324
1835.73	31.4308
1835.98	25.7085
1836.23	26.707
1836.48	25.699
1836.74	26.6517
1836.99	25.6666
1837.24	26.6175
1837.49	21.7578
1837.75	26.5736
1838	27.5345
1838.25	21.7669
1838.5	25.6625
1838.75	23.735
1839.01	27.6153
1839.26	25.6808
1839.51	24.7175
1839.76	27.6064
1840.01	25.6489
1840.26	27.5682
1840.52	27.5538
1840.77	27.5406
1841.02	27.5282
1841.27	26.5514
1841.53	25.5764
1841.78	26.5325
1842.03	28.4527
1842.28	26.526
1842.53	28.454
1842.79	30.3854
1843.04	25.5627
1843.29	28.4565
1843.54	26.525
1843.79	26.5244
1844.04	27.4919
1844.3	26.5284
1844.55	25.5603
1844.8	19.7732
1845.05	28.4546
1845.3	28.4646
1845.56	24.6159
1845.81	27.523
1846.06	28.5078
1846.31	21.7356
1846.56	25.5666
1846.81	28.4128
1847.06	24.5472
1847.32	24.5462
1847.57	31.2983
1847.82	25.5334
1848.07	29.3756
1848.32	23.5895
1848.58	27.4411
1848.83	24.5486
1849.08	24.5419
1849.33	29.3448
1849.58	26.4509
1849.83	25.4792
1850.08	24.5105
1850.34	29.3085
1850.59	22.5771
1850.84	21.6121
1851.09	25.4504
1851.34	23.5271
1851.59	27.3668
1851.85	27.3665
1852.1	28.3269
1852.35	26.4065
1852.6	24.4855
1852.85	25.4443
1853.1	25.4418
1853.36	25.4373
1853.61	26.3902
1853.86	26.3817
1854.11	28.2917
1854.36	22.5335
1854.61	26.3656
1854.86	27.3171
1855.11	27.3077
1855.37	28.2598
1855.62	28.2573
1855.87	24.4243
1856.12	24.4242
1856.37	24.4243
1856.62	28.2545
1856.87	24.4215
1857.13	26.3338
1857.38	26.3307
1857.63	30.1562
1857.88	27.2789
1858.13	24.402
1858.38	26.3097
1858.63	25.3469
1858.88	26.2967
1859.14	25.3354
1859.39	26.2903
1859.64	29.1589
1859.89	25.3357
1860.14	22.4715
1860.39	27.258
1860.64	24.3923
1860.89	22.4833
1861.14	23.4442
1861.39	26.317
1861.64	24.4022
1861.9	24.399
1862.15	27.2638
1862.4	26.301
1862.65	26.2948
1862.9	27.2446
1863.15	27.2387
1863.4	27.2333
1863.65	28.1838
1863.9	27.2236
1864.16	27.2188
1864.41	28.1682
1864.66	26.252
1864.91	25.29
1865.16	23.3737
1865.41	21.4576
1865.66	29.0749
1865.91	24.2981
1866.16	28.0978
1866.41	29.0381
1866.66	27.1228
1866.92	27.1123
1867.17	26.1528
1867.42	23.2953
1867.67	23.2926
1867.92	29.9454
1868.17	25.1922
1868.42	26.1443
1868.67	25.1938
1868.92	22.3407
1869.17	27.0924
1869.42	27.0908
1869.67	22.3369
1869.92	24.2368
1870.17	25.1862
1870.42	27.0864
1870.68	23.2845
1870.93	26.1341
1871.18	25.1811
1871.43	28.0273
1871.68	24.2238
1871.93	27.071
1872.18	24.2174
1872.43	22.3135
1872.68	27.057
1872.93	23.2582
1873.18	26.1044
1873.43	24.2027
1873.68	23.2494
1873.93	27.0394
1874.18	24.1872
1874.43	27.9741
1874.68	24.1745
1874.93	25.1155
1875.18	23.212
1875.44	24.1469
1875.69	24.137
1875.94	31.6996
1876.19	22.2314
1876.44	25.0655
1876.69	26.0002
1876.94	23.1499
1877.19	24.0696
1877.44	25.0244
1877.69	25.1043
1877.94	24.1476
1878.19	31.6986
1878.44	26.0177
1878.69	27.9311
1878.94	24.1579
1879.19	26.9952
1879.44	31.721
1879.69	26.9841
1879.94	26.9826
1880.19	24.1465
1880.44	25.09
1880.69	26.9812
1880.94	26.0255
1881.19	27.9046
1881.44	25.9997
1881.69	25.0411
1881.94	23.1378
1882.19	25.0096
1882.44	22.1705
1882.69	26.8701
1882.94	25.1196
1883.19	27.895
1883.44	26.8691
1883.69	26.8592
1883.94	28.7593
1884.19	24.0364
1884.44	24.0418
1884.69	27.8271
1884.94	25.9459
1885.19	24.0621
1885.44	25.9607
1885.69	26.9123
1885.94	24.0836
1886.19	25.9711
1886.44	25.9614
1886.69	22.1796
1886.94	26.8925
1887.19	22.1691
1887.44	26.8791
1887.69	27.8146
1887.94	23.0914
1888.19	27.794
1888.44	24.9597
1888.69	24.9515
1888.94	24.0052
1889.19	27.77
1889.44	25.8856
1889.69	24.9461
1889.94	24.9516
1890.19	25.9
1890.44	25.9023
1890.69	23.0763
1890.94	29.6662
1891.19	27.7825
1891.44	26.8391
1891.69	26.8374
1891.94	24.9537
1892.19	24.9504
1892.44	26.8283
1892.69	26.82
1892.94	25.8644
1893.19	25.8509
1893.43	28.664
1893.69	22.092
1893.93	24.9024
1894.18	25.8372
1894.43	26.7741
1894.68	31.4721
1894.93	23.0186
1895.18	27.7191
1895.43	23.0237
1895.68	25.8463
1895.93	27.7305
1896.18	26.7959
1896.43	28.6815
1896.68	26.8045
1896.93	26.8074
1897.18	25.8682
1897.43	26.8091
1897.68	27.7484
1897.93	27.7455
1898.17	25.8602
1898.42	26.7948
1898.67	26.7878
1898.92	26.7822
1899.17	25.8398
1899.42	26.7763
1899.67	27.7119
1899.92	24.8927
1900.17	23.9539
1900.42	26.7746
1900.67	28.658
1900.92	23.9653
1901.17	29.6099
1901.42	23.975
1901.67	25.8611
1901.91	23.0459
1902.16	27.7503
1902.41	29.6292
1902.66	27.7454
1902.91	27.742
1903.16	27.7395
1903.41	26.7974
1903.66	27.7364
1903.91	26.7954
1904.16	27.7348
1904.41	24.9131
1904.66	26.7921
1904.9	26.7918
1905.15	26.7907
1905.4	24.9053
1905.65	26.7743
1905.9	22.0739
1906.15	27.7066
1906.4	24.8863
1906.65	29.5797
1906.9	25.8233
1907.15	29.5816
1907.39	23.9494
1907.64	25.8333
1907.89	25.8359
1908.14	23.0187
1908.39	24.9002
1908.64	28.6633
1908.89	30.5489
1909.14	23.9751
1909.39	26.8037
1909.63	29.635
1909.88	27.7632
1910.13	23.0652
1910.38	25.8958
1910.63	28.7258
1910.88	24.9613
1911.13	25.9046
1911.38	25.9046
1911.62	24.9614
1911.87	27.785
1912.12	25.9007
1912.37	30.6099
1912.62	27.7846
1912.87	26.8435
1913.12	25.9051
1913.37	26.8544
1913.61	28.7484
1913.86	23.0989
1914.11	26.8757
1914.36	27.8249
1914.61	28.7741
1914.86	27.8351
1915.11	29.7246
1915.36	25.0062
1915.6	25.0044
1915.85	23.1158
1916.1	24.0568
1916.35	24.9948
1916.6	26.8764
1916.85	26.8724
1917.1	26.8695
1917.34	27.8105
1917.59	28.7536
1917.84	29.7001
1918.09	29.7065
1918.34	25.9413
1918.59	29.7235
1918.84	30.6771
1919.08	26.9122
1919.33	26.9226
1919.58	24.0939
1919.83	28.8203
1920.08	23.1488
1920.32	25.0387
1920.57	26.9352
1920.82	28.8333
1921.07	29.7841
1921.32	27.8968
1921.57	22.2253
1921.82	25.063
1922.06	28.8443
1922.31	26.0036
1922.56	25.0543
1922.81	26.9425
1923.06	27.8856
1923.3	25.9928
1923.55	25.0444
1923.8	28.8197
1924.05	25.0367
1924.3	24.0908
1924.55	24.0916
1924.79	22.2047
1925.04	25.0444
1925.29	25.9972
1925.54	26.9505
1925.79	26.0117
1926.03	21.2882
1926.28	25.0807
1926.53	27.9266
1926.78	25.0907
1927.03	28.8821
1927.27	23.2035
1927.52	25.1007
1927.77	23.209
1928.02	27.9478
1928.27	27.0037
1928.52	28.9027
1928.76	29.855
1929.01	26.0695
1929.26	27.0257
1929.51	28.9302
1929.75	27.0412
1930	25.1502
1930.25	26.1061
1930.5	27.0587
1930.75	26.1101
1930.99	26.1087
1931.24	29.9028
1931.49	28.0005
1931.74	27.9967
1931.99	23.2484
1932.23	25.1424
1932.48	27.0383
1932.73	25.1381
1932.98	27.036
1933.22	25.1452
1933.47	25.1569
1933.72	26.1228
1933.97	24.2437
1934.22	28.0711
1934.46	26.188
1934.71	30.9693
1934.96	25.265
1935.21	27.1817
1935.45	30.0284
1935.7	25.2563
1935.95	27.1611
1936.2	26.2051
1936.45	28.1056
1936.69	29.0515
1936.94	29.0453
1937.19	27.1351
1937.44	22.3705
1937.68	27.1248
1937.93	30.9305
1938.18	28.0837
1938.43	27.1364
1938.67	29.0449
1938.92	23.3351
1939.17	29.054
1939.42	28.1059
1939.66	30.9663
1939.91	26.2077
1940.16	26.2144
1940.41	25.2762
1940.65	27.1959
1940.9	28.1519
1941.15	26.2404
1941.4	24.3244
1941.64	23.3575
1941.89	29.0834
1942.14	29.1106
1942.39	25.3026
1942.63	28.1688
1942.88	28.1595
1943.13	29.1011
1943.37	28.1368
1943.62	28.1502
1943.87	23.3862
1944.12	27.21
1944.36	31.0361
1944.61	26.2679
1944.86	27.23
1945.1	25.3254
1945.35	29.1548
1945.6	31.0728
1945.85	31.0778
1946.09	28.2125
1946.34	26.3018
1946.59	26.3017
1946.83	28.2124
1947.08	31.0785
1947.33	23.4276
1947.58	30.121
1947.82	27.2522
1948.07	32.0313
1948.32	26.2951
1948.57	26.2995
1948.81	27.2614
1949.06	27.2673
1949.31	29.1881
1949.55	31.1104
1949.8	29.2076
1950.05	26.3468
1950.3	29.2321
1950.54	24.4494
1950.79	29.2556
1951.04	22.55
1951.28	25.4369
1951.53	25.4425
1951.78	26.4069
1952.02	27.3717
1952.27	29.2924
1952.52	27.3757
1952.76	27.3825
1953.01	24.4955
1953.26	25.4469
1953.5	27.351
1953.75	30.2128
1954	26.3623
1954.25	23.4755
1954.49	28.261
1954.74	24.4279
1954.98	24.4303
1955.23	31.1445
1955.48	25.4053
1955.72	30.2189
1955.97	28.3103
1956.22	27.3595
1956.47	27.365
1956.71	24.4901
1956.96	25.4561
1957.21	28.3436
1957.45	28.348
1957.7	31.2344
1957.95	30.2758
1958.19	27.394
1958.44	33.1593
1958.69	26.4267
1958.93	27.3847
1959.18	26.4227
1959.43	28.3406
1959.67	31.2179
1959.92	27.3716
1960.17	29.2876
1960.41	31.2024
1960.66	26.3974
1960.9	26.3933
1961.15	28.3098
1961.4	27.3507
1961.64	28.312
1961.89	29.273
1962.14	29.2745
1962.38	25.4364
1962.63	27.3573
1962.88	20.6388
1963.12	31.1995
1963.37	29.281
1963.62	29.2845
1963.86	28.3278
1964.11	30.2484
1964.36	29.286
1964.6	31.2069
1964.85	29.2856
1965.09	27.3657
1965.34	26.4079
1965.59	24.4919
1965.83	30.2616
1966.08	29.3076
1966.33	28.3515
1966.57	28.3557
1966.82	29.3164
1967.06	30.2777
1967.31	27.3965
1967.56	28.3593
1967.8	26.4378
1968.05	26.4378
1968.3	28.3583
1968.54	25.4704
1968.79	30.269
1969.03	29.2992
1969.28	30.2502
1969.53	22.5616
1969.77	27.3562
1970.02	26.3923
1970.26	27.3477
1970.51	29.2622
1970.76	29.2589
1971	30.2153
1971.25	29.2538
1971.49	25.4184
1971.74	27.3397
1971.99	24.4634
1972.23	25.4228
1972.48	32.136
1972.72	28.2946
1972.97	27.3297
1973.22	30.2007
1973.46	29.238
1973.71	29.2353
1973.95	28.2756
1974.2	25.4002
1974.45	23.484
1974.69	25.4031
1974.94	26.3651
1975.18	25.4102
1975.43	30.2089
1975.68	28.2941
1975.92	29.2554
1976.17	27.3383
1976.41	31.1757
1976.66	26.3789
1976.9	25.4182
1977.15	29.2519
1977.4	28.2887
1977.64	29.2429
1977.89	29.2389
1978.13	26.36
1978.38	25.3998
1978.63	28.275
1978.87	26.3589
1979.12	29.2349
1979.36	25.4017
1979.61	33.071
1979.85	28.2761
1980.1	24.438
1980.34	28.2666
1980.59	29.2219
1980.84	30.1763
1981.08	26.3413
1981.33	27.2972
1981.57	28.254
1981.82	29.2108
1982.06	25.3765
1982.31	28.2445
1982.55	31.1101
1982.8	26.3164
1983.05	22.4833
1983.29	25.3507
1983.54	25.349
1983.78	25.3467
1984.03	29.1697
1984.27	31.0798
1984.52	31.0752
1984.76	29.1558
1985.01	25.3282
1985.25	27.2395
1985.5	29.1528
1985.75	29.1565
1985.99	30.1176
1986.24	30.1208
1986.48	28.2079
1986.73	33.9468
1986.97	30.1185
1987.22	29.1541
1987.46	30.1002
1987.71	29.1339
1987.95	31.0311
1988.2	27.1941
1988.44	29.0818
1988.69	29.0644
1988.93	29.051
1989.18	29.959
1989.42	28.0877
1989.67	31.7897
1989.91	26.1674
1990.16	29.7443
1990.41	24.5287
1990.65	28.8517
1990.89	32.4393
1991.14	27.9518
1991.39	28.1102
1991.63	26.2487
1991.88	29.901
1992.12	27.1978
1992.37	27.6062
1992.61	30.0234
1992.86	28.1116
1993.1	28.9701
1993.35	30.0299
1993.59	25.6164
1993.84	31.0565
1994.08	28.639
1994.33	27.515
1994.57	27.6246
1994.82	29.1765
1995.06	29.387
1995.31	30.2922
1995.55	26.3074
1995.8	28.6974
1996.04	27.1752
1996.29	29.4132
1996.53	25.895
1996.78	30.208
1997.02	27.1583
1997.26	29.7467
1997.51	29.5542
1997.76	27.6001
1998	31.1648
1998.24	27.4573
1998.49	30.08
1998.73	28.3405
1998.98	27.4785
1999.22	29.2686
1999.47	28.4458
1999.71	27.7054
1999.96	29.7897
2000.2	27.9722
2000.45	28.379
2000.69	27.4142
2000.94	29.0207
2001.18	28.7245
2001.43	26.5076
2001.67	31.1885
2001.92	28.0784
2002.16	27.8456
2002.4	29.2882
2002.65	28.5687
2002.89	28.1003
2003.14	26.6778
2003.38	27.9992
2003.63	28.0467
2003.87	29.2417
2004.12	29.5743
2004.36	29.2107
2004.6	27.8851
2004.85	26.9331
2005.1	28.2461
2005.34	29.106
2005.58	28.0936
2005.83	26.4637
2006.07	27.9189
2006.32	28.3223
2006.56	29.3841
2006.81	27.6011
2007.05	27.9835
2007.3	27.6718
2007.54	28.0406
2007.78	25.9756
2008.03	28.7172
2008.27	28.8659
2008.52	25.1461
2008.76	27.6075
2009	28.3598
2009.25	29.0111
2009.49	29.3202
2009.74	28.0786
2009.98	26.2202
2010.23	27.5828
2010.47	26.721
2010.72	30.3223
2010.96	28.9068
2011.2	29.3549
2011.45	25.5832
2011.69	31.2307
2011.94	25.1002
2012.18	28.6561
2012.42	27.7711
2012.67	24.9397
2012.92	33.3911
2013.16	27.7398
2013.41	28.6699
2013.66	29.5971
2013.91	27.7038
2014.15	26.7501
2014.4	28.6225
2014.65	27.685
2014.9	26.7498
2015.14	30.5099
2015.39	30.5139
2015.64	29.5742
2015.88	31.4522
2016.13	30.5405
2016.38	27.7269
2016.63	26.7859
2016.87	30.5411
2017.12	26.7763
2017.37	25.829
2017.61	30.5138
2017.86	29.5625
2018.11	30.4894
2018.35	30.4784
2018.6	23.9042
2018.85	32.3287
2019.1	29.5106
2019.34	28.5702
2019.59	27.6306
2019.84	29.5033
2020.08	28.5655
2020.33	28.5643
2020.58	29.5019
2020.82	26.6943
2021.07	25.7581
2021.32	30.4402
2021.57	29.5011
2021.81	27.6244
2022.06	27.6193
2022.31	31.3569
2022.55	27.6051
2022.8	28.5343
2023.05	28.5281
2023.29	32.2624
2023.54	28.5155
2023.79	30.3793
2024.03	24.7634
2024.28	26.623
2024.53	24.7463
2024.77	27.5389
2025.02	28.4639
2025.27	30.322
2025.51	31.2443
2025.76	27.514
2026.01	27.5233
2026.25	29.4069
2026.5	28.495
2026.75	30.3897
2026.99	30.4079
2027.24	28.5362
2027.49	31.3256
2027.73	26.6265
2027.98	33.0855
2028.23	28.4749
2028.47	29.5169
2028.72	24.8003
2028.97	27.6259
2029.21	32.2612
2029.46	29.4213
2029.71	34.9817
2029.95	32.1813
2030.2	29.3554
2030.45	24.7115
2030.69	30.3281
2030.94	27.5249
2031.19	26.5921
2031.43	26.5916
2031.68	25.666
2031.92	30.3425
2032.17	30.3541
2032.42	31.2989
2032.66	28.5041
2032.91	29.4445
2033.16	34.1278
2033.4	28.5265
2033.65	27.5764
2033.89	27.5612
2034.14	30.3292
2034.39	27.5174
2034.64	32.1965
2034.88	31.2732
2035.13	29.4216
2035.37	33.1833
2035.62	31.3315
2035.87	29.4651
2036.11	25.7078
2036.36	27.5754
2036.6	29.4543
2036.85	28.5192
2037.1	29.4531
2037.34	26.6456
2037.59	29.4469
2037.84	27.5734
2038.08	30.3728
2038.33	29.4335
2038.57	32.2315
2038.82	32.2261
2039.07	28.4848
2039.31	26.6115
2039.56	30.3378
2039.8	34.0622
2040.05	29.3883
2040.3	30.3138
2040.54	26.5772
2040.79	27.5047
2041.03	28.4342
2041.28	30.2972
2041.53	30.2935
2041.77	29.3575
2042.02	25.6249
2042.26	28.4168
2042.51	34.0071
2042.76	31.214
2043	24.6977
2043.25	28.4368
2043.49	30.3145
2043.74	28.4552
2043.99	28.4546
2044.23	30.3142
2044.48	30.3015
2044.72	26.5505
2044.97	31.2323
2045.22	28.4534
2045.46	32.2217
2045.71	29.4694
2045.95	27.5884
2046.2	31.2962
2046.44	24.7374
2046.69	29.4018
2046.94	29.3956
2047.18	25.6442
2047.43	30.2967
2047.67	31.2292
2047.92	29.3664
2048.16	30.3007
2048.41	31.2362
2048.66	29.3789
2048.9	29.3851
2049.15	28.4602
2049.39	30.3374
2049.64	26.6115
2049.88	24.7512
2050.13	27.5584
2050.37	28.4946
2050.62	33.1645
2050.87	25.6862
2051.11	32.2155
2051.36	33.1473
2051.6	27.5455
2051.85	30.3509
2052.09	29.419
2052.34	29.4223
2052.58	28.4928
2052.83	30.3672
2053.08	28.5056
2053.32	30.389
2053.57	26.655
2053.81	27.5945
2054.06	30.4023
2054.3	25.7247
2054.55	29.4651
2054.79	34.1405
2055.04	33.1972
2055.29	29.4528
2055.53	30.3865
2055.78	33.1885
2056.02	30.3804
2056.27	29.4435
2056.51	31.3125
2056.76	28.5097
2057	27.5771
2057.25	30.3852
2057.49	29.4552
2057.74	27.5888
2057.98	29.4668
2058.23	31.3452
2058.47	31.3521
2058.72	32.2939
2058.96	27.6156
2059.21	28.5532
2059.45	27.6187
2059.7	28.5514
2059.95	31.3555
2060.19	30.4147
2060.44	31.3541
2060.68	29.4868
2060.93	32.299
2061.17	32.3007
2061.42	27.6202
2061.66	29.4937
2061.91	29.4958
2062.15	31.3719
2062.4	28.5665
2062.64	32.3189
2062.89	31.3878
2063.13	27.644
2063.38	31.3962
2063.62	27.65
2063.87	31.4018
2064.11	31.4053
2064.36	29.535
2064.6	27.6655
2064.85	25.7981
2065.09	32.3743
2065.34	26.7509
2065.58	31.4508
2065.83	27.6998
2066.07	24.8845
2066.32	33.3386
2066.56	28.647
2066.81	26.7709
2067.05	27.7138
2067.29	29.5977
2067.54	30.542
2067.78	28.6658
2068.03	33.3677
2068.27	30.5518
2068.52	33.3741
2068.76	32.4299
2069.01	30.542
2069.25	24.8932
2069.5	26.7654
2069.74	26.7672
2069.99	26.777
2070.23	26.7909
2070.48	29.6266
2070.72	31.5096
2070.97	33.3811
2071.21	28.7041
2071.46	31.5482
2071.7	28.7222
2071.94	29.6615
2072.19	28.7189
2072.43	32.483
2072.68	30.5994
2072.92	28.7152
2073.17	27.7745
2073.41	28.7173
2073.66	31.5438
2073.9	30.6055
2074.15	27.7854
2074.39	28.7348
2074.64	29.6871
2074.88	29.7001
2075.13	27.8292
2075.37	35.3902
2075.61	25.9585
2075.86	28.792
2076.1	32.5695
2076.35	28.791
2076.59	29.7293
2076.84	29.7228
2077.08	28.7665
2077.32	31.5906
2077.57	27.8212
2077.81	33.4871
2078.06	34.4341
2078.3	32.5503
2078.55	26.8931
2078.79	33.5053
2079.03	27.8565
2079.28	27.8628
2079.52	27.8679
2079.77	25.9829
2080.01	27.8769
2080.26	28.8231
2080.5	30.71
2080.74	29.7628
2080.99	28.817
2081.23	25.9827
2081.48	27.8707
2081.72	28.8178
2081.97	27.8753
2082.21	32.6022
2082.45	25.988
2082.7	31.6579
2082.94	29.7668
2083.19	33.5452
2083.43	32.6002
2083.67	29.7662
2083.92	29.7658
2084.16	26.9314
2084.41	31.6574
2084.65	31.658
2084.89	30.7128
2085.14	32.6034
2085.38	25.9891
2085.63	26.9408
2085.87	26.004
2086.12	26.9571
2086.36	29.7979
2086.6	34.5318
2086.85	28.8602
2087.09	33.5958
2087.34	30.757
2087.58	29.8113
2087.82	26.9728
2088.07	33.5993
2088.31	29.8152
2088.56	29.8169
2088.8	29.821
2089.04	33.6138
2089.29	27.9396
2089.53	35.5216
2089.77	26.9979
2090.02	31.7367
2090.26	28.8973
2090.51	31.7433
2090.75	31.747
2090.99	29.855
2091.24	33.6541
2091.48	27.9745
2091.72	29.8808
2091.97	28.9417
2092.21	28.9519
2092.45	30.8595
2092.7	32.7671
2092.94	29.9256
2093.19	30.8835
2093.43	30.8903
2093.67	30.8964
2093.92	32.8006
2094.16	27.0964
2094.41	31.849
2094.65	28.995
2094.89	30.8916
2095.14	34.6874
2095.38	27.0807
2095.62	29.9277
2095.87	28.9754
2096.11	33.7241
2096.35	29.9232
2096.6	30.8694
2096.84	32.7629
2097.08	29.9077
2097.33	29.9049
2097.57	28.0046
2097.81	28.9529
2098.06	29.8976
2098.3	30.8467
2098.55	27.0497
2098.79	30.8444
2099.03	29.894
2099.28	29.8934
2099.52	30.8426
2099.76	31.7926
2100	30.8454
2100.25	30.8476
2100.49	30.8557
2100.74	29.9127
2100.98	28.9671
2101.22	30.869
2101.47	28.0199
2101.71	27.0693
2101.95	30.869
2102.2	30.8678
2102.44	28.964
2102.68	30.8566
2102.92	30.8524
2103.17	27.0549
2103.41	29.9007
2103.65	32.7489
2103.9	28.954
2104.14	30.8576
2104.39	29.9129
2104.63	31.8166
2104.87	29.9223
2105.11	30.8792
2105.36	30.886
2105.6	33.7409
2105.84	30.8931
2106.09	29.9445
2106.33	33.7482
2106.57	31.8499
2106.82	30.9012
2107.06	31.849
2107.3	30.8927
2107.54	29.9347
2107.79	31.8264
2108.03	31.8179
2108.27	29.9113
2108.52	32.7568
2108.76	25.1616
2109	28.9658
2109.25	28.0237
2109.49	28.9742
2109.73	26.1244
2109.97	31.8244
2110.22	30.8744
2110.46	34.6745
2110.7	22.3246
2110.95	28.0231
2111.19	30.8689
2111.43	30.8653
2111.68	29.9139
2111.92	28.9638
2112.16	30.8657
2112.4	28.9697
2112.65	29.9229
2112.89	33.7303
2113.13	28.9864
2113.38	31.8412
2113.62	29.9394
2113.86	29.9366
2114.1	29.9357
2114.35	30.8873
2114.59	30.8884
2114.83	28.9865
2115.07	30.8847
2115.32	28.9818
2115.56	29.9296
2115.8	33.7242
2116.04	28.0187
2116.29	31.8144
2116.53	28.9638
2116.77	34.6602
2117.02	28.9635
2117.26	31.8102
2117.5	29.9065
2117.74	28.9523
2117.99	27.9962
2118.23	28.9367
2118.47	28.9297
2118.71	31.7685
2118.96	26.0731
2119.2	28.9115
2119.44	28.9061
2119.68	28.9017
2119.93	30.7948
2120.17	33.6381
2120.41	30.8
2120.65	32.6991
2120.9	29.8618
2121.14	31.7658
2121.38	35.5669
2121.62	29.8827
2121.86	25.1443
2122.11	29.8934
2122.35	32.7451
2122.59	34.6477
2122.84	28.0055
2123.08	32.7539
2123.32	32.7519
2123.56	28.0024
2123.81	29.8961
2124.05	30.8378
2124.29	26.0836
2124.53	32.7075
2124.77	27.9544
2125.02	30.7863
2125.26	32.6707
2125.5	26.9808
2125.74	30.7593
2125.98	31.6989
2126.23	30.7462
2126.47	28.848
2126.71	26.0045
2126.95	31.6752
2127.2	30.728
2127.44	32.6175
2127.68	25.9966
2127.92	30.7209
2128.16	30.721
2128.41	28.8309
2128.65	30.7206
2128.89	26.9375
2129.13	30.7159
2129.38	31.6597
2129.62	30.7132
2129.86	33.5464
2130.1	29.7644
2130.34	29.7616
2130.58	29.7581
2130.83	29.7538
2131.07	26.9159
2131.31	29.7448
2131.55	28.7975
2131.79	30.6829
2132.04	27.8454
2132.28	29.7273
2132.52	29.7241
2132.76	28.7797
2133	29.7245
2133.25	27.8385
2133.49	31.6138
2133.73	30.6711
2133.97	28.7852
2134.21	29.7283
2134.46	28.7837
2134.7	31.6141
2134.94	25.9507
2135.18	29.7227
2135.42	33.4917
2135.67	26.8802
2135.91	31.5858
2136.15	28.7523
2136.39	29.6953
2136.63	33.4684
2136.87	27.8122
2137.12	27.8148
2137.36	26.8774
2137.6	31.593
2137.84	32.527
2138.08	32.5194
2138.32	27.8093
2138.57	29.7047
2138.81	31.5988
2139.05	27.8164
2139.29	30.6304
2139.53	24.0288
2139.77	26.8516
2140.02	31.5582
2140.26	27.787
2140.5	28.7266
2140.74	29.6661
2140.98	29.666
2141.22	27.7783
2141.46	29.6545
2141.71	26.8273
2141.95	26.8271
2142.19	29.6558
2142.43	31.5444
2142.67	27.7973
2142.91	29.678
2143.15	31.4936
2143.4	29.5966
2143.64	29.6045
2143.88	28.6735
2144.12	33.3861
2144.36	31.5125
2144.6	29.6182
2144.85	27.736
2145.09	31.4993
2145.33	27.7371
2145.57	29.6152
2145.81	32.4329
2146.05	32.4303
2146.29	29.6079
2146.53	26.7855
2146.78	31.4806
2147.02	29.5971
2147.26	33.3513
2147.5	30.5296
2147.74	31.4654
2147.98	23.9485
2148.22	30.5187
2148.46	23.9418
2148.7	28.6306
2148.95	26.747
2149.19	27.6745
2149.43	28.6053
2149.67	32.348
2149.91	30.4661
2150.15	28.588
2150.39	27.6498
2150.63	25.777
2150.88	27.6564
2151.12	32.3474
2151.36	31.4149
2151.6	30.4793
2151.84	32.3605
2152.08	28.6047
2152.32	29.5386
2152.56	27.6581
2152.8	26.7157
2153.05	29.5253
2153.29	32.3347
2153.53	28.5812
2153.77	30.4484
2154.01	29.5018
2154.25	26.6804
2154.49	26.6702
2154.73	31.3341
2154.97	35.0642
2155.21	31.3144
2155.45	31.3061
2155.7	28.4967
2155.94	25.6907
2156.18	27.5579
2156.42	26.623
2156.66	30.3594
2156.9	30.3614
2157.14	28.4968
2157.38	29.4366
2157.62	30.3768
2157.86	26.6396
2158.1	31.3132
2158.34	32.2468
2158.59	35.9826
2158.83	26.6333
2159.07	27.5634
2159.31	28.4923
2159.55	25.6835
2159.79	31.2791
2160.03	28.4716
2160.27	31.2656
2160.51	31.2616
2160.75	28.4607
2160.99	31.2575
2161.23	26.5894
2161.47	29.387
2161.72	28.454
2161.95	25.6554
2162.2	33.1185
2162.44	29.3848
2162.68	29.3807
2162.92	27.5122
2163.16	27.5094
2163.4	26.5741
2163.64	29.3678
2163.88	25.6339
2164.12	32.1498
2164.36	30.2806
2164.6	31.2122
2164.84	28.4207
2165.08	28.4212
2165.32	34.0128
2165.56	25.6264
2165.8	26.5559
2166.04	28.4161
2166.28	27.4806
2166.53	29.338
2166.76	29.3334
2167.01	28.396
2167.25	28.3877
2167.49	31.1658
2167.73	28.3616
2167.97	28.3558
2168.21	29.2843
2168.45	29.2857
2168.69	29.2894
2168.93	32.0852
2169.17	28.373
2169.41	26.5215
2169.65	27.4628
2169.89	25.6075
2170.13	32.1294
2170.37	28.403
2170.61	30.2602
2170.85	33.0498
2171.09	28.3849
2171.33	29.2961
2171.57	30.2132
2171.81	28.3478
2172.05	23.6964
2172.29	30.1971
2172.53	32.0539
2172.77	28.3371
2173.01	28.3367
2173.25	31.1258
2173.49	29.2712
2173.73	30.2036
2173.97	29.2759
2174.21	29.2765
2174.45	31.1352
2174.69	30.2054
2174.93	28.3449
2175.17	29.2724
2175.41	29.2714
2175.65	29.27
2175.89	24.6222
2176.13	26.4762
2176.37	28.3321
2176.61	24.6163
2176.85	28.3328
2177.09	27.4046
2177.33	27.4038
2177.57	30.1922
2177.81	26.4746
2178.05	23.6813
2178.29	28.3183
2178.53	27.3887
2178.77	32.0325
2179.01	30.1761
2179.25	31.1051
2179.49	28.3195
2179.73	28.3194
2179.97	32.9613
2180.21	27.3887
2180.45	23.6733
2180.69	28.3145
2180.93	30.1696
2181.17	26.4534
2181.41	24.5938
2181.65	31.0893
2181.89	31.0851
2182.13	27.3706
2182.37	28.2965
2182.61	26.4358
2182.85	30.1399
2183.09	26.4222
2183.33	31.9776
2183.57	19.925
2183.81	28.2611
2184.05	26.4065
2184.28	30.1132
2184.53	32.8964
2184.76	30.1189
2185	23.6335
2185.24	24.5633
2185.48	22.7131
2185.72	28.2812
2185.96	28.2856
2186.2	25.5107
2186.44	30.1584
2186.68	27.3827
2186.92	28.3195
2187.16	30.1839
2187.4	25.5425
2187.64	32.0414
2187.88	30.1788
2188.12	28.3163
2188.36	27.382
2188.6	22.7357
2188.84	28.2959
2189.07	25.5047
2189.31	28.2781
2189.55	27.3473
2189.79	27.3455
2190.03	31.9814
2190.27	27.348
2190.51	28.2785
2190.75	26.4239
2190.99	29.2071
2191.23	28.2823
2191.47	29.2124
2191.71	28.2876
2191.95	18.0871
2192.19	27.365
2192.42	24.5859
2192.67	27.3745
2192.9	29.2351
2193.14	26.4566
2193.38	23.6809
2193.62	27.4097
2193.86	29.2784
2194.1	25.5657
2194.34	29.2843
2194.58	31.1394
2194.82	28.3483
2195.06	29.2734
2195.3	27.4092
2195.53	26.4728
2195.77	29.2495
2196.01	28.3115
2196.25	31.0883
2196.49	23.6595
2196.73	28.2939
2196.97	27.3621
2197.21	26.4339
2197.45	27.3626
2197.69	24.5821
2197.92	22.732
2198.16	29.2347
2198.4	26.4581
2198.64	29.2534
2198.88	28.3336
2199.12	25.5549
2199.36	25.5637
2199.6	26.5054
2199.84	29.3114
2200.07	28.3948
2200.31	33.0638
2200.55	27.4844
2200.79	27.4914
2201.03	30.2787
2201.27	27.4577
2201.51	28.3334
2201.75	26.4321
2201.99	27.3676
2202.23	25.5573
2202.46	25.5829
2202.7	28.3653
2202.94	27.4297
2203.18	24.6432
2203.42	32.2183
2203.66	27.5093
2203.9	23.7751
2204.14	27.5135
2204.37	24.6999
2204.61	24.6774
2204.85	23.7268
2205.09	24.6415
2205.33	26.4968
2205.57	29.2854
2205.8	28.3622
2206.05	29.2968
2206.28	22.776
2206.52	29.2849
2206.76	27.4296
2207	26.5048
2207.24	30.2311
2207.48	26.5162
2207.71	27.4527
2207.95	27.4586
2208.19	27.4639
2208.43	25.6059
2208.67	25.6089
2208.91	25.6108
2209.15	28.4053
2209.38	22.8167
2209.62	26.5424
2209.86	26.546
2210.1	29.3446
2210.34	24.6908
2210.58	26.5588
2210.81	29.3591
2211.05	25.6353
2211.29	29.3703
2211.53	26.5795
2211.77	23.7853
2212.01	24.7209
2212.24	29.3835
2212.48	25.6499
2212.72	24.7147
2212.96	25.6442
2213.2	30.3003
2213.44	29.3689
2213.67	28.442
2213.91	29.3852
2214.15	30.3324
2214.39	29.4025
2214.63	24.7379
2214.87	24.7397
2215.1	24.741
2215.34	26.6092
2215.58	25.6759
2215.82	25.6757
2216.06	30.3434
2216.29	26.6078
2216.53	24.7396
2216.77	29.4073
2217.01	28.4748
2217.25	26.6091
2217.49	27.5431
2217.72	25.6754
2217.96	22.8754
2218.2	25.6789
2218.44	25.6826
2218.68	26.6212
2218.91	27.5607
2219.15	26.6301
2219.39	27.5676
2219.63	25.7019
2219.87	23.8326
2220.1	25.7006
2220.34	25.6999
2220.58	28.5012
2220.82	28.4952
2221.06	21.9493
2221.29	22.8782
2221.53	27.542
2221.77	25.6712
2222.01	29.4041
2222.25	22.8713
2222.48	27.5428
2222.72	25.6796
2222.96	27.5518
2223.2	26.6241
2223.43	24.763
2223.67	27.5751
2223.91	23.8433
2224.15	27.5906
2224.39	26.6616
2224.62	25.7318
2224.86	26.6741
2225.1	27.6181
2225.34	25.752
2225.58	26.6942
2225.81	25.7633
2226.05	26.7048
2226.29	29.5218
2226.53	30.4655
2226.76	27.6581
2227	26.7241
2227.24	22.9752
2227.48	22.9752
2227.72	27.6621
2227.95	26.7226
2228.19	26.7209
2228.43	24.8444
2228.67	27.6557
2228.9	26.718
2229.14	25.7843
2229.38	25.791
2229.62	27.6739
2229.85	26.741
2230.09	28.6231
2230.33	25.8132
2230.57	25.8189
2230.8	28.6423
2231.04	23.9529
2231.28	23.9579
2231.52	26.782
2231.75	28.6673
2231.99	25.8528
2232.23	29.619
2232.47	23.0415
2232.7	22.1053
2232.94	25.8728
2233.18	26.8188
2233.42	28.7053
2233.65	25.8851
2233.89	25.8845
2234.13	28.7062
2234.37	25.8798
2234.6	23.9937
2234.84	27.7484
2235.08	25.8601
2235.31	24.9194
2235.55	26.8014
2235.79	23.0411
2236.03	27.7452
2236.26	24.9249
2236.5	24.9263
2236.74	26.8133
2236.97	26.8193
2237.21	28.7119
2237.45	23.0735
2237.69	25.9091
2237.92	27.8017
2238.16	26.8666
2238.4	26.8749
2238.64	24.998
2238.87	23.1144
2239.11	29.7167
2239.35	24.9965
2239.58	24.9905
2239.82	28.7547
2240.06	25.9234
2240.29	25.931
2240.53	25.9441
2240.77	25.946
2241.01	25.9478
2241.24	28.7809
2241.48	25.0082
2241.72	25.0104
2241.96	25.0133
2242.19	27.8486
2242.43	27.8501
2242.67	26.9051
2242.9	28.7902
2243.14	27.8419
2243.38	28.7833
2243.61	25.9515
2243.85	25.0085
2244.09	25.0119
2244.32	25.019
2244.56	27.8625
2244.8	25.0388
2245.03	25.0455
2245.27	25.9958
2245.51	26.0015
2245.75	27.8985
2245.98	24.1201
2246.22	25.069
2246.46	28.8571
2246.69	24.1305
2246.93	28.8653
2247.17	27.9206
2247.4	26.9742
2247.64	30.7588
2247.88	24.1325
2248.11	25.0774
2248.35	23.1836
2248.59	28.8598
2248.82	28.8587
2249.06	22.2385
2249.3	24.1349
2249.53	23.1887
2249.77	29.811
2250.01	25.0745
2250.24	26.9615
2250.48	26.0096
2250.72	24.1134
2250.95	22.219
2251.19	29.7809
2251.43	27.891
2251.66	22.2206
2251.9	32.6269
2252.14	25.0663
2252.37	26.9664
2252.61	26.9803
2252.85	24.1507
2253.08	23.2108
2253.32	27.0073
2253.55	27.9605
2253.79	25.122
2254.03	24.1778
2254.26	26.0752
2254.5	27.0214
2254.74	21.3332
2254.97	22.282
2255.21	27.0238
2255.45	26.0769
2255.68	27.9777
2255.92	25.1375
2256.16	27.0397
2256.39	29.8911
2256.63	23.2527
2256.87	26.1045
2257.1	21.3617
2257.34	30.8597
2257.57	26.1139
2257.81	23.2663
2258.05	25.1674
2258.28	19.4711
2258.52	27.0734
2258.76	27.0777
2258.99	27.0807
2259.23	24.2323
2259.47	24.2352
2259.7	26.139
2259.94	24.2406
2260.17	25.1938
2260.41	24.2468
2260.64	27.1075
2260.88	28.0655
2261.12	29.9706
2261.35	27.118
2261.59	29.0235
2261.83	26.1712
2262.06	26.1749
2262.3	26.1804
2262.53	28.0909
2262.77	27.1459
2263.01	28.1071
2263.24	29.0702
2263.48	24.3143
2263.71	24.3238
2263.95	28.1495
2264.19	26.2492
2264.42	22.4369
2264.66	28.1717
2264.89	25.3115
2265.13	29.134
2265.37	24.3591
2265.6	28.1786
2265.84	24.353
2266.07	23.3926
2266.31	29.1145
2266.55	28.1537
2266.78	24.3322
2267.02	28.1448
2267.25	23.371
2267.49	24.3199
2267.73	26.2228
2267.96	25.2674
2268.2	22.4075
2268.43	26.225
2268.67	23.369
2268.91	23.3753
2269.14	23.3821
2269.38	24.3439
2269.61	29.1275
2269.85	26.2713
2270.08	23.4104
2270.32	28.1919
2270.56	23.4187
2270.79	26.2914
2271.03	25.339
2271.26	28.2116
2271.5	24.3912
2271.73	28.2208
2271.97	21.525
2272.2	27.2664
2272.44	23.441
2272.68	26.313
2272.91	24.4009
2273.15	27.2732
2273.38	25.3609
2273.62	22.4912
2273.85	23.4495
2274.09	26.3225
2274.33	22.4951
2274.56	27.2832
2274.8	19.6262
2275.03	24.4151
2275.27	28.2439
2275.5	23.46
2275.74	24.4235
2275.97	24.4298
2276.21	22.519
2276.45	24.4407
2276.68	23.4874
2276.92	23.4952
2277.15	25.4228
2277.39	26.3925
2277.62	21.604
2277.86	24.4889
2278.09	27.3725
2278.33	25.4524
2278.56	22.5704
2278.8	24.4901
2279.03	25.4472
2279.27	24.4756
2279.5	20.6302
2279.74	25.421
2279.98	23.4969
2280.21	22.5335
2280.45	23.4889
2280.68	23.4868
2280.92	26.3595
2281.15	25.3978
2281.39	23.484
2281.62	27.3199
2281.86	25.4064
2282.09	27.3294
2282.33	25.4177
2282.56	27.3424
2282.8	25.4308
2283.03	22.5606
2283.27	25.4532
2283.5	24.5029
2283.74	27.3995
2283.97	21.6379
2284.21	25.4874
2284.44	23.5693
2284.68	24.5378
2284.91	23.5775
2285.15	24.5416
2285.38	23.5753
2285.62	24.5269
2285.85	29.3348
2286.09	25.4896
2286.32	25.4926
2286.56	24.5425
2286.79	26.479
2287.03	23.5946
2287.26	27.4488
2287.5	25.5313
2287.74	23.6031
2287.97	26.4895
2288.2	22.6332
2288.44	27.4445
2288.67	25.5113
2288.91	24.5392
2289.14	24.5316
2289.38	24.5202
2289.61	26.4397
2289.85	26.4366
2290.08	27.3983
2290.32	22.5918
2290.55	25.4794
2290.79	27.4094
2291.02	25.495
2291.26	23.5767
2291.49	21.6561
2291.73	22.6227
2291.96	23.5898
2292.2	22.6326
2292.43	22.638
2292.67	22.6422
2292.9	24.5733
2293.14	27.4676
2293.37	24.5785
2293.6	22.6493
2293.84	22.6469
2294.07	20.7166
2294.31	27.4562
2294.54	20.7097
2294.78	26.4856
2295.01	25.5191
2295.25	26.4784
2295.48	23.5871
2295.72	28.396
2295.95	24.5342
2296.19	27.4185
2296.42	24.5344
2296.65	25.5002
2296.89	20.6927
2297.12	24.5481
2297.36	25.5178
2297.59	21.674
2297.83	23.6064
2298.06	22.6462
2298.3	22.6506
2298.53	28.4414
2298.77	20.7333
2299	24.5953
2299.23	22.6693
2299.47	21.7042
2299.7	23.6342
2299.94	26.5271
2300.17	24.6005
2300.41	24.6052
2300.64	24.6085
2300.87	25.5768
2301.11	25.5789
2301.34	26.5451
2301.58	22.6837
2301.81	25.5775
2302.05	22.68
2302.28	25.5762
2302.51	23.6458
2302.75	25.5746
2302.98	25.5743
2303.22	26.5397
2303.45	24.6118
2303.69	21.7202
2303.92	23.655
2304.15	21.7266
2304.39	18.8323
2304.62	21.7341
2304.86	26.5676
2305.09	22.7044
2305.33	22.7063
2305.56	27.5409
2305.79	26.5785
2306.03	24.6468
2306.26	20.7814
2306.5	25.6141
2306.73	26.5801
2306.97	25.6117
2307.2	23.6756
2307.43	23.6739
2307.67	23.6721
2307.9	22.7036
2308.13	20.7716
2308.37	27.5352
2308.6	23.6743
2308.84	27.5443
2309.07	24.6507
2309.3	26.593
2309.54	20.796
2309.77	22.7332
2310.01	23.7015
2310.24	25.636
2310.47	21.7645
2310.71	23.6943
2310.94	27.5491
2311.18	19.8018
2311.41	24.6229
2311.64	24.6159
2311.88	23.6474
2312.11	24.6084
2312.34	27.4996
2312.58	22.6745
2312.81	26.5368
2313.05	24.6136
2313.28	22.6926
2313.51	27.5294
2313.75	26.5714
2313.98	24.6467
2314.21	27.5563
2314.45	25.6324
2314.68	27.5721
2314.92	23.6979
2315.15	26.5924
2315.39	18.8527
2315.62	22.7141
2315.85	21.7367
2316.09	24.6265
2316.32	25.5886
2316.55	25.5876
2316.79	23.6577
2317.02	23.6592
2317.25	18.8353
2317.49	24.636
2317.72	24.6298
2317.95	25.5901
2318.19	22.6904
2318.42	21.7215
2318.66	27.5095
2318.89	25.5752
2319.12	24.6074
2319.35	22.6757
2319.59	25.5704
2319.82	18.8166
2320.06	23.6415
2320.29	22.6784
2320.52	22.6818
2320.76	25.5818
2320.99	21.7245
2321.22	22.6951
2321.46	22.7015
2321.69	27.5403
2321.92	23.6816
2322.16	20.7846
2322.39	24.651
2322.62	20.7848
2322.86	27.5542
2323.09	20.7879
2323.32	26.5911
2323.56	23.6913
2323.79	23.6907
2324.02	26.5904
2324.26	26.5849
2324.49	22.7111
2324.72	26.5676
2324.96	21.7316
2325.19	25.59
2325.42	29.4469
2325.66	28.4757
2325.89	30.3998
2326.12	28.4635
2326.36	26.5281
2326.59	26.5224
2326.82	29.4092
2327.06	30.3686
2327.29	28.4359
2327.52	30.3601
2327.76	32.2886
2327.99	28.434
2328.22	32.2902
2328.46	38.0675
2328.69	32.2786
2328.92	31.3072
2329.15	28.4137
2329.39	28.4126
2329.62	30.3421
2329.85	29.3781
2330.09	28.4124
2330.32	28.41
2330.55	28.4088
2330.78	23.5951
2331.02	26.4881
2331.25	24.5659
2331.48	21.6809
2331.72	22.6404
2331.95	21.672
2332.18	29.3734
2332.42	23.5918
2332.65	23.5887
2332.88	22.6231
2333.12	25.5083
2333.35	23.581
2333.58	22.6156
2333.81	21.6497
2334.05	21.6444
2334.28	24.5262
2334.51	26.4471
2334.74	20.6759
2334.98	24.5215
2335.21	24.5221
2335.44	24.5239
2335.68	22.6002
2335.91	24.5214
2336.14	22.5965
2336.37	24.5186
2336.61	25.4792
2336.84	23.5552
2337.07	23.5543
2337.3	25.4752
2337.54	26.4347
2337.77	26.4335
2338	24.51
2338.24	23.5481
2338.47	22.5876
2338.7	22.5884
2338.93	22.5885
2339.17	23.5492
2339.4	22.5864
2339.63	23.5448
2339.86	29.3062
2340.1	25.4584
2340.33	21.6111
2340.56	23.5257
2340.79	23.5182
2341.03	25.4287
2341.26	22.5431
2341.49	23.4978
2341.72	26.3708
2341.96	23.4904
2342.19	22.529
2342.42	25.4034
2342.65	23.4857
2342.89	28.279
2343.12	24.4437
2343.35	25.4013
2343.58	22.5259
2343.82	25.4032
2344.05	25.4044
2344.28	22.5281
2344.51	22.5268
2344.75	24.4416
2344.98	23.4795
2345.21	25.39
2345.44	23.4692
2345.68	23.4649
2345.91	26.3358
2346.14	21.5463
2346.37	22.5029
2346.6	23.4586
2346.84	25.3716
2347.07	26.3284
2347.3	20.5844
2347.53	19.6282
2347.77	22.5033
2348	19.6324
2348.23	23.4633
2348.46	27.292
2348.69	25.3728
2348.93	24.4059
2349.16	23.4387
2349.39	23.4272
2349.62	20.5465
2349.85	24.3519
2350.09	23.3683
2350.32	24.273
2350.55	21.4387
2350.78	27.2444
2351.02	23.4546
2351.25	21.505
2351.48	21.4762
2351.71	26.247
2351.94	21.478
2352.18	24.3295
2352.41	21.4484
2352.64	24.2899
2352.87	22.3875
2353.1	24.2925
2353.34	23.3356
2353.57	25.2402
2353.8	27.1445
2354.03	23.3394
2354.26	26.205
2354.5	22.3929
2354.73	22.3916
2354.96	25.248
2355.19	20.4823
2355.42	23.3378
2355.66	20.4769
2355.89	26.1839
2356.12	26.1713
2356.35	24.258
2356.58	23.3018
2356.81	28.0525
2357.05	21.3925
2357.28	20.4387
2357.51	24.2379
2357.74	26.1357
2357.97	25.1843
2358.21	23.2782
2358.44	23.2758
2358.67	28.0239
2358.9	23.273
2359.13	25.17
2359.36	24.2163
2359.6	21.3628
2359.83	22.3071
2360.06	22.302
2360.29	23.2457
2360.52	25.1374
2360.75	24.183
2360.99	20.3846
2361.22	22.2752
2361.45	22.2695
2361.68	22.2633
2361.91	25.0986
2362.14	24.146
2362.38	25.0878
2362.61	25.0833
2362.84	22.2401
2363.07	21.2912
2363.3	26.0198
2363.53	22.2326
2363.77	21.2835
2364	21.2805
2364.23	24.1139
2364.46	21.2753
2364.69	24.1072
2364.92	25.0486
