#Acq. time (s)=	30
#Accumulations=	2
#Range (cm-¹)=	1200...2365
#Windows=	3
#Auto scanning=	Off
#Autofocus=	Off
#Macrospot=	Off
#AutoExposure=	Off
#Spike filter=	Multiple accum.
#Delay time (s)=	2
#Binning=	1
#Readout mode=	Signal
#DeNoise=	Off
#ICS correction=	On
#Dark correction=	Off
#Inst. Process=	Off
#Detector Gain=	Best Dynamic
#Detector ADC=	50 kHz HS
#Detector temperature (°C)=	-60.09
#Instrument=	LabRAM HR Evol
#Detector=	SIN-EM FIVIS
#Objective=	x50_VIS_LWD
#Grating=	1800 (450-850nm)
#ND Filter=	100%
#Laser=	532nm_Edge
#Hole=	49.98
#Temperature=	0
#Range=	Visible
#StageXY=	75x50mm Scan+
#StageZ=	Z motor
#X (µm)=	0
#Y (µm)=	0
#Z (µm)=	-0.3
#Full time(mm:ss)=	3:18
#Project=	21_11_26
#Sample=	BU19(2)w
#Site=	
#Title=	BU19(2)w-A-FF02-FI02-V_1800 (450-850nm)_532nm_Edge_100%_x50_VIS_LWD_H50um_30sX2
#Remark=	
#Date=	26.11.2021 14:34
#Acquired=	26.11.2021 14:34:04
1202.72	30.6494
1203	28.5396
1203.28	26.3943
1203.56	29.6084
1203.84	32.8132
1204.11	30.6465
1204.39	31.7093
1204.67	30.6356
1204.95	28.4888
1205.23	30.6329
1205.5	33.8445
1205.78	28.4601
1206.06	24.1524
1206.34	30.5789
1206.61	28.4193
1206.89	29.4778
1207.17	30.5352
1207.45	32.6654
1207.73	29.4443
1208	25.1547
1208.28	27.2912
1208.56	29.4258
1208.84	28.3469
1209.11	29.4086
1209.39	27.2621
1209.67	27.2586
1209.95	28.3265
1210.23	27.2547
1210.5	27.249
1210.78	26.169
1211.06	29.3622
1211.34	30.4202
1211.61	33.6101
1211.89	29.3323
1212.17	27.1874
1212.45	28.2428
1212.72	25.0377
1213	29.292
1213.28	25.0225
1213.56	30.3419
1213.83	29.273
1214.11	25.0084
1214.39	26.0739
1214.67	28.204
1214.94	26.0748
1215.22	29.2684
1215.5	27.1378
1215.78	25.0071
1216.05	26.0693
1216.33	29.255
1216.61	26.0529
1216.89	27.1048
1217.16	22.8421
1217.44	30.2732
1217.72	27.0773
1218	23.8833
1218.27	26.001
1218.55	27.0566
1218.83	27.0507
1219.1	27.0473
1219.38	22.8008
1219.66	27.0424
1219.94	28.0997
1220.21	30.2159
1220.49	27.0327
1220.77	28.0933
1221.04	27.0309
1221.32	31.2699
1221.6	23.8421
1221.88	29.1381
1222.15	25.95
1222.43	25.9397
1222.71	26.9865
1222.98	31.2063
1223.26	26.9598
1223.54	25.8899
1223.81	27.9928
1224.09	29.0394
1224.37	26.9165
1224.65	24.7978
1224.92	25.8486
1225.2	27.9561
1225.48	25.8439
1225.76	26.9026
1226.03	26.9052
1226.31	23.7407
1226.59	30.0745
1226.86	27.9604
1227.14	25.8437
1227.42	24.7836
1227.69	28.9902
1227.97	28.9621
1228.25	32.1041
1228.52	24.7171
1228.8	26.7967
1229.08	24.6743
1229.35	25.7229
1229.63	27.893
1229.91	29.0077
1230.18	24.7618
1230.46	30.0061
1230.74	31.0485
1231.01	25.785
1231.29	27.875
1231.57	27.82
1231.84	24.6724
1232.12	28.875
1232.4	25.7214
1232.67	27.8194
1232.95	29.9198
1233.23	25.7156
1233.5	27.8138
1233.78	25.712
1234.06	28.8647
1234.33	25.7153
1234.61	25.7176
1234.89	26.772
1235.16	32.0314
1235.44	26.7782
1235.71	24.678
1235.99	23.6295
1236.27	22.5798
1236.54	26.7848
1236.82	28.8839
1237.1	29.9302
1237.37	30.9743
1237.65	27.8121
1237.93	25.7016
1238.2	27.7917
1238.48	25.6827
1238.76	27.7713
1239.03	27.7633
1239.31	27.7583
1239.58	25.6575
1239.86	30.8961
1240.14	29.8456
1240.41	24.6034
1240.69	26.6995
1240.97	25.6518
1241.24	25.6529
1241.52	29.8469
1241.79	23.5547
1242.07	27.7423
1242.35	28.7868
1242.62	32.9788
1242.9	28.7887
1243.18	25.6481
1243.45	28.7962
1243.73	30.8921
1244	28.7956
1244.28	31.9423
1244.56	29.845
1244.83	30.8911
1245.11	31.936
1245.39	30.881
1245.66	30.873
1245.94	32.9567
1246.21	31.8985
1246.49	31.8938
1246.76	29.7976
1247.04	32.9377
1247.32	29.7967
1247.59	25.6075
1247.87	32.933
1248.14	31.8827
1248.42	33.9629
1248.7	30.8184
1248.97	28.725
1249.25	31.8642
1249.52	28.7284
1249.8	29.7722
1250.08	32.9086
1250.35	25.5876
1250.63	30.8104
1250.9	32.893
1251.18	32.8854
1251.45	31.8337
1251.73	30.7832
1252.01	32.8668
1252.28	31.8162
1252.56	29.7217
1252.83	34.936
1253.11	24.4904
1253.39	31.7907
1253.66	30.7439
1253.94	31.7873
1254.21	33.8795
1254.49	30.7541
1254.76	30.7606
1255.04	32.8514
1255.31	33.8954
1255.59	34.9421
1255.87	26.5877
1256.14	30.7631
1256.42	35.9856
1256.69	35.9882
1256.97	37.0378
1257.24	34.9502
1257.52	39.1262
1257.79	40.1647
1258.07	37.0282
1258.35	38.0693
1258.62	40.1541
1258.9	35.9735
1259.17	34.9211
1259.45	34.92
1259.72	40.1429
1260	39.1046
1260.27	39.1206
1260.55	45.3751
1260.82	43.2762
1261.1	46.3909
1261.37	51.5956
1261.65	52.6301
1261.92	53.6805
1262.2	56.8605
1262.48	60.0713
1262.75	67.4321
1263.02	73.5885
1263.3	70.3701
1263.58	67.2095
1263.85	74.5813
1264.13	69.4154
1264.4	60.0707
1264.68	56.9624
1264.95	47.5178
1265.23	42.2802
1265.5	48.5508
1265.78	42.276
1266.05	39.1336
1266.33	40.178
1266.6	44.3604
1266.88	45.4113
1267.15	41.2385
1267.43	42.2934
1267.7	36.0297
1267.98	39.1783
1268.25	38.1445
1268.53	38.1613
1268.8	38.175
1269.08	38.1823
1269.35	36.0929
1269.63	40.2885
1269.9	40.2859
1270.18	39.2293
1270.45	40.2643
1270.73	37.1146
1271	35.012
1271.28	38.1454
1271.55	38.1426
1271.83	39.1837
1272.1	40.2328
1272.38	42.3352
1272.65	41.3001
1272.93	33.9843
1273.2	32.9453
1273.47	40.2891
1273.75	37.1552
1274.03	39.2616
1274.3	42.418
1274.57	40.3271
1274.85	39.2798
1275.12	41.3758
1275.4	36.1312
1275.67	42.4292
1275.95	42.436
1276.22	36.1469
1276.5	44.5526
1276.77	39.3114
1277.05	43.5189
1277.32	44.575
1277.6	42.485
1277.87	49.85
1278.14	45.658
1278.42	50.9227
1278.69	48.8293
1278.97	47.7915
1279.24	55.1619
1279.52	54.1188
1279.79	59.3753
1280.07	60.4222
1280.34	67.7771
1280.61	76.1879
1280.89	95.1258
1281.16	109.861
1281.44	134.088
1281.71	168.862
1281.99	227.832
1282.26	307.824
1282.53	409.965
1282.81	513.189
1283.08	665.737
1283.36	710.653
1283.63	748.927
1283.91	664.587
1284.18	515.358
1284.45	353.721
1284.73	223.813
1285	183.812
1285.28	125.854
1285.55	98.41
1285.83	84.6892
1286.1	74.1622
1286.37	63.6472
1286.65	63.6465
1286.92	58.3701
1287.2	54.1576
1287.47	52.0485
1287.75	50.9881
1288.02	44.6641
1288.29	46.7639
1288.57	45.7109
1288.84	44.6596
1289.12	45.7152
1289.39	47.8271
1289.66	41.5187
1289.94	35.2081
1290.21	38.375
1290.49	37.3281
1290.76	43.6482
1291.03	39.4301
1291.31	39.4278
1291.58	38.3738
1291.86	37.32
1292.13	43.6375
1292.4	37.3187
1292.68	39.4274
1292.95	35.2122
1293.22	37.3155
1293.5	37.3173
1293.77	36.2758
1294.05	39.4525
1294.32	34.1971
1294.59	32.0919
1294.87	36.31
1295.14	36.3073
1295.42	35.259
1295.69	28.9432
1295.96	36.3486
1296.24	35.318
1296.51	32.1619
1296.79	36.3931
1297.06	32.1658
1297.33	35.3329
1297.61	34.27
1297.88	36.3759
1298.15	34.2549
1298.43	37.4138
1298.7	31.0813
1298.97	36.3589
1299.25	32.1292
1299.52	35.2919
1299.79	34.2305
1300.07	32.1189
1300.34	37.4031
1300.62	28.96
1300.89	39.5195
1301.16	38.4617
1301.44	34.237
1301.71	28.9592
1301.98	39.5244
1302.25	35.3056
1302.53	32.1396
1302.8	34.2531
1303.08	36.3651
1303.35	30.0251
1303.62	31.0778
1303.9	32.128
1304.17	30.0149
1304.44	37.4071
1304.72	31.0713
1304.99	33.1827
1305.26	32.1227
1305.54	32.1169
1305.81	26.8325
1306.08	27.8815
1306.35	34.204
1306.63	28.9236
1306.9	31.0301
1307.18	31.0299
1307.45	31.0325
1307.72	28.9238
1308	27.8685
1308.27	33.1417
1308.54	32.0886
1308.81	31.0318
1309.09	32.0882
1309.36	26.8183
1309.63	33.1526
1309.91	33.1572
1310.18	31.0495
1310.45	34.2145
1310.73	37.378
1311	27.8805
1311.27	33.1581
1311.55	33.1598
1311.82	29.9949
1312.09	27.8862
1312.37	28.9465
1312.64	30.0065
1312.91	25.7847
1313.18	28.9511
1313.46	34.225
1313.73	30.0009
1314	31.0536
1314.28	27.8846
1314.55	29.9955
1314.82	26.8304
1315.09	27.8886
1315.37	24.7244
1315.64	32.1189
1315.91	30.0108
1316.18	28.9584
1316.46	30.0132
1316.73	26.8427
1317	31.0658
1317.28	27.8966
1317.55	27.8964
1317.82	28.9565
1318.09	27.9028
1318.37	28.9609
1318.64	28.9619
1318.91	28.9624
1319.18	30.0189
1319.46	30.0178
1319.73	25.7909
1320	23.6771
1320.28	26.8478
1320.55	32.1303
1320.82	25.79
1321.09	30.0111
1321.37	26.8362
1321.64	25.7727
1321.91	28.9306
1322.18	28.9252
1322.46	27.862
1322.73	25.7485
1323	32.0725
1323.27	26.7953
1323.55	29.9527
1323.82	27.8473
1324.09	26.7939
1324.36	26.7942
1324.64	28.9021
1324.91	27.8479
1325.18	29.9558
1325.45	35.23
1325.73	26.7871
1326	25.7211
1326.27	30.9719
1326.54	27.7926
1326.81	29.8885
1327.09	29.886
1327.36	28.8435
1327.63	29.9154
1327.9	24.6586
1328.18	28.8823
1328.45	26.7849
1328.72	27.8498
1328.99	31.0234
1329.27	29.9711
1329.54	32.0772
1329.81	26.8051
1330.08	27.8588
1330.35	31.0212
1330.63	26.7978
1330.9	31.0112
1331.17	23.6231
1331.44	32.0483
1331.71	27.8211
1331.99	28.862
1332.26	28.8519
1332.53	28.8437
1332.8	25.6782
1333.07	26.721
1333.35	25.6598
1333.62	31.9582
1333.89	28.7958
1334.16	27.7369
1334.43	28.7793
1334.71	27.7215
1334.98	29.8141
1335.25	32.9562
1335.52	27.7031
1335.79	29.7959
1336.07	25.5948
1336.34	23.4929
1336.61	32.9266
1336.88	32.922
1337.15	30.8213
1337.43	27.6735
1337.7	28.7192
1337.97	24.5237
1338.24	24.5174
1338.51	27.6542
1338.78	30.7922
1339.06	27.6453
1339.33	28.6892
1339.6	29.7353
1339.87	29.7362
1340.14	26.5961
1340.42	28.6909
1340.69	26.5974
1340.96	30.7872
1341.23	31.8337
1341.5	30.7849
1341.77	27.6411
1342.04	27.6378
1342.32	29.7269
1342.59	30.767
1342.86	29.7123
1343.13	30.7505
1343.4	30.746
1343.67	25.5142
1343.95	26.559
1344.22	27.6044
1344.49	25.513
1344.76	29.6963
1345.03	25.5103
1345.3	29.6884
1345.58	28.6361
1345.85	26.5369
1346.12	29.6643
1346.39	27.5652
1346.66	28.5953
1346.93	27.5424
1347.2	23.3609
1347.47	30.654
1347.75	28.56
1348.02	25.4272
1348.29	27.5084
1348.56	28.5481
1348.83	25.4193
1349.1	31.6672
1349.37	29.5775
1349.65	27.4883
1349.92	30.6074
1350.19	28.5192
1350.46	30.5961
1350.73	31.6312
1351	26.4202
1351.27	29.5344
1351.54	29.5294
1351.81	30.5616
1352.09	29.5192
1352.36	28.4787
1352.63	32.6416
1352.9	28.4878
1353.17	29.5368
1353.44	27.46
1353.71	24.3585
1353.98	33.7635
1354.25	29.5655
1354.53	25.3612
1354.8	26.3739
1355.07	33.6499
1355.34	31.5743
1355.61	32.6019
1355.88	28.4414
1356.15	27.412
1356.42	27.414
1356.69	30.5243
1356.96	30.5211
1357.24	31.5569
1357.51	31.5536
1357.78	27.3958
1358.05	28.4296
1358.32	32.5766
1358.59	33.6084
1358.86	30.4895
1359.13	32.5581
1359.4	31.5144
1359.67	30.4726
1359.94	33.5794
1360.22	28.387
1360.49	27.342
1360.76	32.5148
1361.03	29.4007
1361.3	29.3982
1361.57	31.4692
1361.84	30.4321
1362.11	31.4659
1362.38	32.4976
1362.65	36.636
1362.92	33.526
1363.19	33.5247
1363.46	34.562
1363.73	31.4609
1364	31.4647
1364.28	35.612
1364.55	40.7908
1364.82	37.6805
1365.09	34.5692
1365.36	36.6339
1365.63	33.5197
1365.9	30.4065
1366.17	34.5387
1366.44	33.4962
1366.71	36.5911
1366.98	33.4783
1367.25	31.3992
1367.52	35.5282
1367.79	34.4911
1368.06	37.5962
1368.33	39.6662
1368.6	41.7359
1368.87	62.4139
1369.15	75.8574
1369.41	58.2868
1369.68	50.0186
1369.95	36.5721
1370.23	36.5677
1370.5	36.5634
1370.77	39.6539
1371.04	36.5488
1371.31	41.7072
1371.58	37.5644
1371.85	34.4544
1372.12	35.4727
1372.39	34.4273
1372.66	39.5716
1372.93	39.561
1373.2	38.5232
1373.47	37.4872
1373.74	36.4518
1374.01	34.3869
1374.28	34.3839
1374.55	40.5631
1374.82	39.5301
1375.09	35.4061
1375.36	39.5217
1375.63	42.6133
1375.9	36.4372
1376.17	37.4664
1376.44	38.4986
1376.71	41.5785
1376.98	35.3898
1377.25	41.5543
1377.52	38.45
1377.79	39.4838
1378.06	41.5524
1378.33	41.5687
1378.6	41.5891
1378.87	42.6427
1379.14	42.6497
1379.41	49.8649
1379.68	44.7039
1379.95	44.6974
1380.22	49.8405
1380.49	45.6987
1380.76	46.691
1381.03	49.7557
1381.3	52.8221
1381.57	53.8592
1381.84	51.7886
1382.11	63.0704
1382.38	54.8205
1382.65	58.905
1382.92	69.1486
1383.19	77.331
1383.46	64.9992
1383.73	71.1333
1384	81.3742
1384.27	91.6147
1384.54	104.946
1384.81	118.284
1385.08	139.842
1385.34	190.145
1385.61	243.582
1385.88	331.924
1386.15	508.591
1386.42	757.156
1386.69	1117.81
1386.96	1563.7
1387.23	1620.17
1387.5	1290.46
1387.77	773.757
1388.04	469.752
1388.31	279.382
1388.58	194.781
1388.85	147.94
1389.12	120.416
1389.39	100.984
1389.66	79.4297
1389.93	74.3044
1390.2	69.1465
1390.46	68.0669
1390.73	56.7626
1391	64.9635
1391.27	57.7623
1391.54	53.6578
1391.81	50.5784
1392.08	50.5668
1392.35	47.4808
1392.62	50.5422
1392.89	48.4858
1393.16	41.3128
1393.43	47.4497
1393.7	42.3272
1393.97	43.3466
1394.23	41.2962
1394.5	40.2699
1394.77	40.2673
1395.04	41.2887
1395.31	42.3163
1395.58	44.3702
1395.85	44.3754
1396.12	40.2828
1396.39	44.3759
1396.66	44.3721
1396.93	39.2496
1397.2	41.291
1397.46	39.237
1397.73	34.115
1398	36.1573
1398.27	37.1796
1398.54	34.1133
1398.81	31.0482
1399.08	37.1887
1399.35	41.2831
1399.62	37.1968
1399.89	40.271
1400.16	37.2041
1400.42	36.1801
1400.69	39.2561
1400.96	40.2898
1401.23	38.2464
1401.5	41.3169
1401.77	36.201
1402.04	33.1283
1402.31	34.1638
1402.58	38.2833
1402.84	40.3579
1403.11	34.2188
1403.38	41.4149
1403.65	34.2348
1403.92	36.2883
1404.19	41.4129
1404.46	40.3637
1404.73	33.1874
1404.99	39.34
1405.26	43.4385
1405.53	36.2514
1405.8	48.5499
1406.07	42.3897
1406.34	52.634
1406.61	58.7784
1406.87	56.7239
1407.14	61.8514
1407.41	71.0814
1407.68	79.2887
1407.95	81.3439
1408.22	98.7786
1408.49	103.911
1408.76	102.892
1409.02	96.7467
1409.29	88.551
1409.56	77.276
1409.83	62.9216
1410.1	52.667
1410.37	42.4089
1410.63	44.4518
1410.9	35.2114
1411.17	38.2755
1411.44	40.3162
1411.71	33.1368
1411.98	39.2794
1412.25	26.9843
1412.51	37.2342
1412.78	32.1202
1413.05	35.2169
1413.32	34.2321
1413.59	29.1159
1413.86	32.1733
1414.12	34.1815
1414.39	34.189
1414.66	27.0284
1414.93	32.1743
1415.2	30.1189
1415.47	31.1466
1415.73	30.12
1416	27.0407
1416.27	28.0696
1416.54	30.1259
1416.81	31.1558
1417.07	30.1319
1417.34	21.9175
1417.61	30.1389
1417.88	27.0597
1418.15	32.1989
1418.42	28.0892
1418.68	26.035
1418.95	27.0639
1419.22	26.0365
1419.49	31.1755
1419.76	28.0893
1420.02	27.0565
1420.29	29.1055
1420.56	31.1542
1420.83	26.0135
1421.1	22.9279
1421.36	26.003
1421.63	22.9215
1421.9	30.1077
1422.17	30.1157
1422.44	27.0446
1422.7	28.081
1422.97	27.0681
1423.24	28.1201
1423.51	30.2043
1423.77	24.9964
1424.04	29.0448
1424.31	25.9762
1424.58	23.902
1424.85	24.9267
1425.11	30.0579
1425.38	28.0276
1425.65	30.0825
1425.92	28.0271
1426.19	23.9332
1426.45	25.983
1426.72	24.9527
1426.99	24.9462
1427.26	26.9895
1427.52	25.9567
1427.79	20.824
1428.06	24.9134
1428.33	24.9093
1428.59	23.8837
1428.86	22.8601
1429.13	25.9332
1429.4	23.8873
1429.67	25.9383
1429.93	27.9909
1430.2	23.8986
1430.47	25.9546
1430.74	19.8097
1431	25.9679
1431.27	23.9276
1431.54	24.962
1431.81	24.9662
1432.07	24.9662
1432.34	21.883
1432.61	23.9297
1432.87	22.9002
1433.14	22.8931
1433.41	23.9096
1433.68	23.8994
1433.95	23.8899
1434.21	23.8839
1434.48	22.8575
1434.75	19.7947
1435.01	22.8728
1435.28	21.8489
1435.55	18.7748
1435.82	24.9225
1436.08	21.8473
1436.35	21.8458
1436.62	21.8442
1436.89	26.9644
1437.15	23.8887
1437.42	25.9351
1437.69	20.813
1437.95	24.9072
1438.22	22.8577
1438.49	21.8346
1438.76	23.8865
1439.02	24.9131
1439.29	27.9872
1439.56	19.7924
1439.82	24.9189
1440.09	26.9743
1440.36	21.8557
1440.63	21.8584
1440.89	20.8342
1441.16	24.9363
1441.43	24.9376
1441.69	19.8084
1441.96	21.8556
1442.23	20.8284
1442.49	21.858
1442.76	19.8076
1443.03	24.9397
1443.3	20.8344
1443.56	19.8054
1443.83	21.8529
1444.1	21.8506
1444.36	25.9501
1444.63	23.9013
1444.9	22.8826
1445.16	22.8881
1445.43	21.8693
1445.7	21.8674
1445.97	25.9688
1446.23	22.8891
1446.5	18.7842
1446.77	22.8853
1447.03	18.7811
1447.3	21.856
1447.57	20.8283
1447.83	19.8003
1448.1	21.8486
1448.37	21.8484
1448.63	22.8774
1448.9	22.8825
1449.17	21.8582
1449.43	19.8064
1449.7	20.8302
1449.97	21.8529
1450.23	19.7986
1450.5	20.8204
1450.77	22.8686
1451.03	24.9167
1451.3	22.8648
1451.57	22.8628
1451.83	19.7862
1452.1	20.8088
1452.37	17.7334
1452.63	18.757
1452.9	22.8553
1453.17	22.8563
1453.43	19.7847
1453.7	20.8113
1453.97	17.7369
1454.23	21.8346
1454.5	20.8086
1454.77	18.759
1455.03	16.7095
1455.3	20.8077
1455.56	21.8308
1455.83	20.8065
1456.1	17.7355
1456.36	17.737
1456.63	19.7868
1456.9	17.7353
1457.16	18.7568
1457.43	20.8028
1457.7	21.8256
1457.96	20.7996
1458.23	21.823
1458.49	16.7011
1458.76	21.8235
1459.03	20.8001
1459.29	17.7274
1459.56	17.7279
1459.82	18.7527
1460.09	20.801
1460.36	19.7751
1460.62	19.7735
1460.89	17.723
1461.16	17.721
1461.42	20.7909
1461.69	17.7161
1461.95	20.785
1462.22	16.6866
1462.49	16.6834
1462.75	19.7498
1463.02	18.7223
1463.28	15.6493
1463.55	17.6906
1463.82	20.7539
1464.08	17.6859
1464.35	17.6913
1464.61	19.7457
1464.88	18.7291
1465.15	18.7378
1465.41	20.7697
1465.68	17.6676
1465.94	19.6942
1466.21	19.6921
1466.48	19.698
1466.74	20.7167
1467.01	17.6467
1467.27	18.6643
1467.54	19.6862
1467.8	18.6646
1468.07	19.6832
1468.34	18.6622
1468.6	19.6817
1468.87	20.7012
1469.13	18.6599
1469.4	17.638
1469.67	19.6752
1469.93	16.6125
1470.2	18.6471
1470.46	18.6434
1470.73	18.6407
1470.99	15.5817
1471.26	20.6745
1471.53	16.5967
1471.79	21.6858
1472.06	16.5909
1472.32	18.6261
1472.59	17.607
1472.85	18.6245
1473.12	20.6602
1473.39	16.586
1473.65	17.6014
1473.92	19.6343
1474.18	18.614
1474.45	16.5772
1474.71	18.6123
1474.98	17.5961
1475.24	18.6149
1475.51	20.6506
1475.78	20.6498
1476.04	17.5947
1476.31	16.5745
1476.57	14.5378
1476.84	16.5711
1477.1	14.5338
1477.37	14.5312
1477.63	18.5978
1477.9	16.5631
1478.16	17.5794
1478.43	17.5772
1478.69	17.5736
1478.96	18.5873
1479.22	15.5354
1479.49	18.5811
1479.76	14.5135
1480.02	16.5417
1480.29	18.5691
1480.55	13.4863
1480.82	19.5717
1481.08	15.5088
1481.35	16.5218
1481.61	14.4899
1481.88	15.5056
1482.14	16.5226
1482.41	17.5403
1482.67	15.5136
1482.94	16.5311
1483.2	18.5614
1483.47	14.5019
1483.73	19.5801
1484	17.549
1484.26	19.5791
1484.53	17.541
1484.79	19.5599
1485.06	16.4986
1485.32	17.4881
1485.59	14.4448
1485.85	17.4658
1486.12	18.5193
1486.38	15.4841
1486.65	18.5312
1486.91	15.4732
1487.18	19.5339
1487.44	18.5233
1487.71	14.4652
1487.97	19.5261
1488.24	16.485
1488.5	15.4695
1488.77	15.4659
1489.03	18.4983
1489.3	15.4589
1489.56	17.4806
1489.83	17.4789
1490.09	17.4776
1490.36	20.5122
1490.62	15.4535
1490.89	19.4976
1491.15	12.4142
1491.42	16.4561
1491.68	18.4764
1491.95	15.4424
1492.21	16.4531
1492.48	16.4537
1492.74	18.475
1493	16.4519
1493.27	17.4621
1493.53	17.4619
1493.8	17.4604
1494.06	16.4488
1494.33	18.4705
1494.59	15.4388
1494.86	16.4509
1495.12	18.472
1495.39	15.4364
1495.65	16.4422
1495.92	18.4564
1496.18	16.4311
1496.45	21.4763
1496.71	17.435
1496.97	18.4421
1497.24	15.4115
1497.5	14.4019
1497.77	18.4387
1498.03	15.4098
1498.3	16.4184
1498.56	18.4368
1498.82	16.4185
1499.09	18.4374
1499.35	16.4194
1499.62	18.4391
1499.88	15.4121
1500.15	18.4419
1500.41	17.4328
1500.68	15.4133
1500.94	19.4508
1501.2	17.431
1501.47	16.4195
1501.73	18.4346
1502	17.4241
1502.26	16.4142
1502.52	17.4225
1502.79	17.4206
1503.05	15.3991
1503.32	18.4217
1503.58	17.4108
1503.85	16.3992
1504.11	14.3823
1504.37	14.3835
1504.64	14.384
1504.9	16.4008
1505.17	15.3915
1505.43	17.4063
1505.7	17.4034
1505.96	16.3904
1506.22	18.3994
1506.49	16.3831
1506.75	21.4195
1507.02	21.4202
1507.28	16.3851
1507.54	13.3626
1507.81	14.3707
1508.07	17.3934
1508.34	19.4073
1508.6	15.3758
1508.86	17.3911
1509.13	19.4068
1509.39	17.3916
1509.66	18.3988
1509.92	12.3527
1510.18	17.3926
1510.45	17.3936
1510.71	16.3824
1510.98	15.3716
1511.24	15.3679
1511.5	14.3564
1511.77	14.3504
1512.03	16.3546
1512.29	16.3459
1512.56	18.3476
1512.82	16.3305
1513.08	15.3217
1513.35	17.3261
1513.61	16.3187
1513.88	16.3172
1514.14	17.3249
1514.4	20.3447
1514.67	17.3329
1514.93	13.313
1515.2	17.3266
1515.46	16.3178
1515.72	13.3024
1515.99	15.3049
1516.25	15.3001
1516.51	20.3111
1516.78	20.3089
1517.04	15.2935
1517.3	16.295
1517.57	15.2917
1517.83	18.2997
1518.09	16.2954
1518.36	18.304
1518.62	16.2989
1518.88	16.2999
1519.15	17.3038
1519.41	15.2988
1519.67	18.3095
1519.94	20.3169
1520.2	14.2965
1520.47	17.3046
1520.73	17.3032
1520.99	17.304
1521.26	19.3121
1521.52	17.3069
1521.78	14.2971
1522.05	15.2997
1522.31	17.3047
1522.57	17.3026
1522.84	18.3034
1523.1	16.2954
1523.36	16.2925
1523.62	18.2924
1523.89	18.2849
1524.15	20.2835
1524.41	13.2676
1524.68	19.2739
1524.94	20.2719
1525.2	16.2684
1525.47	19.2734
1525.73	15.2679
1525.99	15.2699
1526.26	17.2763
1526.52	17.2807
1526.78	16.2818
1527.05	16.2829
1527.31	17.2847
1527.57	16.2798
1527.84	16.2786
1528.1	17.2791
1528.36	19.2815
1528.63	18.2771
1528.89	15.2696
1529.15	18.2731
1529.41	15.2671
1529.68	17.2699
1529.94	16.267
1530.2	15.2627
1530.47	15.2618
1530.73	16.2645
1530.99	19.2727
1531.25	16.2708
1531.52	16.2732
1531.78	18.2774
1532.04	14.2681
1532.31	19.2784
1532.57	17.2718
1532.83	14.2677
1533.09	16.2759
1533.36	17.2842
1533.62	14.2806
1533.88	16.2886
1534.15	13.2803
1534.41	14.2831
1534.67	17.2914
1534.94	16.2869
1535.2	15.282
1535.46	17.2861
1535.72	14.2747
1535.99	13.2652
1536.25	17.2683
1536.51	17.2642
1536.77	17.258
1537.04	14.2486
1537.3	14.2437
1537.56	16.2424
1537.82	15.2382
1538.09	16.2384
1538.35	20.2351
1538.61	15.2299
1538.87	17.2274
1539.14	14.2269
1539.4	16.2303
1539.66	17.2398
1539.92	14.2489
1540.19	15.2576
1540.45	16.266
1540.71	19.2803
1540.97	16.2772
1541.24	17.2817
1541.5	18.2768
1541.76	14.2661
1542.02	17.2684
1542.29	18.2657
1542.55	15.256
1542.81	17.2548
1543.07	22.2563
1543.34	16.2455
1543.6	16.2413
1543.86	17.2361
1544.12	16.23
1544.39	16.2306
1544.65	14.2311
1544.91	17.235
1545.17	15.2387
1545.43	15.2419
1545.7	16.2491
1545.96	15.251
1546.22	15.2528
1546.48	18.2595
1546.74	14.2515
1547.01	18.2589
1547.27	15.2553
1547.53	17.2608
1547.79	16.2604
1548.06	18.2604
1548.32	14.2453
1548.58	15.2464
1548.84	16.2484
1549.1	15.2514
1549.37	16.2378
1549.63	18.2201
1549.89	16.2169
1550.15	16.2258
1550.42	14.2404
1550.68	18.2724
1550.94	16.285
1551.2	14.2915
1551.46	18.2976
1551.73	18.2992
1551.99	16.2875
1552.25	18.2893
1552.51	17.2933
1552.77	17.3003
1553.03	19.3065
1553.3	15.2846
1553.56	18.2831
1553.82	15.2705
1554.08	19.2813
1554.34	17.2714
1554.61	17.2663
1554.87	16.258
1555.13	14.2482
1555.39	17.2515
1555.65	21.257
1555.91	17.2498
1556.18	17.2507
1556.44	18.2525
1556.7	15.2446
1556.96	18.2495
1557.22	18.2505
1557.48	16.2479
1557.75	13.2426
1558.01	17.2486
1558.27	18.2468
1558.53	15.237
1558.79	17.235
1559.06	16.2282
1559.32	17.2234
1559.58	17.2186
1559.84	16.2147
1560.1	15.2119
1560.36	17.2087
1560.63	13.2088
1560.89	16.2057
1561.15	15.2052
1561.41	16.2041
1561.67	18.2038
1561.93	15.2083
1562.19	16.2121
1562.46	17.217
1562.72	17.2169
1562.98	19.2161
1563.24	16.2143
1563.5	14.2147
1563.76	15.2131
1564.02	15.2119
1564.29	12.2163
1564.55	17.2242
1564.81	17.2262
1565.07	17.2248
1565.33	17.2148
1565.59	16.1857
1565.85	14.154
1566.11	16.1252
1566.38	16.192
1566.64	14.2115
1566.9	15.2034
1567.16	18.1897
1567.42	15.2054
1567.68	18.2205
1567.94	16.2154
1568.2	19.2026
1568.47	14.206
1568.73	17.2075
1568.99	19.2084
1569.25	20.2062
1569.51	14.2015
1569.77	16.1968
1570.03	16.1967
1570.29	15.1984
1570.55	18.1968
1570.82	14.1992
1571.08	16.1975
1571.34	13.1985
1571.6	18.1934
1571.86	19.1894
1572.12	15.19
1572.38	17.1871
1572.64	14.1884
1572.9	17.1812
1573.17	18.1769
1573.43	18.1741
1573.69	15.1764
1573.95	17.17
1574.21	18.1682
1574.47	19.1695
1574.73	18.1753
1574.99	17.1808
1575.25	14.1883
1575.51	18.1881
1575.78	17.1919
1576.04	15.1938
1576.3	16.1918
1576.56	14.1927
1576.82	16.1892
1577.08	15.185
1577.34	17.1758
1577.6	18.1675
1577.86	18.1609
1578.12	14.165
1578.38	16.1549
1578.64	16.1517
1578.9	17.1474
1579.17	17.147
1579.43	19.1405
1579.69	15.1528
1579.95	16.1504
1580.21	16.1526
1580.47	17.1507
1580.73	17.1509
1580.99	16.1528
1581.25	16.1507
1581.51	16.1479
1581.77	17.1423
1582.03	15.1454
1582.29	14.1456
1582.55	16.1369
1582.81	17.1317
1583.07	18.1263
1583.33	14.1407
1583.59	19.1203
1583.85	15.1355
1584.11	17.1256
1584.38	18.1213
1584.64	15.1346
1584.9	15.1354
1585.16	18.1242
1585.42	18.1238
1585.68	13.1422
1585.94	17.1258
1586.2	17.1239
1586.46	16.124
1586.72	17.1152
1586.98	18.1072
1587.24	14.1239
1587.5	17.1073
1587.76	18.1006
1588.02	15.1147
1588.28	18.0994
1588.54	15.1156
1588.8	16.1123
1589.06	16.1144
1589.32	16.1162
1589.58	19.1046
1589.84	15.1238
1590.1	17.1154
1590.36	18.1107
1590.62	15.1249
1590.88	14.1306
1591.14	19.1113
1591.4	16.1229
1591.66	16.1225
1591.92	13.1338
1592.18	20.1021
1592.44	19.1019
1592.7	15.1149
1592.96	18.0959
1593.22	15.1085
1593.48	14.1083
1593.74	16.0905
1594	19.0644
1594.26	15.0857
1594.52	17.0699
1594.78	17.0697
1595.04	16.0782
1595.3	17.0748
1595.56	17.0769
1595.82	18.0703
1596.08	17.0686
1596.34	17.068
1596.6	16.0745
1596.86	16.0745
1597.12	16.0748
1597.38	18.0624
1597.64	16.077
1597.9	16.0781
1598.16	17.071
1598.42	16.0757
1598.68	19.0522
1598.94	12.0962
1599.2	15.0711
1599.46	15.068
1599.72	16.0576
1599.98	19.0311
1600.24	15.0596
1600.5	15.0569
1600.76	18.0287
1601.02	17.0326
1601.28	16.0359
1601.54	17.0211
1601.8	17.0153
1602.06	18.0006
1602.32	15.0266
1602.58	17.003
1602.84	14.0304
1603.1	14.0267
1603.36	17.9798
1603.62	18.9652
1603.88	15.0072
1604.14	17.972
1604.4	17.9713
1604.66	18.9601
1604.92	17.9717
1605.17	17.9717
1605.43	15.9942
1605.69	18.9611
1605.95	14.0179
1606.21	17.9754
1606.47	16.9884
1606.73	16.9904
1606.99	16.0026
1607.25	16.003
1607.51	18.9279
1607.77	17.0059
1608.03	16.0848
1608.29	16.0563
1608.55	18.8865
1608.81	18.8408
1609.07	16.1242
1609.32	16.0489
1609.58	18.5943
1609.84	17.6039
1610.1	17.0714
1610.36	16.218
1610.62	15.387
1610.88	17.8367
1611.14	18.2494
1611.4	18.2542
1611.66	18.5477
1611.92	15.5229
1612.18	16.3587
1612.44	17.2955
1612.69	16.9522
1612.95	15.8272
1613.21	16.6779
1613.47	16.1764
1613.73	16.1719
1613.99	14.5051
1614.25	18.2873
1614.51	16.5944
1614.77	18.2415
1615.03	15.275
1615.29	18.8021
1615.54	17.2496
1615.8	16.157
1616.06	17.1146
1616.32	18.419
1616.58	16.5601
1616.84	19.5592
1617.1	15.7559
1617.36	17.0812
1617.62	16.4446
1617.88	17.9033
1618.13	16.864
1618.39	17.9871
1618.65	16.0812
1618.91	16.4732
1619.17	17.3597
1619.43	16.3479
1619.69	16.7225
1619.95	16.7621
1620.2	18.9918
1620.46	18.7055
1620.72	17.3781
1620.98	16.9906
1621.24	17.1926
1621.5	16.7867
1621.76	18.9892
1622.02	16.8189
1622.27	16.9167
1622.53	17.8064
1622.79	17.1031
1623.05	16.3414
1623.31	15.1183
1623.57	16.5827
1623.83	16.3644
1624.09	16.9843
1624.34	17.4598
1624.6	18.1207
1624.86	17.6002
1625.12	17.5274
1625.38	16.5474
1625.64	16.8157
1625.9	16.5194
1626.15	17.3394
1626.41	16.8676
1626.67	17.3217
1626.93	19.351
1627.19	17.245
1627.45	17.6009
1627.7	17.9607
1627.96	17.2261
1628.22	17.6253
1628.48	16.9056
1628.74	14.7916
1629	13.9857
1629.26	14.9323
1629.51	14.6689
1629.77	17.9283
1630.03	16.6973
1630.29	16.6024
1630.55	17.0884
1630.81	19.9708
1631.06	17.7589
1631.32	17.0655
1631.53	14.7701
1631.79	14.7721
1632.05	16.7453
1632.31	16.748
1632.57	15.7615
1632.84	16.7514
1633.1	16.7596
1633.36	14.7816
1633.62	15.7594
1633.88	16.7427
1634.14	19.7012
1634.4	16.7474
1634.66	17.7337
1634.93	16.7483
1635.19	19.7049
1635.45	17.7327
1635.71	14.7747
1635.97	13.7878
1636.23	15.7571
1636.49	17.7256
1636.75	17.7232
1637.02	19.6907
1637.28	12.7932
1637.54	17.7143
1637.8	14.7586
1638.06	19.6809
1638.32	20.6634
1638.58	16.7235
1638.84	19.6751
1639.1	15.7378
1639.37	15.7376
1639.63	14.7529
1639.89	16.7214
1640.15	17.7052
1640.41	16.7201
1640.67	14.7518
1640.93	16.7234
1641.19	17.7101
1641.46	15.7412
1641.72	21.6478
1641.98	16.7226
1642.24	16.7213
1642.5	18.6891
1642.76	15.7349
1643.02	15.7341
1643.28	16.7177
1643.54	16.7171
1643.8	12.7794
1644.06	17.6991
1644.33	17.697
1644.59	16.7102
1644.85	18.6754
1645.11	14.7395
1645.37	17.692
1645.63	19.6622
1645.89	17.6953
1646.15	17.6954
1646.41	16.7095
1646.67	17.6912
1646.93	18.673
1647.19	18.6716
1647.46	14.735
1647.72	17.6838
1647.98	14.7317
1648.24	20.6317
1648.5	17.6819
1648.76	17.6848
1649.02	14.7365
1649.28	16.7123
1649.54	16.7154
1649.8	18.6822
1650.06	15.727
1650.32	18.6797
1650.58	16.7158
1650.85	14.7498
1651.11	16.7225
1651.37	14.755
1651.63	18.6982
1651.89	18.699
1652.15	16.7281
1652.41	18.6988
1652.67	15.7429
1652.93	15.7412
1653.19	16.7244
1653.45	17.7085
1653.71	17.7084
1653.97	15.7385
1654.23	17.7106
1654.49	15.7407
1654.75	16.7266
1655.01	19.6843
1655.27	17.7152
1655.53	15.7467
1655.8	15.7511
1656.06	19.7028
1656.32	14.7732
1656.57	16.7492
1656.84	18.7247
1657.1	13.7897
1657.36	15.7634
1657.62	15.7618
1657.88	18.7207
1658.14	16.7456
1658.4	16.7442
1658.66	15.7555
1658.92	17.7262
1659.18	18.7099
1659.44	14.7619
1659.7	15.7457
1659.96	17.7151
1660.22	17.7111
1660.48	17.7124
1660.74	13.7706
1661	17.717
1661.26	17.72
1661.52	17.7231
1661.78	14.7664
1662.04	20.6882
1662.3	18.7159
1662.56	15.7409
1662.82	15.77
1663.08	17.7639
1663.34	18.7424
1663.6	17.7519
1663.86	16.7592
1664.12	16.725
1664.38	16.7422
1664.64	17.7334
1664.9	16.7474
1665.16	16.7555
1665.42	17.7467
1665.68	17.7276
1665.94	17.711
1666.2	16.7673
1666.46	16.7707
1666.72	16.7687
1666.98	19.7075
1667.24	14.7254
1667.5	18.7167
1667.76	16.7385
1668.02	15.7488
1668.28	17.7204
1668.54	16.7308
1668.8	15.7444
1669.06	16.7383
1669.32	19.7103
1669.58	18.7245
1669.84	15.7615
1670.1	16.7497
1670.36	16.7478
1670.62	19.7107
1670.88	18.7324
1671.14	17.7499
1671.4	18.7364
1671.66	16.758
1671.92	16.757
1672.18	15.7692
1672.44	14.7819
1672.69	18.7362
1672.95	17.7475
1673.21	16.7587
1673.47	17.7475
1673.73	15.7709
1673.99	15.7718
1674.25	17.7507
1674.51	16.764
1674.77	18.744
1675.03	17.757
1675.29	16.7708
1675.55	18.7522
1675.81	18.7537
1676.07	17.7641
1676.33	17.7637
1676.59	17.7641
1676.85	18.7545
1677.11	15.7856
1677.37	18.7544
1677.63	15.7841
1677.89	15.7825
1678.14	15.7801
1678.4	14.7876
1678.66	15.7733
1678.92	16.7592
1679.18	16.7567
1679.44	17.7431
1679.7	14.7758
1679.96	17.7394
1680.22	17.7375
1680.48	17.7359
1680.74	13.7813
1681	16.7439
1681.26	17.7302
1681.52	17.7291
1681.78	13.777
1682.03	18.7162
1682.29	15.7522
1682.55	15.7522
1682.81	17.7282
1683.07	18.7152
1683.33	12.7872
1683.59	18.714
1683.85	17.7259
1684.11	17.7252
1684.37	15.7483
1684.63	15.7458
1684.89	15.7442
1685.14	19.6932
1685.4	16.73
1685.66	18.7044
1685.92	16.7292
1686.18	17.7166
1686.44	17.7167
1686.7	16.7304
1686.96	14.758
1687.22	17.723
1687.48	17.7231
1687.73	16.7338
1687.99	16.7316
1688.25	17.7172
1688.51	16.7278
1688.77	14.7509
1689.03	13.7613
1689.29	16.7194
1689.55	17.7033
1689.81	13.7532
1690.06	16.7099
1690.32	16.706
1690.58	16.7047
1690.84	16.7083
1691.1	11.7772
1691.36	13.7514
1691.62	15.7254
1691.88	16.7137
1692.13	16.715
1692.39	14.7409
1692.65	17.7006
1692.91	14.7375
1693.17	18.6808
1693.43	16.7037
1693.69	19.6573
1693.95	18.6655
1694.2	13.7336
1694.46	19.6431
1694.72	15.6981
1694.98	20.6208
1695.24	14.7102
1695.5	17.6661
1695.76	16.6817
1696.01	16.6824
1696.27	16.6834
1696.53	15.7
1696.79	12.7447
1697.05	20.6284
1697.31	14.7138
1697.57	18.6518
1697.82	14.707
1698.08	16.6724
1698.34	15.6842
1698.6	19.6187
1698.86	15.6786
1699.12	15.6762
1699.38	15.6749
1699.63	17.6422
1699.89	15.6749
1700.15	13.7068
1700.41	15.6749
1700.67	19.6072
1700.92	15.6709
1701.18	17.6375
1701.44	16.6526
1701.7	17.6346
1701.96	20.5819
1702.22	15.6613
1702.47	16.6414
1702.73	16.638
1702.99	17.6174
1703.25	17.6162
1703.51	14.6676
1703.77	17.6142
1704.02	15.6473
1704.28	15.6462
1704.54	13.6824
1704.8	16.6319
1705.06	17.6148
1705.32	18.5964
1705.57	16.6299
1705.83	17.6122
1706.09	14.6643
1706.35	14.6618
1706.61	19.5696
1706.86	14.6549
1707.12	17.5963
1707.38	18.5733
1707.64	14.644
1707.9	18.5639
1708.16	16.5965
1708.41	14.6303
1708.67	16.5857
1708.93	13.6404
1709.19	15.5946
1709.44	14.6117
1709.7	15.5884
1709.96	18.5239
1710.22	22.4392
1710.48	15.5867
1710.73	15.5869
1710.99	17.5461
1711.25	17.5485
1711.51	14.6119
1711.77	14.613
1712.02	15.5933
1712.28	16.5728
1712.54	16.5708
1712.8	17.5451
1713.06	14.6017
1713.31	16.5518
1713.57	19.4788
1713.83	16.539
1714.09	17.5098
1714.34	16.5294
1714.6	15.5503
1714.86	18.4789
1715.12	18.4776
1715.38	17.5004
1715.63	18.48
1715.89	17.5067
1716.15	15.5522
1716.41	17.5047
1716.66	14.5714
1716.92	16.5214
1717.18	16.5166
1717.44	16.5107
1717.69	19.4304
1717.95	15.5202
1718.21	17.4627
1718.47	16.4815
1718.72	18.4239
1718.98	16.4721
1719.24	14.5225
1719.5	17.443
1719.75	14.5216
1720.01	14.5206
1720.27	17.4424
1720.53	14.5218
1720.78	18.4145
1721.04	17.4376
1721.3	17.4327
1721.56	17.4288
1721.81	18.3979
1722.07	20.3386
1722.33	16.4442
1722.59	17.4118
1722.84	19.3508
1723.1	17.403
1723.36	18.3704
1723.62	17.3959
1723.87	20.3068
1724.13	13.509
1724.39	16.4206
1724.64	15.4486
1724.9	16.4167
1725.16	15.4417
1725.42	16.4056
1725.67	18.3392
1725.93	17.3627
1726.19	16.3891
1726.45	17.356
1726.7	13.4805
1726.96	17.3555
1727.22	17.3527
1727.47	15.4093
1727.73	17.3458
1727.99	12.5058
1728.24	17.3483
1728.5	17.3452
1728.76	18.3067
1729.02	16.3478
1729.27	17.2881
1729.53	14.3839
1729.79	18.2531
1730.05	17.2965
1730.3	17.3029
1730.56	17.2923
1730.82	19.2181
1731.07	17.2855
1731.33	14.4055
1731.59	13.4397
1731.84	17.3056
1732.1	16.3386
1732.36	17.3038
1732.61	18.2682
1732.87	18.266
1733.13	12.4668
1733.39	16.3273
1733.64	18.2533
1733.9	14.3853
1734.16	18.2382
1734.41	21.1259
1734.67	16.2983
1734.93	15.3291
1735.18	18.2145
1735.44	18.2086
1735.7	20.1292
1735.95	18.1993
1736.21	16.2711
1736.47	13.3819
1736.72	19.1548
1736.98	16.2652
1737.24	17.225
1737.49	16.2602
1737.75	16.2579
1738.01	20.1027
1738.26	17.2142
1738.52	18.1717
1738.78	17.2066
1739.03	18.1638
1739.29	15.277
1739.55	17.1934
1739.8	12.3862
1740.06	17.1789
1740.32	18.1307
1740.57	19.0826
1740.83	22.9109
1741.09	17.1549
1741.34	18.109
1741.6	17.1469
1741.86	18.101
1742.11	15.2251
1742.37	17.1382
1742.63	17.137
1742.88	17.1355
1743.14	20.0052
1743.4	19.0466
1743.65	18.0887
1743.91	17.1296
1744.16	19.0397
1744.42	19.0362
1744.68	18.0766
1744.93	19.0316
1745.19	18.0749
1745.45	15.2054
1745.7	14.2487
1745.96	17.1171
1746.22	16.1585
1746.47	17.1112
1746.73	16.1507
1746.98	17.1013
1747.24	17.0972
1747.5	14.2268
1747.75	17.0881
1748.01	15.1745
1748.27	16.1272
1748.52	18.0357
1748.78	15.172
1749.03	18.9908
1749.29	18.0372
1749.55	18.0391
1749.8	18.0418
1750.06	17.09
1750.32	17.0936
1750.57	19.9641
1750.83	18.0566
1751.08	17.1019
1751.34	16.1477
1751.6	18.06
1751.85	17.1016
1752.11	15.1853
1752.36	18.0465
1752.62	17.0871
1752.88	18.9931
1753.13	16.1245
1753.39	16.1207
1753.64	15.1632
1753.9	18.977
1754.15	17.0658
1754.41	18.0156
1754.67	17.0579
1754.92	16.1017
1755.18	16.0993
1755.43	14.1909
1755.69	18.0011
1755.95	18.9508
1756.2	20.852
1756.46	18.9418
1756.71	17.0322
1756.97	17.0265
1757.23	17.0209
1757.48	13.2106
1757.74	14.16
1757.99	15.1091
1758.25	21.7678
1758.5	16.0655
1758.76	17.9698
1759.02	18.9216
1759.27	14.1638
1759.53	18.9217
1759.78	17.0192
1760.04	17.9704
1760.3	17.0173
1760.55	16.0642
1760.81	17.9652
1761.06	15.1091
1761.32	18.911
1761.57	19.858
1761.83	13.199
1762.08	17.9504
1762.34	15.0971
1762.6	16.9974
1762.85	16.0493
1763.11	14.1493
1763.36	16.0511
1763.62	20.8042
1763.87	17.9522
1764.13	16.0514
1764.38	16.0529
1764.64	17.9584
1764.89	18.9165
1765.15	17.0158
1765.4	17.0178
1765.66	17.9712
1765.92	19.8763
1766.17	17.9727
1766.43	20.8288
1766.68	20.8279
1766.94	18.9222
1767.19	17.0168
1767.45	17.0164
1767.7	16.063
1767.96	18.9157
1768.21	17.0095
1768.47	15.1045
1768.73	18.9085
1768.98	18.9069
1769.24	18.899
1769.49	16.9877
1769.75	17.9287
1770	18.8719
1770.26	16.0236
1770.51	18.8765
1770.77	16.981
1771.02	18.8812
1771.28	19.8326
1771.53	15.0856
1771.79	19.8446
1772.04	17.9452
1772.3	16.9951
1772.55	17.9488
1772.81	17.0009
1773.06	20.8092
1773.32	16.0537
1773.57	17.007
1773.83	17.0086
1774.08	20.8176
1774.34	16.0592
1774.59	17.012
1774.85	18.9168
1775.1	17.967
1775.36	17.9683
1775.61	19.8762
1775.87	14.1675
1776.12	17.9837
1776.38	18.9391
1776.63	18.9397
1776.89	17.032
1777.14	17.0297
1777.4	19.8857
1777.65	17.9775
1777.91	17.9741
1778.16	19.8759
1778.42	18.9197
1778.67	17.9639
1778.93	17.0079
1779.18	16.0515
1779.44	19.8529
1779.69	16.0441
1779.95	17.9463
1780.2	17.9513
1780.46	17.9524
1780.71	18.9053
1780.97	16.0511
1781.22	16.0526
1781.47	17.9567
1781.73	17.0053
1781.98	18.9109
1782.24	16.0565
1782.49	17.0113
1782.75	17.9678
1783	17.0175
1783.26	15.1135
1783.51	17.0211
1783.77	17.0231
1784.02	17.0251
1784.28	19.8878
1784.53	18.9375
1784.79	18.9422
1785.04	19.899
1785.29	17.9923
1785.55	17.038
1785.8	16.0828
1786.06	16.081
1786.31	18.9408
1786.57	19.8948
1786.82	17.9884
1787.08	15.1287
1787.33	17.9948
1787.58	15.1356
1787.84	17.0511
1788.09	18.0167
1788.35	16.1156
1788.6	18.9961
1788.86	17.0895
1789.11	17.0923
1789.37	18.0538
1789.62	16.1443
1789.87	19.023
1790.13	19.0253
1790.38	18.0691
1790.64	19.03
1790.89	19.9887
1791.15	15.1944
1791.4	14.2324
1791.65	18.055
1791.91	13.2644
1792.16	17.0936
1792.42	18.0514
1792.67	16.1365
1792.93	16.1372
1793.18	19.0128
1793.43	15.1823
1793.69	16.1405
1793.94	16.1405
1794.2	17.1006
1794.45	21.8923
1794.7	16.1425
1794.96	18.056
1795.21	18.0609
1795.47	16.1565
1795.72	15.205
1795.97	19.0482
1796.23	16.171
1796.48	17.134
1796.74	19.0579
1796.99	16.1797
1797.25	17.1436
1797.5	15.2246
1797.75	14.2658
1798.01	18.1126
1798.26	18.1145
1798.51	16.193
1798.77	19.0785
1799.02	18.1169
1799.28	18.1157
1799.53	17.1522
1799.78	16.1881
1800.04	16.1847
1800.29	18.1035
1800.55	16.1792
1800.8	18.0984
1801.05	18.0966
1801.31	15.2138
1801.56	15.2131
1801.81	18.0944
1802.07	16.1738
1802.32	17.1354
1802.58	19.0583
1802.83	17.1389
1803.08	16.1806
1803.34	15.2224
1803.59	14.2641
1803.84	18.1128
1804.1	17.1526
1804.35	19.0768
1804.61	20.041
1804.86	17.1584
1805.11	17.1614
1805.37	13.3151
1805.62	18.1318
1805.87	16.2102
1806.13	16.2135
1806.38	16.2161
1806.64	15.255
1806.89	18.1479
1807.14	17.1855
1807.4	14.2946
1807.65	16.2222
1807.9	20.0773
1808.16	19.1135
1808.41	16.2222
1808.66	12.3669
1808.92	15.2588
1809.17	17.1871
1809.42	17.1876
1809.68	17.188
1809.93	19.1167
1810.18	14.2967
1810.44	15.2612
1810.69	16.2254
1810.94	15.2603
1811.2	17.1875
1811.45	18.1511
1811.7	18.1506
1811.96	16.222
1812.21	18.1502
1812.46	15.2585
1812.72	15.26
1812.97	13.3332
1813.22	18.1581
1813.48	16.2312
1813.73	17.1967
1813.98	15.2692
1814.24	14.3073
1814.49	16.2416
1814.74	15.2803
1815	15.2851
1815.25	17.2202
1815.5	15.2901
1815.76	16.2576
1816.01	15.2918
1816.26	19.1584
1816.52	17.2261
1816.77	16.2605
1817.02	16.2614
1817.27	19.1603
1817.53	15.2913
1817.78	17.2162
1818.03	18.176
1818.29	18.1767
1818.54	17.2138
1818.79	17.2183
1819.05	15.2879
1819.3	16.2534
1819.55	16.2544
1819.8	16.2561
1820.06	15.2912
1820.31	17.2259
1820.56	15.2939
1820.82	20.131
1821.07	13.363
1821.32	16.2658
1821.58	18.2026
1821.83	15.3027
1822.08	16.2724
1822.33	17.2419
1822.59	19.1791
1822.84	17.2443
1823.09	16.277
1823.34	20.15
1823.6	14.341
1823.85	16.2756
1824.1	16.2738
1824.36	18.2089
1824.61	17.2422
1824.86	17.2436
1825.11	14.3405
1825.37	15.3099
1825.62	18.2164
1825.87	16.2807
1826.12	18.2178
1826.38	20.1544
1826.63	17.2492
1826.88	15.3125
1827.14	17.2497
1827.39	17.2507
1827.64	17.2521
1827.89	15.3162
1828.15	17.2554
1828.4	17.2553
1828.65	15.3167
1828.9	15.315
1829.16	15.3126
1829.41	17.2481
1829.66	14.3417
1829.91	13.3725
1830.17	17.2453
1830.42	15.3064
1830.67	19.1774
1830.92	17.239
1831.18	16.2707
1831.43	15.3041
1831.68	17.2427
1831.93	18.2134
1832.19	16.2782
1832.44	17.2489
1832.69	19.1889
1832.94	18.2235
1833.2	16.2874
1833.45	17.2568
1833.7	17.257
1833.95	14.3502
1834.2	16.2896
1834.46	16.2905
1834.71	17.2554
1834.96	15.3087
1835.21	15.301
1835.47	17.2295
1835.72	17.2243
1835.97	22.0558
1836.22	17.219
1836.48	17.2149
1836.73	20.1969
1836.98	17.2815
1837.23	17.2583
1837.48	18.2191
1837.74	18.2061
1837.99	17.2268
1838.24	17.2093
1838.49	15.2662
1838.74	15.2641
1839	16.257
1839.25	19.1739
1839.5	16.2743
1839.75	18.2143
1840	18.2166
1840.26	16.2822
1840.51	17.2357
1840.76	16.2558
1841.01	16.246
1841.27	16.2377
1841.52	19.1287
1841.77	17.1884
1842.02	17.1813
1842.27	17.1749
1842.53	17.1689
1842.78	17.1631
1843.03	16.2013
1843.28	15.235
1843.53	18.1304
1843.78	16.2007
1844.04	15.2359
1844.29	19.0922
1844.54	18.1273
1844.79	18.1294
1845.04	16.2002
1845.3	17.1619
1845.55	15.2332
1845.8	15.2332
1846.05	19.0991
1846.3	16.211
1846.55	14.2855
1846.81	15.2618
1847.06	15.2532
1847.31	17.1604
1847.56	16.1687
1847.81	16.1632
1848.07	14.2381
1848.32	15.2081
1848.57	18.1056
1848.82	15.207
1849.07	15.2027
1849.32	13.2773
1849.57	16.1625
1849.83	14.233
1850.08	16.1525
1850.33	14.224
1850.58	15.18
1850.83	15.1753
1851.09	14.2103
1851.34	17.0892
1851.59	16.1252
1851.84	18.0434
1852.09	16.1209
1852.34	17.0801
1852.59	15.1593
1852.84	14.1989
1853.1	17.0794
1853.35	15.1583
1853.6	18.0376
1853.85	16.1153
1854.1	14.1923
1854.35	18.0265
1854.6	15.1427
1854.86	18.0152
1855.11	16.0945
1855.36	15.1332
1855.61	14.1702
1855.86	16.0816
1856.11	17.0364
1856.36	14.1611
1856.61	18.9492
1856.87	16.0755
1857.12	15.1174
1857.37	17.0321
1857.62	17.0304
1857.87	15.113
1858.12	17.0259
1858.37	17.9804
1858.63	11.2768
1858.88	17.0154
1859.13	14.1413
1859.38	17.007
1859.63	14.1339
1859.88	14.1312
1860.13	17.9547
1860.38	16.9986
1860.63	16.0434
1860.89	17.0024
1861.14	15.0923
1861.39	17.0075
1861.64	17.9672
1861.89	13.1852
1862.14	16.0566
1862.39	15.0987
1862.64	15.0962
1862.9	16.0494
1863.15	14.1327
1863.4	14.1292
1863.65	17.9494
1863.9	16.034
1864.15	13.1641
1864.4	14.1169
1864.65	15.0694
1864.9	16.9765
1865.15	15.0632
1865.4	18.8775
1865.66	16.9631
1865.91	16.9573
1866.16	15.0434
1866.41	16.9434
1866.66	15.0304
1866.91	13.1192
1867.16	14.0656
1867.41	14.0597
1867.66	16.908
1867.91	16.9028
1868.16	14.0473
1868.41	14.9962
1868.67	17.8469
1868.92	14.995
1869.17	17.8477
1869.42	16.8967
1869.67	15.9449
1869.92	14.0425
1870.17	14.9921
1870.42	16.8921
1870.67	14.0397
1870.92	16.8902
1871.17	17.8399
1871.42	13.0875
1871.67	15.9374
1871.92	15.9354
1872.17	14.9824
1872.42	15.9303
1872.68	14.9787
1872.93	13.0764
1873.18	16.8715
1873.43	14.9703
1873.68	15.9187
1873.93	12.1203
1874.18	18.7622
1874.43	15.9117
1874.68	14.9592
1874.93	16.8523
1875.18	17.796
1875.43	16.843
1875.68	13.0473
1875.93	19.6741
1876.18	16.8225
1876.43	13.9767
1876.68	13.026
1876.93	16.8066
1877.18	15.8582
1877.43	12.0686
1877.68	14.8956
1877.93	15.8223
1878.18	16.7794
1878.44	15.8917
1878.69	13.0296
1878.93	17.7547
1879.19	15.86
1879.44	17.7687
1879.69	16.8292
1879.94	14.9297
1880.19	15.8718
1880.44	13.9772
1880.69	17.763
1880.94	14.9259
1881.19	15.8692
1881.44	14.9215
1881.69	13.0225
1881.94	14.9076
1882.19	14.9
1882.44	15.8367
1882.69	15.8275
1882.94	16.76
1883.19	13.9249
1883.44	15.8
1883.69	14.9546
1883.94	13.9455
1884.19	13.9093
1884.44	16.7375
1884.69	12.9751
1884.94	17.6807
1885.19	14.8584
1885.44	13.9225
1885.69	16.7547
1885.94	16.7567
1886.19	13.9323
1886.44	15.824
1886.69	16.7707
1886.94	15.8245
1887.19	18.6497
1887.44	16.7578
1887.69	13.923
1887.94	15.8061
1888.19	16.7449
1888.44	14.8544
1888.69	17.6758
1888.94	14.8431
1889.19	17.6637
1889.44	15.775
1889.69	16.7135
1889.94	14.83
1890.19	14.8291
1890.44	13.8889
1890.69	13.8918
1890.94	12.9529
1891.19	12.9536
1891.43	13.8948
1891.68	16.7187
1891.94	15.7764
1892.18	14.8335
1892.43	17.6575
1892.68	15.7734
1892.93	16.7124
1893.18	16.7088
1893.43	15.7617
1893.68	18.5741
1893.93	12.925
1894.18	16.6827
1894.43	14.8051
1894.68	18.5583
1894.93	17.6153
1895.18	15.7349
1895.43	16.6746
1895.68	15.7361
1895.93	15.7375
1896.18	17.6187
1896.43	18.5606
1896.68	14.8033
1896.93	14.8059
1897.18	16.689
1897.42	15.7505
1897.68	12.9299
1897.92	14.8116
1898.17	13.8707
1898.42	14.8103
1898.67	15.7489
1898.92	14.8056
1899.17	18.5626
1899.42	14.7981
1899.67	16.6745
1899.92	15.733
1900.17	15.7308
1900.42	14.7892
1900.67	15.7278
1900.92	14.7888
1901.16	16.669
1901.41	14.7923
1901.66	15.735
1901.91	13.8578
1902.16	15.7409
1902.41	15.7444
1902.66	16.6882
1902.91	14.8069
1903.16	15.746
1903.41	17.6252
1903.66	18.5633
1903.91	15.7406
1904.16	13.8588
1904.41	15.7384
1904.65	15.7377
1904.9	17.6173
1905.15	12.9156
1905.4	15.7351
1905.65	17.6148
1905.9	16.6736
1906.15	15.729
1906.4	17.6023
1906.65	16.6604
1906.9	17.5975
1907.14	14.7782
1907.39	18.5331
1907.64	16.655
1907.89	16.6558
1908.14	18.5362
1908.39	14.7819
1908.64	17.6014
1908.89	12.9044
1909.14	14.7849
1909.39	16.6666
1909.63	17.6098
1909.88	16.6738
1910.13	16.6786
1910.38	17.6247
1910.63	15.7483
1910.88	17.6359
1911.13	15.7563
1911.38	16.7004
1911.62	15.7599
1911.87	15.7604
1912.12	13.8761
1912.37	20.4684
1912.62	14.8157
1912.87	15.757
1913.12	16.6986
1913.37	16.6985
1913.61	17.6408
1913.86	12.9331
1914.11	15.7635
1914.36	15.7683
1914.61	16.7146
1914.86	15.7748
1915.11	14.8348
1915.36	16.7243
1915.6	16.7265
1915.85	14.8401
1916.1	15.7832
1916.35	15.7817
1916.6	16.7241
1916.85	16.7216
1917.1	18.6042
1917.34	17.6578
1917.59	14.8264
1917.84	15.7675
1918.09	14.8236
1918.34	17.6521
1918.59	13.8828
1918.83	16.715
1919.08	12.9458
1919.33	18.6113
1919.58	15.7852
1919.83	13.9029
1920.08	15.7969
1920.33	16.7446
1920.57	18.6351
1920.82	15.7983
1921.07	17.6889
1921.32	12.9676
1921.57	16.7523
1921.81	17.7002
1922.06	18.6482
1922.31	13.9209
1922.56	14.8665
1922.81	16.7565
1923.06	15.8082
1923.31	16.7512
1923.55	16.7494
1923.8	15.8026
1924.05	16.7462
1924.3	13.9085
1924.55	17.6854
1924.79	14.8487
1925.04	14.8479
1925.29	16.7379
1925.54	14.8501
1925.79	13.9079
1926.04	15.8027
1926.28	15.8069
1926.53	15.8107
1926.78	13.9225
1927.03	15.8196
1927.28	15.8227
1927.52	14.8781
1927.77	16.7739
1928.02	16.7759
1928.27	13.936
1928.52	15.8319
1928.76	20.5698
1929.01	16.7822
1929.26	13.9413
1929.51	14.8911
1929.76	13.9462
1930	17.7435
1930.25	14.9022
1930.5	17.7531
1930.75	15.859
1931	16.8124
1931.24	14.9146
1931.49	15.8643
1931.74	14.9135
1931.99	15.8607
1932.24	13.9601
1932.48	16.805
1932.73	12.0581
1932.98	18.6973
1933.23	13.9527
1933.47	13.9507
1933.72	18.6946
1933.97	16.8019
1934.22	14.9111
1934.46	18.7206
1934.71	16.8352
1934.96	16.8493
1935.21	16.8615
1935.46	13.0596
1935.7	16.8796
1935.95	14.0237
1936.2	18.7801
1936.45	15.9189
1936.69	16.8707
1936.94	15.9155
1937.19	14.9594
1937.44	13.0506
1937.68	20.666
1937.93	17.8052
1938.18	14.9461
1938.43	14.9429
1938.68	17.7977
1938.92	13.9955
1939.17	14.9491
1939.42	17.8081
1939.67	17.8109
1939.91	16.8604
1940.16	15.9102
1940.41	17.8164
1940.66	15.9144
1940.9	17.8246
1941.15	15.9283
1941.4	14.0256
1941.64	15.934
1941.89	15.9318
1942.14	15.926
1942.39	13.0565
1942.63	15.9219
1942.88	18.8017
1943.13	20.7156
1943.38	16.8967
1943.62	14.0263
1943.87	18.7902
1944.12	13.0611
1944.37	15.9322
1944.61	15.9354
1944.86	14.9838
1945.11	15.942
1945.35	16.901
1945.6	13.0831
1945.85	15.9532
1946.1	14.0446
1946.34	17.8715
1946.59	14.049
1946.84	14.0503
1947.09	14.051
1947.33	16.9198
1947.58	15.9618
1947.83	15.96
1948.07	15.0032
1948.32	16.9153
1948.57	16.915
1948.82	15.9574
1949.06	16.9141
1949.31	15.9606
1949.56	17.8768
1949.8	16.9236
1950.05	16.9277
1950.3	15.9746
1950.54	15.9811
1950.79	17.9045
1951.04	15.0352
1951.29	14.082
1951.53	15.0468
1951.78	16.9716
1952.03	16.0166
1952.27	17.9398
1952.52	15.0615
1952.77	14.1033
1953.01	14.1026
1953.26	15.0655
1953.51	15.0692
1953.76	16.0254
1954	16.9794
1954.25	18.8876
1954.49	13.1226
1954.74	15.0326
1954.99	17.9
1955.24	16.9392
1955.48	17.8964
1955.73	15.0242
1955.98	15.028
1956.22	17.9105
1956.47	16.9635
1956.72	16.9681
1956.96	16.9734
1957.21	16.0159
1957.46	16.9799
1957.7	17.944
1957.95	18.908
1958.2	19.8715
1958.44	13.1459
1958.69	16.9912
1958.94	14.1083
1959.18	17.9515
1959.43	18.9088
1959.68	18.9068
1959.92	16.0234
1960.17	16.9815
1960.42	15.0576
1960.66	16.9759
1960.91	15.0524
1961.16	15.0494
1961.4	16.0065
1961.65	13.1246
1961.9	15.0424
1962.14	15.0427
1962.39	15.0434
1962.63	15.0438
1962.88	16.0041
1963.13	17.9243
1963.37	16.005
1963.62	18.8853
1963.87	18.8858
1964.11	14.0863
1964.36	17.9285
1964.61	16.0098
1964.85	15.0491
1965.1	18.8885
1965.35	15.0478
1965.59	14.0869
1965.84	14.087
1966.08	16.9691
1966.33	17.9327
1966.58	16.0151
1966.82	16.0185
1967.07	16.9819
1967.32	17.9451
1967.56	17.9444
1967.81	16.9831
1968.05	15.0619
1968.3	18.9076
1968.55	18.9083
1968.79	16.985
1969.04	16.9833
1969.29	15.0579
1969.53	16.0149
1969.78	18.8914
1970.02	15.0442
1970.27	17.9202
1970.52	17.9163
1970.76	15.9942
1971.01	15.0317
1971.25	16.9481
1971.5	16.946
1971.75	19.8218
1971.99	16.9426
1972.24	15.9845
1972.48	16.9451
1972.73	16.9459
1972.98	17.9048
1973.22	16.9438
1973.47	15.9817
1973.71	16.9369
1973.96	17.8924
1974.21	15.014
1974.45	18.8467
1974.7	17.8873
1974.94	16.9287
1975.19	15.9706
1975.44	16.9303
1975.68	15.9736
1975.93	18.8525
1976.17	17.8958
1976.42	20.7749
1976.66	15.0209
1976.91	15.9805
1977.16	14.0619
1977.4	15.9797
1977.65	19.8151
1977.89	15.0174
1978.14	18.8506
1978.39	16.9298
1978.63	17.886
1978.88	16.9253
1979.12	16.9241
1979.37	15.9654
1979.61	17.8827
1979.86	16.9241
1980.1	18.8417
1980.35	16.9247
1980.6	17.8814
1980.84	16.9197
1981.09	18.833
1981.33	18.8312
1981.58	16.9125
1981.82	14.0369
1982.07	19.7825
1982.31	15.9506
1982.56	17.8652
1982.81	21.6925
1983.05	17.8591
1983.3	19.7691
1983.54	16.8924
1983.79	17.8452
1984.03	17.8433
1984.28	16.8853
1984.52	20.7093
1984.77	18.7943
1985.02	17.8362
1985.26	18.7892
1985.51	16.8724
1985.75	18.7816
1986	16.87
1986.24	16.8708
1986.49	18.7849
1986.73	18.7879
1986.98	20.7017
1987.22	19.7446
1987.47	17.8333
1987.71	19.7423
1987.96	17.8247
1988.21	15.9076
1988.45	21.6324
1988.7	19.7133
1988.94	17.8014
1989.19	21.5523
1989.43	18.7238
1989.68	20.5151
1989.92	19.5975
1990.17	21.6743
1990.41	16.0313
1990.66	21.5471
1990.9	21.3155
1991.15	19.4215
1991.39	22.0389
1991.64	16.1177
1991.88	19.3729
1992.13	19.7258
1992.37	17.3029
1992.62	18.9404
1992.86	20.6799
1993.11	18.6074
1993.35	16.876
1993.6	19.9159
1993.84	19.7351
1994.09	19.5197
1994.33	22.6225
1994.58	21.1527
1994.82	19.0007
1995.07	17.6166
1995.31	18.9275
1995.56	19.4506
1995.8	20.0752
1996.05	20.1485
1996.29	18.7395
1996.54	20.2389
1996.78	19.1643
1997.03	19.2227
1997.27	19.2944
1997.52	19.3591
1997.76	22.8534
1998.01	18.3638
1998.25	20.1909
1998.5	19.483
1998.74	18.7282
1998.99	19.7662
1999.23	20.971
1999.48	21.1508
1999.72	20.707
1999.97	18.5881
2000.21	18.643
2000.46	19.4316
2000.7	18.9882
2000.95	19.3218
2001.19	18.7717
2001.43	20.1104
2001.68	20.9023
2001.92	21.5319
2002.17	18.5631
2002.41	18.6176
2002.66	18.014
2002.9	20.0931
2003.15	20.2742
2003.39	19.7974
2003.64	20.8959
2003.88	21.6572
2004.13	20.1009
2004.37	20.8443
2004.61	20.2237
2004.86	18.3318
2005.1	20.8329
2005.35	19.8641
2005.59	20.046
2005.84	21.7908
2006.08	19.6632
2006.33	19.2384
2006.57	19.4624
2006.81	20.1633
2007.06	19.5133
2007.3	19.5219
2007.55	19.3671
2007.79	19.3378
2008.04	18.3877
2008.28	20.7743
2008.53	22.4916
2008.77	19.9102
2009.01	20.9984
2009.26	19.0677
2009.5	20.1017
2009.75	17.702
2009.99	21.3073
2010.24	23.1639
2010.48	18.1814
2010.73	20.8259
2010.97	21.9013
2011.21	17.2351
2011.46	19.8377
2011.7	20.652
2011.95	21.5557
2012.19	20.4895
2012.43	15.9461
2012.68	22.5359
2012.92	17.8263
2013.17	19.7051
2013.42	22.5211
2013.67	19.688
2013.91	21.5627
2014.16	20.6147
2014.41	18.7264
2014.66	19.6553
2014.9	19.646
2015.15	21.5201
2015.4	19.6438
2015.64	20.5849
2015.89	17.7718
2016.14	21.5293
2016.39	15.894
2016.63	17.7758
2016.88	17.7886
2017.13	16.851
2017.37	18.7294
2017.62	21.5455
2017.87	20.6007
2018.11	20.5942
2018.36	17.7696
2018.61	19.639
2018.86	19.6316
2019.1	19.6242
2019.35	19.6162
2019.6	19.6089
2019.84	15.8575
2020.09	21.4753
2020.34	19.6001
2020.58	17.7263
2020.83	19.5983
2021.08	20.5338
2021.33	17.725
2021.57	23.3457
2021.82	19.599
2022.07	23.3443
2022.31	19.5958
2022.56	17.7201
2022.81	22.3976
2023.05	16.776
2023.3	20.5139
2023.55	19.5738
2023.8	19.5693
2024.04	19.5648
2024.29	17.6905
2024.54	18.6216
2024.78	18.6153
2025.03	20.4768
2025.27	18.6023
2025.52	19.5297
2025.77	18.5905
2026.02	19.5182
2026.26	16.7133
2026.51	17.6474
2026.76	17.6537
2027	20.4655
2027.25	15.8089
2027.5	17.6925
2027.74	16.7659
2027.99	18.6346
2028.23	19.5577
2028.48	18.6054
2028.73	18.5548
2028.98	18.6036
2029.22	18.6712
2029.47	14.8913
2029.72	21.4604
2029.96	19.5531
2030.21	16.7302
2030.45	15.7783
2030.7	19.508
2030.95	17.6281
2031.19	18.5732
2031.44	19.5171
2031.69	19.5139
2031.93	17.6477
2032.18	14.8488
2032.43	16.7195
2032.67	18.5921
2032.92	17.6646
2033.17	19.5389
2033.41	14.8707
2033.66	18.6127
2033.91	17.6829
2034.15	14.8795
2034.4	15.8063
2034.64	17.6637
2034.89	19.5118
2035.14	17.6408
2035.38	16.7147
2035.63	14.853
2035.87	17.6635
2036.12	19.5457
2036.37	16.7495
2036.61	17.6838
2036.86	13.0005
2037.11	17.6747
2037.35	22.354
2037.6	16.7433
2037.84	16.7422
2038.09	14.8705
2038.34	17.6729
2038.58	17.6701
2038.83	15.7981
2039.08	17.6641
2039.32	17.6611
2039.57	18.5918
2039.81	18.5885
2040.06	17.6504
2040.31	16.7118
2040.55	17.6401
2040.8	18.5683
2041.04	17.6309
2041.29	17.627
2041.54	18.5561
2041.78	17.6221
2042.03	12.0275
2042.27	18.5502
2042.52	17.6158
2042.77	18.5436
2043.01	18.5419
2043.26	14.8148
2043.5	12.9523
2043.75	17.6157
2044	17.6225
2044.24	18.5624
2044.49	16.6991
2044.73	18.5639
2044.98	16.6938
2045.23	19.4829
2045.47	17.6025
2045.72	15.7586
2045.96	18.5618
2046.21	16.7194
2046.45	16.7463
2046.7	16.7319
2046.95	13.9134
2047.19	16.7031
2047.44	15.7702
2047.68	20.431
2047.93	18.5497
2048.17	15.749
2048.42	17.6139
2048.67	14.8177
2048.91	17.6154
2049.16	14.8197
2049.4	16.6887
2049.65	15.7591
2049.89	18.5628
2050.14	19.5029
2050.39	13.9053
2050.63	17.6452
2050.88	16.7135
2051.12	17.6484
2051.37	16.7129
2051.61	16.7093
2051.86	12.0355
2052.11	16.7038
2052.35	15.7702
2052.6	17.6401
2052.84	15.7728
2053.09	16.7085
2053.33	14.8425
2053.58	15.7796
2053.82	16.7181
2054.07	15.7907
2054.31	13.9228
2054.56	15.7953
2054.8	16.731
2055.05	14.8595
2055.3	16.7293
2055.54	16.7279
2055.79	16.7237
2056.03	14.8516
2056.28	17.6556
2056.52	12.9793
2056.77	13.9125
2057.01	15.7808
2057.26	18.5846
2057.5	14.8462
2057.75	15.782
2058	15.7837
2058.24	16.721
2058.49	17.6585
2058.73	15.7917
2058.98	16.7307
2059.22	16.734
2059.47	14.8643
2059.71	17.6733
2059.96	13.9294
2060.2	16.7381
2060.45	18.6079
2060.69	17.669
2060.94	17.6668
2061.18	14.8608
2061.43	16.735
2061.67	15.8002
2061.92	16.737
2062.16	14.8646
2062.41	17.6738
2062.65	16.7385
2062.9	15.8035
2063.14	14.8689
2063.39	16.745
2063.63	15.8106
2063.88	13.9383
2064.12	17.6885
2064.37	14.8779
2064.61	16.7536
2064.86	17.6928
2065.1	13.9447
2065.35	16.7613
2065.59	14.8898
2065.84	15.8321
2066.08	16.7744
2066.33	16.7775
2066.57	14.9016
2066.82	14.902
2067.06	16.7817
2067.31	15.8441
2067.55	13.9666
2067.8	14.9077
2068.04	16.7892
2068.29	17.7311
2068.53	16.7929
2068.78	17.7336
2069.02	17.7361
2069.27	18.6762
2069.51	16.7934
2069.76	14.909
2070	16.7809
2070.25	13.0213
2070.49	15.84
2070.73	15.8463
2070.98	13.9739
2071.22	15.862
2071.47	15.8607
2071.71	17.7363
2071.96	15.8736
2072.2	13.0546
2072.45	15.8785
2072.69	18.702
2072.94	16.818
2073.18	13.9918
2073.43	15.8746
2073.67	14.932
2073.92	15.874
2074.16	15.8743
2074.4	13.9918
2074.65	13.9931
2074.89	13.9955
2075.14	14.9411
2075.38	15.8886
2075.63	17.7812
2075.87	13.0732
2076.12	15.909
2076.36	17.7997
2076.6	15.9119
2076.85	16.8565
2077.09	14.9665
2077.34	19.682
2077.58	15.9032
2077.83	15.8956
2078.07	15.8936
2078.31	13.066
2078.56	14.9552
2078.8	15.8997
2079.05	14.0139
2079.29	14.9593
2079.54	14.9626
2079.78	16.8581
2080.03	15.9167
2080.27	16.864
2080.51	14.0319
2080.76	15.9235
2081	12.1434
2081.25	14.0318
2081.49	14.9754
2081.74	16.8644
2081.98	14.0296
2082.22	14.9736
2082.47	17.8091
2082.71	14.9755
2082.96	14.0311
2083.2	14.0311
2083.45	14.0307
2083.69	16.8648
2083.93	16.8639
2084.18	16.8637
2084.42	14.0289
2084.67	16.8633
2084.91	13.0835
2085.15	14.9737
2085.4	15.9186
2085.64	12.1383
2085.89	18.7533
2086.13	13.0838
2086.37	18.759
2086.62	16.8735
2086.86	15.9313
2087.11	14.9867
2087.35	14.9882
2087.59	14.9905
2087.84	13.099
2088.08	15.938
2088.32	14.0453
2088.57	16.8847
2088.81	14.9923
2089.06	15.9394
2089.3	14.9934
2089.54	14.9955
2089.79	16.8916
2090.03	12.1601
2090.28	15.0027
2090.52	14.056
2090.76	15.0041
2091.01	16.9002
2091.25	14.0591
2091.5	14.0605
2091.74	15.9573
2091.98	16.9093
2092.23	13.1206
2092.47	15.9705
2092.72	15.9754
2092.96	15.9808
2093.2	14.0857
2093.45	15.9886
2093.69	14.0924
2093.93	12.195
2094.18	14.0982
2094.42	16.9527
2094.66	13.1505
2094.91	16.0025
2095.15	14.1001
2095.39	16.9508
2095.64	14.0963
2095.88	15.9941
2096.13	15.9916
2096.37	13.1394
2096.61	14.0882
2096.86	15.9874
2097.1	15.9865
2097.34	15.0343
2097.59	16.9304
2097.83	14.0785
2098.07	12.1784
2098.32	15.0254
2098.56	16.9229
2098.8	16.9203
2099.05	12.1745
2099.29	15.9703
2099.53	13.122
2099.78	18.8153
2100.02	11.2228
2100.27	16.9167
2100.51	11.2227
2100.75	14.0704
2101	14.0716
2101.24	17.8725
2101.48	15.0269
2101.73	15.0285
2101.97	15.9791
2102.21	15.029
2102.45	16.9281
2102.7	15.0283
2102.94	15.0272
2103.18	16.9238
2103.43	17.8695
2103.67	14.0701
2103.92	13.1202
2104.16	15.0176
2104.4	15.0177
2104.64	14.0694
2104.89	14.0713
2105.13	15.9725
2105.37	15.9745
2105.62	13.1272
2105.86	17.8808
2106.1	14.0825
2106.35	14.0838
2106.59	15.9862
2106.83	15.9868
2107.08	16.9379
2107.32	16.9393
2107.56	16.9396
2107.8	12.1841
2108.05	13.132
2108.29	15.029
2108.53	15.0246
2108.78	14.0706
2109.02	14.0674
2109.26	15.0155
2109.51	15.0159
2109.75	14.0697
2109.99	15.0223
2110.23	16.9222
2110.48	15.0221
2110.72	15.9718
2110.96	13.1216
2111.21	14.0714
2111.45	15.021
2111.69	13.1199
2111.93	14.0677
2112.18	14.066
2112.42	15.0146
2112.66	16.9135
2112.91	13.116
2113.15	15.9667
2113.39	13.1184
2113.63	15.972
2113.88	14.0742
2114.12	16.9269
2114.36	14.0743
2114.61	15.9736
2114.85	15.0227
2115.09	15.0231
2115.33	15.9737
2115.58	16.9229
2115.82	14.0704
2116.06	14.0691
2116.31	14.0677
2116.55	16.9144
2116.79	15.0114
2117.03	15.0098
2117.28	16.9081
2117.52	15.9576
2117.76	14.0587
2118	14.0571
2118.25	15.004
2118.49	14.0521
2118.73	14.9971
2118.97	15.9412
2119.22	14.9889
2119.46	14.0372
2119.7	14.034
2119.94	14.9788
2120.19	15.9235
2120.43	14.0259
2120.67	16.8675
2120.91	15.9202
2121.16	15.9226
2121.4	15.9238
2121.64	11.187
2121.88	18.7756
2122.13	14.9856
2122.37	15.9372
2122.61	13.0933
2122.85	13.095
2123.1	14.0457
2123.34	14.9964
2123.58	14.9974
2123.82	13.0989
2124.07	15.9456
2124.31	15.9436
2124.55	14.9916
2124.79	13.0899
2125.03	14.9814
2125.28	14.0261
2125.52	13.0721
2125.76	13.0674
2126	15.904
2126.25	14.9525
2126.49	14.002
2126.73	13.9988
2126.97	13.9956
2127.21	14.9382
2127.46	15.8804
2127.7	13.0422
2127.94	13.9868
2128.18	14.9311
2128.43	14.9293
2128.67	12.0923
2128.91	14.9279
2129.15	13.9825
2129.39	15.8722
2129.64	14.9255
2129.88	16.8144
2130.12	13.0332
2130.36	15.8674
2130.6	14.9212
2130.85	15.8648
2131.09	13.9734
2131.33	16.8055
2131.57	14.9137
2131.81	16.7999
2132.06	13.9645
2132.3	13.0188
2132.54	13.017
2132.78	16.7898
2133.02	14.899
2133.27	14.8974
2133.51	15.8405
2133.75	15.8409
2133.99	15.8413
2134.23	15.8412
2134.48	14.898
2134.72	13.9544
2134.96	14.8975
2135.2	13.0094
2135.44	14.8962
2135.68	16.7825
2135.93	12.0628
2136.17	12.0605
2136.41	13.9428
2136.65	14.8812
2136.89	13.9361
2137.14	13.9365
2137.38	14.8796
2137.62	15.8224
2137.86	15.8239
2138.1	15.8271
2138.34	14.8826
2138.59	14.8781
2138.83	16.7599
2139.07	16.7627
2139.31	15.8248
2139.55	15.8282
2139.79	13.9345
2140.03	14.8715
2140.28	12.0418
2140.52	13.924
2140.76	14.864
2141	16.746
2141.24	13.9189
2141.49	13.9176
2141.73	13.9176
2141.97	16.7393
2142.21	13.9111
2142.45	14.851
2142.69	13.9095
2142.93	12.9704
2143.18	13.9138
2143.42	15.8098
2143.66	15.8033
2143.9	14.8239
2144.14	12.9443
2144.38	13.8863
2144.62	13.8909
2144.87	14.8359
2145.11	16.72
2145.35	16.7102
2145.59	12.9504
2145.83	12.0105
2146.07	14.8302
2146.31	13.8886
2146.55	14.8272
2146.8	17.6458
2147.04	14.8244
2147.28	11.0633
2147.52	14.8203
2147.76	13.8785
2148	11.9976
2148.24	16.6929
2148.48	14.8122
2148.73	16.6885
2148.97	15.7471
2149.21	18.5611
2149.45	13.8636
2149.69	14.7986
2149.93	16.6683
2150.17	15.7264
2150.42	14.7842
2150.66	13.8436
2150.9	11.9674
2151.14	14.7787
2151.38	18.5292
2151.62	13.8444
2151.86	14.7832
2152.1	15.723
2152.34	15.7239
2152.58	13.8499
2152.83	13.8476
2153.07	16.6585
2153.31	12.9051
2153.55	15.7148
2153.79	15.7133
2154.03	15.7116
2154.27	13.8346
2154.51	12.8941
2154.75	14.7625
2154.99	16.6282
2155.24	12.8784
2155.48	16.6136
2155.72	12.8681
2155.96	14.7334
2156.2	17.5329
2156.44	17.5293
2156.68	13.7904
2156.92	15.6579
2157.16	15.6572
2157.4	13.7888
2157.64	13.7895
2157.89	13.7912
2158.13	15.6625
2158.37	13.7954
2158.61	14.7305
2158.85	14.7301
2159.09	15.6639
2159.33	14.7277
2159.57	13.7911
2159.81	15.6573
2160.05	15.6539
2160.29	16.5837
2160.53	13.7783
2160.77	15.6419
2161.01	14.7053
2161.25	17.503
2161.5	15.6356
2161.74	14.7008
2161.98	16.5651
2162.22	13.7654
2162.46	16.5639
2162.7	14.6979
2162.94	14.6974
2163.18	13.763
2163.42	14.6937
2163.66	15.6244
2163.9	14.69
2164.14	14.6882
2164.38	15.6185
2164.62	15.6149
2164.86	15.6105
2165.11	14.6761
2165.35	13.7447
2165.59	14.6776
2165.83	15.6094
2166.07	16.5412
2166.31	15.6093
2166.55	11.8802
2166.79	15.6053
2167.03	15.6027
2167.27	11.874
2167.51	16.528
2167.75	13.731
2167.99	14.6573
2168.23	16.5105
2168.47	14.6432
2168.71	15.5704
2168.95	13.7104
2169.19	14.6407
2169.43	15.5722
2169.67	14.6451
2169.91	13.7187
2170.15	12.7925
2170.39	14.6592
2170.63	16.5247
2170.87	12.8007
2171.11	16.5245
2171.35	14.6589
2171.59	12.7954
2171.83	16.5124
2172.07	12.7808
2172.31	16.4942
2172.56	14.632
2172.79	15.5585
2173.04	14.627
2173.28	13.6973
2173.51	14.6259
2173.76	15.5545
2174	11.8388
2174.24	16.4864
2174.48	16.4877
2174.72	16.4882
2174.96	13.6999
2175.2	13.6996
2175.44	13.6991
2175.68	15.5566
2175.92	16.4846
2176.16	13.6961
2176.4	14.6243
2176.64	15.552
2176.88	15.5493
2177.12	15.5481
2177.36	13.69
2177.6	15.548
2177.84	16.477
2178.08	14.6185
2178.32	11.8319
2178.55	14.6172
2178.8	14.613
2179.03	14.6099
2179.28	12.7524
2179.52	13.6812
2179.75	14.6096
2180	16.4666
2180.23	13.6807
2180.47	18.3229
2180.71	12.7513
2180.95	16.4639
2181.19	14.6059
2181.43	15.5335
2181.67	14.604
2181.91	15.5302
2182.15	14.6002
2182.39	12.7431
2182.63	14.597
2182.87	12.7397
2183.11	13.666
2183.35	16.4458
2183.59	14.5871
2183.83	14.5827
2184.07	14.5793
2184.31	13.6501
2184.55	16.4276
2184.79	13.647
2185.03	14.5738
2185.27	12.7216
2185.51	14.5758
2185.75	12.723
2185.99	13.6513
2186.23	14.5804
2186.47	15.5101
2186.7	15.5126
2186.95	13.6614
2187.18	16.4492
2187.42	13.669
2187.66	12.7442
2187.9	15.5329
2188.14	14.6048
2188.38	18.3178
2188.62	15.5288
2188.86	11.812
2189.1	13.6656
2189.34	15.518
2189.58	19.2243
2189.82	14.5808
2190.06	11.7951
2190.3	15.5014
2190.54	14.5735
2190.78	14.5736
2191.01	13.6475
2191.25	13.6484
2191.49	18.284
2191.73	14.576
2191.97	14.577
2192.21	14.578
2192.45	15.5066
2192.69	17.3627
2192.93	16.4364
2193.17	15.5111
2193.41	15.5136
2193.65	14.5878
2193.89	17.3759
2194.13	14.5968
2194.36	16.4621
2194.6	13.6787
2194.84	15.5402
2195.08	16.4688
2195.32	14.6076
2195.56	13.6764
2195.8	15.5326
2196.04	13.6709
2196.28	13.6668
2196.52	12.7333
2196.76	12.729
2197	15.5096
2197.23	17.362
2197.47	14.5759
2197.71	14.5735
2197.95	17.3559
2198.19	16.4287
2198.43	14.5749
2198.67	17.3618
2198.91	15.5097
2199.15	16.4425
2199.38	16.448
2199.62	13.6655
2199.86	16.4578
2200.1	14.6037
2200.34	20.1911
2200.58	18.3405
2200.82	16.4868
2201.06	13.699
2201.3	14.6345
2201.54	14.6379
2201.77	13.7001
2202.01	16.4777
2202.25	17.3712
2202.49	15.4916
2202.73	14.5734
2202.97	17.3869
2203.21	16.47
2203.45	15.5352
2203.68	15.5317
2203.92	13.6838
2204.16	16.5284
2204.4	15.5754
2204.64	19.3036
2204.88	14.6438
2205.12	16.4975
2205.36	17.4137
2205.59	17.3997
2205.83	19.2495
2206.07	17.387
2206.31	13.6682
2206.55	17.3909
2206.79	13.6714
2207.03	15.5254
2207.26	14.5964
2207.5	17.3879
2207.74	17.3909
2207.98	15.5339
2208.22	16.4674
2208.46	14.6095
2208.7	13.6814
2208.93	16.4767
2209.17	16.4788
2209.41	14.6179
2209.65	11.8246
2209.89	14.6184
2210.13	15.5491
2210.36	15.5494
2210.6	14.6198
2210.84	16.4848
2211.08	15.5556
2211.32	14.6259
2211.56	16.4921
2211.8	16.4947
2212.03	17.4305
2212.27	13.7035
2212.51	15.5709
2212.75	11.8404
2212.99	14.6378
2213.23	14.6361
2213.46	15.5671
2213.7	14.6319
2213.94	13.6968
2214.18	13.6974
2214.42	13.6999
2214.66	13.7053
2214.89	12.7771
2215.13	13.7116
2215.37	14.6461
2215.61	14.6469
2215.85	15.581
2216.08	12.7802
2216.32	11.8464
2216.56	13.7133
2216.8	13.7127
2217.04	15.5791
2217.28	14.6447
2217.51	14.6445
2217.75	13.7112
2217.99	15.579
2218.23	13.7114
2218.47	13.711
2218.7	15.5788
2218.94	12.7788
2219.18	15.5821
2219.42	16.5188
2219.66	14.6531
2219.9	16.5234
2220.13	14.6562
2220.37	13.7228
2220.61	10.9185
2220.85	14.6561
2221.09	14.6553
2221.32	16.5225
2221.56	13.7157
2221.8	11.8439
2222.04	12.7749
2222.27	13.7058
2222.51	17.4379
2222.75	14.6368
2222.99	15.5712
2223.23	14.6395
2223.46	13.7077
2223.7	13.7098
2223.94	13.7128
2224.18	13.7166
2224.42	14.6555
2224.65	17.4647
2224.89	13.7276
2225.13	16.537
2225.37	13.7332
2225.6	13.7363
2225.84	14.6763
2226.08	14.6794
2226.32	14.6823
2226.56	14.6853
2226.79	13.7503
2227.03	14.6903
2227.27	15.6304
2227.51	14.6951
2227.74	14.6967
2227.98	13.7597
2228.22	15.6347
2228.46	13.7579
2228.69	13.7567
2228.93	13.7556
2229.17	13.7546
2229.41	11.8787
2229.64	15.6284
2229.88	13.7556
2230.12	14.6969
2230.36	11.8858
2230.6	16.5793
2230.83	14.7053
2231.07	17.5242
2231.31	15.6499
2231.55	15.6534
2231.78	16.5964
2232.02	14.7203
2232.26	14.7231
2232.5	13.7858
2232.73	17.5489
2232.97	13.7907
2233.21	14.7336
2233.45	14.7361
2233.68	13.7977
2233.92	14.7412
2234.16	14.7431
2234.39	18.5097
2234.63	14.7435
2234.87	12.8598
2235.11	13.7991
2235.34	15.6783
2235.58	16.6131
2235.82	15.6684
2236.06	13.7878
2236.29	16.6094
2236.53	12.8483
2236.77	13.7893
2237	15.6708
2237.24	13.7902
2237.48	15.675
2237.72	14.7371
2237.95	13.8011
2238.19	15.6903
2238.43	15.6961
2238.67	12.8729
2238.9	11.9333
2239.14	15.7088
2239.38	11.9408
2239.61	16.6587
2239.85	14.7703
2240.09	14.7681
2240.33	12.8779
2240.56	12.8746
2240.8	11.9302
2241.04	11.9351
2241.27	13.8262
2241.51	15.7139
2241.75	14.7712
2241.99	17.6031
2242.22	16.6604
2242.46	13.8302
2242.7	14.7755
2242.93	13.8331
2243.17	14.7773
2243.41	14.7765
2243.64	17.6061
2243.88	11.9406
2244.12	12.8832
2244.36	14.77
2244.59	13.8266
2244.83	10.9969
2245.07	14.7766
2245.3	14.7824
2245.54	14.7876
2245.78	14.7909
2246.01	14.7936
2246.25	15.7421
2246.49	15.7451
2246.72	13.8558
2246.96	12.911
2247.2	15.7512
2247.43	11.0219
2247.67	16.7013
2247.91	13.8625
2248.14	14.8086
2248.38	16.7004
2248.62	14.8065
2248.85	15.7517
2249.09	14.8044
2249.33	12.911
2249.56	12.9102
2249.8	13.8586
2250.04	11.9672
2250.27	11.0204
2250.51	14.8042
2250.75	12.9088
2250.98	13.852
2251.22	15.74
2251.46	15.737
2251.69	12.8981
2251.93	15.7335
2252.17	15.7339
2252.4	13.8443
2252.64	15.7377
2252.88	11.957
2253.11	13.8531
2253.35	12.9136
2253.59	13.8655
2253.82	14.8169
2254.06	12.9249
2254.3	13.8749
2254.53	13.8774
2254.77	15.7754
2255.01	14.8273
2255.24	15.7738
2255.48	12.93
2255.72	12.9299
2255.95	15.7748
2256.19	13.8788
2256.42	13.8809
2256.66	12.9348
2256.9	13.8856
2257.13	15.7856
2257.37	13.8898
2257.61	15.7904
2257.84	13.8939
2258.08	11.9961
2258.32	14.8454
2258.55	11.0473
2258.79	12.9473
2259.02	15.7978
2259.26	14.8499
2259.5	12.9517
2259.73	15.8034
2259.97	13.904
2260.2	13.9054
2260.44	14.8572
2260.68	13.9079
2260.91	19.6133
2261.15	13.911
2261.39	15.8176
2261.62	14.8694
2261.86	13.9184
2262.1	15.8221
2262.33	14.8717
2262.57	13.9211
2262.8	13.9229
2263.04	14.8777
2263.28	15.8331
2263.51	12.9796
2263.75	13.9362
2263.98	12.0345
2264.22	13.9462
2264.46	15.8592
2264.69	13.0017
2264.93	12.0507
2265.16	13.963
2265.4	14.9207
2265.64	16.8336
2265.87	13.9683
2266.11	13.9687
2266.34	12.0571
2266.58	13.0092
2266.81	13.9607
2267.05	12.048
2267.29	13.9538
2267.52	14.9055
2267.76	13.9491
2267.99	16.8084
2268.23	13.9434
2268.47	15.8479
2268.7	13.9398
2268.94	11.0796
2269.17	13.9419
2269.41	13.9446
2269.65	14.9023
2269.88	15.8608
2270.12	13.9559
2270.35	15.8707
2270.59	15.8756
2270.82	13.9674
2271.06	14.9246
2271.3	13.9718
2271.53	13.9741
2271.77	13.0195
2272	13.0212
2272.24	13.98
2272.47	13.9813
2272.71	14.9381
2272.95	12.0684
2273.18	14.9392
2273.42	12.0694
2273.65	13.9837
2273.89	14.9412
2274.12	13.9848
2274.36	14.9424
2274.6	14.943
2274.83	14.9436
2275.07	16.8587
2275.3	13.0305
2275.54	14.9458
2275.77	15.9041
2276.01	12.0737
2276.24	12.0753
2276.48	16.867
2276.72	13.0388
2276.95	14.9581
2277.18	16.8779
2277.42	15.9228
2277.66	11.1327
2277.89	14.0149
2278.13	14.0203
2278.36	13.0659
2278.6	15.9488
2278.83	14.0289
2279.07	15.9498
2279.3	14.9886
2279.54	14.0271
2279.78	14.9846
2280.01	13.0581
2280.24	13.0541
2280.48	14.0096
2280.72	17.8423
2280.95	13.0444
2281.19	15.9185
2281.42	15.9167
2281.66	14.956
2281.89	13.0376
2282.13	15.9144
2282.36	13.9982
2282.6	15.9176
2282.83	14.9616
2283.07	16.8833
2283.3	12.09
2283.54	12.0932
2283.77	13.0579
2284.01	15.9455
2284.24	10.1862
2284.48	14.0366
2284.71	15.0019
2284.95	15.9653
2285.19	16.9309
2285.42	15.9723
2285.65	12.1239
2285.89	14.0488
2286.12	11.1591
2286.36	15.9638
2286.59	14.0395
2286.83	14.0404
2287.06	15.0046
2287.3	11.1614
2287.54	12.1284
2287.77	14.0562
2288	16.947
2288.24	15.0247
2288.47	13.0966
2288.71	16.9474
2288.94	16.9447
2289.18	15.0156
2289.41	16.9361
2289.65	15.005
2289.88	15.9616
2290.12	14.9933
2290.35	12.1067
2290.59	13.0666
2290.82	15.9505
2291.06	14.9893
2291.29	14.0298
2291.53	12.1098
2291.76	13.0757
2292	15.0032
2292.23	15.0057
2292.47	12.12
2292.7	13.0851
2292.94	14.0511
2293.17	17.9074
2293.41	14.0564
2293.64	14.0583
2293.88	13.0959
2294.11	16.9519
2294.34	15.9867
2294.58	12.1299
2294.81	15.0184
2295.05	16.9421
2295.28	15.013
2295.52	14.0477
2295.75	14.0455
2295.99	13.0805
2296.22	13.0787
2296.46	14.038
2296.69	14.9941
2296.93	11.1449
2297.16	14.032
2297.39	14.9961
2297.63	15.9612
2297.86	15.9647
2298.1	15.0061
2298.33	14.0477
2298.57	14.0506
2298.8	15.9798
2299.04	13.0912
2299.27	12.1302
2299.51	14.0614
2299.74	15.0283
2299.97	15.0296
2300.21	14.0645
2300.44	14.0644
2300.68	15.0285
2300.91	13.1006
2301.15	12.1377
2301.38	15.0343
2301.61	16.9662
2301.85	16.9672
2302.08	15.0368
2302.32	14.0709
2302.55	15.9998
2302.79	15.0334
2303.02	16.9639
2303.25	15.9982
2303.49	13.1019
2303.72	14.0666
2303.96	15.0317
2304.19	14.0678
2304.43	11.174
2304.66	16.0032
2304.89	16.9705
2305.13	14.0754
2305.36	14.0779
2305.6	13.1132
2305.83	14.0798
2306.07	15.0471
2306.3	12.1497
2306.53	15.0505
2306.77	12.1513
2307	16.0177
2307.24	15.0507
2307.47	13.117
2307.7	12.1491
2307.94	13.1137
2308.17	15.0451
2308.41	15.0435
2308.64	13.1098
2308.87	15.0418
2309.11	16.0085
2309.34	14.0781
2309.58	16.9798
2309.81	15.0504
2310.04	15.055
2310.28	16.0254
2310.51	14.092
2310.75	13.1248
2310.98	16.0264
2311.21	14.0899
2311.45	12.1523
2311.68	17.9442
2311.92	12.1371
2312.15	12.1326
2312.38	15.0252
2312.62	14.0576
2312.85	15.02
2313.08	14.0529
2313.32	14.0525
2313.55	15.019
2313.79	14.0581
2314.02	15.0291
2314.25	15.9993
2314.49	16.0039
2314.72	16.0086
2314.95	16.9815
2315.19	15.0525
2315.42	15.0549
2315.66	14.0835
2315.89	12.1458
2316.12	14.0767
2316.36	15.0392
2316.59	15.0308
2316.82	15.0263
2317.06	14.0584
2317.29	15.989
2317.52	15.9897
2317.76	12.1276
2317.99	15.0285
2318.23	15.0311
2318.46	13.0941
2318.69	13.0917
2318.93	13.0898
2319.16	15.9836
2319.39	14.0503
2319.63	15.9782
2319.86	14.0462
2320.09	12.1152
2320.33	16.9396
2320.56	15.975
2320.79	14.0447
2321.03	16.9411
2321.26	14.0478
2321.5	15.9807
2321.73	14.0524
2321.96	16.9526
2322.2	15.9912
2322.43	17.9288
2322.66	16.9667
2322.9	16.9683
2323.13	15.0339
2323.36	16.9679
2323.6	16.969
2323.83	15.036
2324.06	16.9708
2324.3	16.9712
2324.53	19.8711
2324.76	18.9031
2325	21.7983
2325.23	18.8922
2325.46	21.7833
2325.7	23.7097
2325.93	24.6704
2326.16	24.6653
2326.4	27.5558
2326.63	33.34
2326.86	38.1567
2327.09	54.547
2327.33	81.5387
2327.56	98.876
2327.79	103.682
2328.03	91.1334
2328.26	68.9557
2328.49	53.5375
2328.73	37.1522
2328.96	31.3696
2329.19	24.6173
2329.43	24.6123
2329.66	24.6055
2329.89	22.6766
2330.13	18.8229
2330.36	19.7885
2330.59	16.8973
2330.82	17.8588
2331.06	19.783
2331.29	15.93
2331.52	14.0048
2331.76	15.9331
2331.99	12.082
2332.22	18.8301
2332.46	14.0079
2332.69	18.8208
2332.92	14.9656
2333.16	14.0004
2333.39	13.9983
2333.62	16.8843
2333.85	18.8074
2334.09	13.993
2334.32	13.0285
2334.55	13.9883
2334.79	14.9463
2335.02	15.9056
2335.25	13.0187
2335.48	15.903
2335.72	16.8635
2335.95	15.9023
2336.18	15.9032
2336.41	14.9408
2336.65	14.939
2336.88	16.8609
2337.11	14.9369
2337.34	16.8591
2337.58	14.9351
2337.81	15.8957
2338.04	16.8554
2338.28	13.9703
2338.51	13.9694
2338.74	15.8909
2338.97	13.0067
2339.21	13.007
2339.44	14.9295
2339.67	13.0068
2339.91	14.9286
2340.14	14.9271
2340.37	13.9641
2340.6	13.9615
2340.84	13.9588
2341.07	14.9159
2341.3	13.9513
2341.53	15.8664
2341.77	15.8601
2342	11.059
2342.23	12.9749
2342.46	13.9314
2342.7	15.8466
2342.93	15.8446
2343.16	14.8848
2343.39	15.8429
2343.63	16.8014
2343.86	16.8004
2344.09	14.8825
2344.32	17.7581
2344.56	14.8833
2344.79	13.9249
2345.02	14.883
2345.25	11.0475
2345.49	14.88
2345.72	14.8773
2345.95	16.7893
2346.18	15.8281
2346.41	15.8249
2346.65	12.9505
2346.88	14.8648
2347.11	13.9063
2347.34	11.9898
2347.58	13.9035
2347.81	14.8604
2348.04	12.9457
2348.27	15.8187
2348.5	16.778
2348.74	15.8215
2348.97	13.9058
2349.2	15.8195
2349.43	11.9869
2349.67	11.9815
2349.9	13.8894
2350.13	14.8383
2350.36	14.8291
2350.59	16.7278
2350.83	14.7984
2351.06	13.815
2351.29	15.7431
2351.52	15.7972
2351.75	12.9412
2351.99	13.8698
2352.22	13.854
2352.45	15.764
2352.68	13.8565
2352.91	14.8018
2353.15	10.9754
2353.38	15.7297
2353.61	16.6863
2353.84	13.8267
2354.07	16.6811
2354.31	13.8238
2354.54	11.9181
2354.77	14.7789
2355	15.7352
2355.23	14.7816
2355.47	15.7332
2355.7	12.8734
2355.93	10.9666
2356.16	13.8227
2356.39	14.7725
2356.63	13.8154
2356.86	16.6634
2357.09	14.7543
2357.32	15.7021
2357.55	14.7483
2357.79	13.7949
2358.02	14.7432
2358.25	14.7409
2358.48	14.7391
2358.71	14.7377
2358.94	11.8839
2359.18	15.6825
2359.41	13.7813
2359.64	14.7302
2359.87	13.7784
2360.1	15.675
2360.33	14.722
2360.57	17.5659
2360.8	10.9187
2361.03	16.6085
2361.26	15.6558
2361.49	16.6
2361.72	14.6995
2361.96	13.7477
2362.19	13.7439
2362.42	16.5817
2362.65	10.8946
2362.88	12.7856
2363.11	14.6761
2363.34	14.6732
2363.58	14.6707
2363.81	16.5613
2364.04	13.7207
2364.27	15.6109
2364.5	12.7707
2364.73	15.6059
2364.97	16.5489
