#Acq. time (s)=	30
#Accumulations=	2
#Range (cm-¹)=	1200...2365
#Windows=	3
#Auto scanning=	Off
#Autofocus=	Off
#Macrospot=	Off
#AutoExposure=	Off
#Spike filter=	Multiple accum.
#Delay time (s)=	2
#Binning=	1
#Readout mode=	Signal
#DeNoise=	Off
#ICS correction=	On
#Dark correction=	Off
#Inst. Process=	Off
#Detector Gain=	Best Dynamic
#Detector ADC=	50 kHz HS
#Detector temperature (°C)=	-60.09
#Instrument=	LabRAM HR Evol
#Detector=	SIN-EM FIVIS
#Objective=	x100_VIS_LWD
#Grating=	1800 (450-850nm)
#ND Filter=	100%
#Laser=	532nm_Edge
#Hole=	49.98
#Temperature=	0
#Range=	Visible
#StageXY=	75x50mm Scan+
#StageZ=	Z motor
#X (µm)=	0
#Y (µm)=	0
#Z (µm)=	14.4
#Full time(mm:ss)=	3:22
#Project=	21_11_22
#Sample=	BU19w
#Site=	
#Title=	BU19w-D-FFore2-FI13-V_1800 (450-850nm)_532nm_Edge_100%_x100_VIS_LWD_H50um_30sX2
#Remark=	
#Date=	22.11.2021 14:06
#Acquired=	22.11.2021 14:06:00
1202.84	31.6723
1203.12	23.07
1203.4	29.4927
1203.67	27.3326
1203.95	30.5325
1204.23	25.1622
1204.51	26.2241
1204.78	27.2865
1205.06	28.35
1205.34	29.4127
1205.62	28.3323
1205.9	25.1134
1206.17	31.521
1206.45	28.3068
1206.73	30.4416
1207.01	26.1609
1207.29	27.2228
1207.56	29.3472
1207.84	29.3332
1208.12	26.1184
1208.39	28.2413
1208.67	26.0966
1208.95	33.5502
1209.23	22.874
1209.51	29.2601
1209.78	24.9876
1210.06	29.2388
1210.34	30.2954
1210.62	29.2245
1210.89	27.0872
1211.17	27.0856
1211.45	27.0846
1211.72	28.1476
1212	26.0162
1212.28	30.2716
1212.56	33.4618
1212.84	33.4577
1213.11	27.0622
1213.39	27.0509
1213.67	24.9102
1213.94	28.0868
1214.22	29.1386
1214.5	29.1283
1214.78	28.0555
1215.05	26.985
1215.33	34.4078
1215.61	29.0915
1215.89	25.9021
1216.16	30.1428
1216.44	29.0769
1216.72	25.8891
1216.99	29.0639
1217.27	27.9998
1217.55	31.1802
1217.83	25.8734
1218.1	26.9298
1218.38	20.5608
1218.66	25.856
1218.93	29.0264
1219.21	27.9539
1219.49	31.1161
1219.77	30.0401
1220.04	31.0812
1220.32	27.8929
1220.6	27.8784
1220.88	23.6404
1221.15	31.0234
1221.43	28.9013
1221.71	29.9495
1221.98	32.054
1222.26	29.9395
1222.54	28.8846
1222.81	30.9978
1223.09	29.9436
1223.37	30.9967
1223.64	29.9365
1223.92	28.8737
1224.2	36.2547
1224.48	26.7411
1224.75	31.985
1225.03	26.695
1225.31	29.8357
1225.58	28.7549
1225.86	26.6281
1226.14	29.7737
1226.41	32.9942
1226.69	30.9554
1226.97	25.6617
1227.24	31.9569
1227.52	31.9408
1227.8	27.7286
1228.07	28.7678
1228.35	35.0109
1228.63	29.7573
1228.9	28.7041
1229.18	30.803
1229.46	28.6955
1229.73	30.7941
1230.01	31.8412
1230.29	29.7347
1230.56	29.7315
1230.84	30.7814
1231.12	25.5292
1231.39	24.4789
1231.67	31.836
1231.95	29.7378
1232.22	29.7381
1232.5	31.841
1232.78	28.689
1233.05	27.6382
1233.33	30.7905
1233.61	28.6821
1233.88	28.6756
1234.16	31.8206
1234.43	32.8584
1234.71	26.5433
1234.99	28.6314
1235.26	29.6685
1235.54	28.6064
1235.82	33.8395
1236.09	25.4428
1236.37	25.4371
1236.65	28.5772
1236.92	27.5248
1237.2	27.5217
1237.47	29.6158
1237.75	28.5662
1238.03	27.5173
1238.3	29.6131
1238.58	23.3197
1238.85	28.5536
1239.13	28.5478
1239.41	28.5456
1239.68	27.4976
1239.96	30.643
1240.24	28.5493
1240.51	28.5473
1240.79	25.4002
1241.06	29.5932
1241.34	28.543
1241.62	29.5873
1241.89	31.6789
1242.17	28.5266
1242.45	26.4218
1242.72	32.6952
1243	31.6347
1243.27	30.5803
1243.55	27.4357
1243.83	29.5267
1244.1	30.5712
1244.38	27.4268
1244.65	26.3772
1244.93	29.5124
1245.2	29.5004
1245.48	29.4912
1245.76	29.4874
1246.03	28.4408
1246.31	28.4409
1246.59	31.5754
1246.86	30.526
1247.14	31.57
1247.41	24.2425
1247.69	29.4613
1247.96	29.4524
1248.24	27.3544
1248.51	29.4371
1248.79	32.5637
1249.07	26.2891
1249.34	28.3706
1249.62	26.2751
1249.89	29.399
1250.17	28.3476
1250.45	28.3423
1250.72	25.2095
1251	28.3419
1251.27	28.3452
1251.55	25.217
1251.82	27.306
1252.1	30.4367
1252.38	28.3484
1252.65	29.3909
1252.93	28.3431
1253.2	28.3421
1253.48	27.2978
1253.75	31.4778
1254.03	28.3441
1254.3	25.2074
1254.58	30.4234
1254.86	26.2414
1255.13	29.3699
1255.41	32.4977
1255.68	25.1847
1255.96	27.2633
1256.23	29.3473
1256.51	29.349
1256.78	27.2614
1257.06	28.3183
1257.33	30.3969
1257.61	26.2125
1257.88	25.1568
1258.16	24.105
1258.44	34.5297
1258.71	27.2266
1258.99	25.16
1259.26	26.2345
1259.54	27.3081
1259.81	28.3029
1260.09	31.3967
1260.36	28.2428
1260.64	30.3571
1260.91	29.3345
1261.19	30.4034
1261.46	34.6099
1261.74	29.3568
1262.01	32.4816
1262.29	29.3436
1262.56	29.3402
1262.84	32.4665
1263.11	34.5536
1263.39	30.3741
1263.66	30.376
1263.94	31.4247
1264.21	34.5663
1264.49	30.3905
1264.76	32.4895
1265.04	27.266
1265.31	25.1821
1265.59	30.4265
1265.86	31.4783
1266.14	30.4338
1266.41	29.3881
1266.69	32.5286
1266.96	27.2818
1267.24	26.2244
1267.51	32.4981
1267.79	29.3481
1268.06	32.4803
1268.34	31.4291
1268.61	31.4232
1268.89	35.608
1269.16	30.3807
1269.44	33.528
1269.71	26.2074
1269.99	30.4031
1270.26	33.5527
1270.54	29.3672
1270.81	28.3246
1271.09	29.3789
1271.36	26.2355
1271.64	29.382
1271.91	29.3791
1272.18	30.4259
1272.46	31.4758
1272.74	32.528
1273.01	30.433
1273.28	31.4878
1273.56	30.442
1273.83	30.4459
1274.11	29.3981
1274.38	31.504
1274.66	28.3578
1274.93	27.3118
1275.21	29.4177
1275.48	31.5236
1275.76	29.4277
1276.03	25.2234
1276.3	25.2262
1276.58	29.4308
1276.85	31.5303
1277.13	38.8864
1277.4	30.4686
1277.68	29.4173
1277.95	28.3656
1278.23	30.4747
1278.5	31.5354
1278.77	34.6966
1279.05	30.4829
1279.32	29.4307
1279.6	34.6974
1279.87	29.4269
1280.15	29.4126
1280.42	32.5365
1280.69	34.6214
1280.97	37.7732
1281.24	35.6744
1281.52	42.0803
1281.79	45.247
1282.07	52.6244
1282.34	66.2888
1282.61	65.208
1282.89	83.1025
1283.16	94.7036
1283.44	99.9715
1283.71	98.8945
1283.99	79.9397
1284.26	68.3525
1284.53	49.3928
1284.81	44.1193
1285.08	37.7976
1285.36	34.6378
1285.63	34.6368
1285.9	30.4271
1286.18	31.4821
1286.45	29.3803
1286.73	30.4367
1287	29.3879
1287.28	26.2312
1287.55	31.4971
1287.82	30.4381
1288.1	29.3809
1288.37	29.3783
1288.64	32.5357
1288.92	28.3199
1289.19	28.3177
1289.47	30.424
1289.74	29.3678
1290.01	25.1505
1290.29	24.0963
1290.56	28.3151
1290.84	31.487
1291.11	28.3354
1291.38	30.4476
1291.66	30.4453
1291.93	23.0604
1292.21	31.4983
1292.48	26.2341
1292.75	32.58
1293.03	27.3192
1293.3	29.4443
1293.57	29.4462
1293.85	25.217
1294.12	24.1559
1294.4	28.3766
1294.67	28.3688
1294.94	26.2477
1295.22	32.575
1295.49	27.2944
1295.76	32.5718
1296.04	27.2849
1296.31	25.1675
1296.58	29.3838
1296.86	28.3253
1297.13	30.4392
1297.4	27.2733
1297.68	30.4399
1297.95	24.1017
1298.22	28.3219
1298.5	31.4886
1298.77	25.1555
1299.04	28.3262
1299.32	27.2706
1299.59	29.3823
1299.87	26.2111
1300.14	25.1512
1300.41	27.2588
1300.69	31.476
1300.96	28.3045
1301.23	27.247
1301.51	28.3011
1301.78	19.8513
1302.05	29.3495
1302.33	25.1198
1302.6	28.2783
1302.87	30.3803
1303.15	27.2058
1303.42	26.1434
1303.69	21.9202
1303.97	29.3001
1304.24	25.082
1304.51	24.0262
1304.79	24.0239
1305.06	28.2403
1305.33	29.2952
1305.6	26.1268
1305.88	27.1807
1306.15	28.2381
1306.42	26.13
1306.7	25.0767
1306.97	28.2436
1307.24	24.0197
1307.52	27.1817
1307.79	28.2349
1308.06	30.3447
1308.34	27.1783
1308.61	24.0113
1308.88	28.233
1309.15	25.0689
1309.43	20.8476
1309.7	28.2387
1309.97	25.0685
1310.25	20.8393
1310.52	26.1146
1310.79	28.2217
1311.06	28.2175
1311.34	26.1041
1311.61	28.2147
1311.88	28.2155
1312.16	22.938
1312.43	31.3863
1312.7	21.8838
1312.98	23.9972
1313.25	33.5005
1313.52	27.1595
1313.79	25.0441
1314.07	19.761
1314.34	26.0953
1314.61	26.0967
1314.89	25.0412
1315.16	29.2664
1315.43	28.2093
1315.7	27.1516
1315.98	28.2062
1316.25	30.3164
1316.52	32.426
1316.79	23.9718
1317.07	23.9712
1317.34	26.0826
1317.61	28.1922
1317.88	29.2426
1318.16	29.2342
1318.43	28.1681
1318.7	30.2675
1318.97	23.9287
1319.25	31.3039
1319.52	28.1331
1319.79	21.7993
1320.06	24.9577
1320.34	27.0581
1320.61	27.0596
1320.88	31.2766
1321.16	22.8397
1321.43	21.7823
1321.7	27.0532
1321.97	22.8322
1322.25	27.0506
1322.52	31.2593
1322.79	24.9203
1323.06	27.0108
1323.33	24.8827
1323.61	28.029
1323.88	25.9197
1324.15	26.9773
1324.42	25.9418
1324.7	24.8958
1324.97	32.2792
1325.24	25.9648
1325.51	25.9734
1325.79	25.9802
1326.06	27.0373
1326.33	28.0855
1326.6	30.1973
1326.87	23.864
1327.15	31.2447
1327.42	23.855
1327.69	28.0671
1327.96	28.0584
1328.23	25.9398
1328.51	23.8204
1328.78	26.9671
1329.05	25.9023
1329.32	23.7877
1329.6	27.9873
1329.87	29.0274
1330.14	24.8086
1330.41	30.0541
1330.68	25.8392
1330.96	26.88
1331.23	22.6692
1331.5	22.6609
1331.77	23.7029
1332.04	26.8442
1332.32	27.8861
1332.59	25.7804
1332.86	26.8226
1333.13	22.6209
1333.4	24.7125
1333.67	26.804
1333.95	22.6052
1334.22	25.7457
1334.49	24.6932
1334.76	25.7366
1335.03	23.6329
1335.3	24.6724
1335.58	26.7614
1335.85	25.7076
1336.12	25.7024
1336.39	27.7936
1336.66	29.8867
1336.94	28.8392
1337.21	23.602
1337.48	25.6952
1337.75	26.7415
1338.02	25.6918
1338.29	20.4525
1338.57	27.7791
1338.84	24.6329
1339.11	25.6738
1339.38	29.8529
1339.65	26.7037
1339.93	25.6482
1340.2	26.688
1340.47	25.6379
1340.74	30.8641
1341.01	23.5409
1341.28	26.6768
1341.55	24.5832
1341.82	26.6707
1342.1	21.4362
1342.37	27.7016
1342.64	26.6458
1342.91	27.6813
1343.18	28.7144
1343.45	23.4784
1343.73	30.7732
1344	24.5019
1344.27	26.5779
1344.54	25.5255
1344.81	27.6033
1345.08	27.5975
1345.35	23.4238
1345.63	24.4621
1345.9	26.5404
1346.17	27.5752
1346.44	24.4427
1346.71	26.5189
1346.98	20.2643
1347.25	29.6282
1347.52	25.4571
1347.8	29.6113
1348.07	24.3997
1348.34	26.4737
1348.61	22.305
1348.88	25.4203
1349.15	23.338
1349.42	25.4183
1349.69	31.6626
1349.96	26.4684
1350.24	25.429
1350.51	24.4068
1350.78	28.6025
1351.05	24.4087
1351.32	27.4882
1351.59	26.4146
1351.86	27.4546
1352.13	27.4562
1352.41	29.5223
1352.68	25.3586
1352.95	27.4423
1353.22	27.4448
1353.49	25.3585
1353.76	24.3151
1354.03	27.4267
1354.3	27.422
1354.57	24.3012
1354.84	26.3717
1355.11	27.403
1355.39	30.5095
1355.66	24.2759
1355.93	31.5313
1356.2	26.3364
1356.47	30.4789
1356.74	24.2508
1357.01	28.3898
1357.28	25.2695
1357.55	26.2963
1357.82	30.4326
1358.09	29.3919
1358.36	24.2101
1358.63	29.3863
1358.9	29.3825
1359.18	25.2346
1359.45	29.3717
1359.72	26.2604
1359.99	22.1157
1360.26	27.2921
1360.53	30.4014
1360.8	27.2964
1361.07	23.1543
1361.34	24.1884
1361.61	28.3279
1361.88	28.3229
1362.15	30.3869
1362.42	25.2015
1362.69	30.3686
1362.97	33.4639
1363.24	28.2811
1363.51	30.341
1363.78	25.1597
1364.05	28.2499
1364.32	25.142
1364.59	30.3045
1364.86	29.2723
1365.13	29.2729
1365.4	25.1379
1365.67	27.2051
1365.94	32.3739
1366.21	26.1711
1366.48	24.103
1366.75	25.1323
1367.02	30.2961
1367.29	24.0885
1367.56	28.214
1367.83	24.0747
1368.1	26.1343
1368.37	27.1578
1368.64	28.1789
1368.91	27.1334
1369.18	29.1839
1369.45	33.2965
1369.72	28.1299
1369.99	26.061
1370.26	33.2702
1370.54	33.2639
1370.81	29.1363
1371.08	28.1013
1371.34	28.0972
1371.62	31.184
1371.89	31.1795
1372.16	28.0832
1372.43	29.112
1372.7	31.1743
1372.97	24.9904
1373.24	33.2325
1373.51	29.1019
1373.78	28.0629
1374.05	27.0221
1374.32	30.0939
1374.59	31.1245
1374.86	30.101
1375.13	32.1704
1375.4	34.2449
1375.67	33.233
1375.94	33.2374
1376.21	34.2655
1376.48	33.228
1376.75	35.2827
1377.02	39.3957
1377.29	32.1673
1377.56	35.2249
1377.83	33.1488
1378.09	40.33
1378.36	34.1652
1378.64	39.2965
1378.91	42.3595
1379.18	40.2809
1379.44	35.1267
1379.71	36.1382
1379.98	40.226
1380.25	45.3419
1380.52	40.1979
1380.79	44.2902
1381.06	39.1548
1381.33	42.2298
1381.6	42.2311
1381.87	44.2879
1382.14	41.22
1382.41	41.2354
1382.68	35.0858
1382.95	44.3327
1383.22	42.2825
1383.49	38.1817
1383.76	38.1837
1384.03	43.3174
1384.3	42.2608
1384.57	46.2725
1384.84	49.2567
1385.11	48.1933
1385.38	52.3374
1385.65	55.4948
1385.92	75.0555
1386.19	102.831
1386.45	143.904
1386.72	180.894
1386.99	201.37
1387.26	160.184
1387.53	98.5818
1387.8	68.8488
1388.07	48.3162
1388.34	48.3092
1388.61	39.0805
1388.88	38.045
1389.15	37.0085
1389.42	31.8774
1389.69	39.037
1389.96	33.9106
1390.23	31.8572
1390.49	30.8283
1390.76	34.9171
1391.03	31.8421
1391.3	36.9542
1391.57	30.8104
1391.84	27.7375
1392.11	26.7148
1392.38	25.6941
1392.65	26.719
1392.92	30.8132
1393.19	30.8104
1393.46	28.7587
1393.73	24.6595
1393.99	33.8639
1394.26	29.7631
1394.53	27.7094
1394.8	28.7273
1395.07	25.6563
1395.34	28.7246
1395.61	28.726
1395.88	28.7263
1396.15	29.7491
1396.42	22.5889
1396.68	34.8707
1396.95	29.7546
1397.22	25.6586
1397.49	29.7546
1397.76	22.5929
1398.03	26.6901
1398.3	28.7355
1398.57	24.6402
1398.84	25.6625
1399.11	28.7422
1399.38	27.7317
1399.64	27.7474
1399.91	28.7848
1400.18	27.7663
1400.45	23.6627
1400.72	29.8213
1400.99	26.7343
1401.26	32.8715
1401.53	27.7438
1401.79	28.7655
1402.06	22.6052
1402.33	27.7273
1402.6	30.7963
1402.87	25.6622
1403.14	28.7311
1403.41	28.726
1403.68	27.6964
1403.94	27.6957
1404.21	25.6456
1404.48	25.6461
1404.75	27.6961
1405.02	30.7717
1405.29	27.6956
1405.56	24.6191
1405.82	30.7719
1406.09	25.6451
1406.36	29.748
1406.63	29.7485
1406.9	30.7742
1407.17	29.7471
1407.44	27.6879
1407.7	34.8558
1407.97	32.7923
1408.24	39.9559
1408.51	34.8236
1408.78	36.8658
1409.05	29.6907
1409.31	32.7667
1409.58	28.6744
1409.85	25.6131
1410.12	21.5372
1410.39	27.7164
1410.66	24.6149
1410.92	26.6255
1411.19	23.5522
1411.46	25.619
1411.73	26.6582
1412	27.6807
1412.27	26.6532
1412.53	27.6781
1412.8	30.757
1413.07	26.6505
1413.34	26.6512
1413.61	31.787
1413.88	26.653
1414.14	24.5999
1414.41	26.6558
1414.68	26.657
1414.95	28.7119
1415.22	29.7382
1415.48	27.6822
1415.75	26.6543
1416.02	27.6802
1416.29	20.4851
1416.56	27.6744
1416.82	24.5849
1417.09	23.5504
1417.36	25.598
1417.63	29.698
1417.9	26.6095
1418.17	24.5493
1418.43	27.6239
1418.7	27.6233
1418.97	28.6552
1419.24	29.6909
1419.5	22.5074
1419.77	25.6019
1420.04	23.5645
1420.31	25.6452
1420.58	24.564
1420.84	26.5442
1421.11	28.606
1421.38	26.5261
1421.65	25.4958
1421.92	20.3801
1422.18	29.6186
1422.45	27.5761
1422.72	24.4891
1422.99	23.4721
1423.26	21.4166
1423.52	26.5393
1423.79	25.5047
1424.06	24.4704
1424.33	24.4608
1424.59	25.4732
1424.86	23.4137
1425.13	17.2639
1425.4	28.5232
1425.66	26.4739
1425.93	30.5693
1426.2	27.498
1426.47	26.4752
1426.73	24.4289
1427	28.5306
1427.27	28.5366
1427.54	25.4663
1427.81	28.5482
1428.07	23.4303
1428.34	23.4374
1428.61	23.44
1428.88	23.4385
1429.14	23.4324
1429.41	26.5025
1429.68	26.4961
1429.94	23.4097
1430.21	25.4487
1430.48	27.485
1430.75	27.4715
1431.02	29.5103
1431.28	24.3851
1431.55	28.4915
1431.82	28.4973
1432.08	25.4225
1432.35	27.4703
1432.62	23.369
1432.89	23.3659
1433.15	27.461
1433.42	23.3589
1433.69	19.2568
1433.96	26.4235
1434.22	23.3463
1434.49	25.3921
1434.76	19.2424
1435.02	21.2875
1435.29	22.3107
1435.56	25.3853
1435.83	27.4348
1436.09	24.3606
1436.36	31.5317
1436.63	23.3373
1436.89	26.4156
1437.16	26.4215
1437.43	25.3981
1437.7	24.3725
1437.96	24.3711
1438.23	29.4982
1438.5	22.3161
1438.77	28.462
1439.03	25.3817
1439.3	34.6136
1439.57	25.3839
1439.83	31.5414
1440.1	26.4081
1440.37	29.4775
1440.63	20.244
1440.9	26.3906
1441.17	24.3373
1441.43	30.4875
1441.7	24.3422
1441.97	25.3721
1442.24	24.3536
1442.5	29.4794
1442.77	27.4228
1443.03	27.4185
1443.3	23.3112
1443.57	26.3844
1443.84	23.3036
1444.1	26.3762
1444.37	27.397
1444.64	24.3155
1444.9	22.2605
1445.17	28.4091
1445.44	24.3109
1445.7	28.4175
1445.97	25.3406
1446.24	26.3641
1446.5	25.3343
1446.77	25.329
1447.04	27.3733
1447.3	20.1905
1447.57	26.337
1447.84	27.3579
1448.1	27.3537
1448.37	24.2748
1448.64	21.1961
1448.9	25.2904
1449.17	22.2127
1449.44	22.2097
1449.7	25.2817
1449.97	22.2072
1450.24	23.2326
1450.5	25.2828
1450.77	22.2068
1451.04	27.327
1451.3	25.274
1451.57	28.3462
1451.83	24.2455
1452.1	24.2429
1452.37	24.2392
1452.63	26.2867
1452.9	20.1408
1453.17	24.2408
1453.43	25.2639
1453.7	24.235
1453.97	21.1546
1454.23	27.2961
1454.5	23.1941
1454.77	25.2393
1455.03	28.3093
1455.3	25.2344
1455.56	25.2331
1455.83	26.2571
1456.1	24.2075
1456.36	23.1819
1456.63	25.2298
1456.9	19.0795
1457.16	29.3212
1457.43	23.1705
1457.69	28.2883
1457.96	26.2347
1458.23	24.1809
1458.49	25.1996
1458.76	25.1938
1459.02	29.2822
1459.29	23.1335
1459.56	27.2198
1459.82	25.1654
1460.09	24.1345
1460.36	30.2621
1460.62	26.1636
1460.89	22.0707
1461.15	26.1662
1461.42	25.1543
1461.69	27.2091
1461.95	24.1483
1462.22	29.2484
1462.48	26.1231
1462.75	28.1388
1463.02	27.1116
1463.28	25.0774
1463.55	26.0947
1463.81	27.1008
1464.08	23.0134
1464.35	24.0344
1464.61	27.0914
1464.88	20.9667
1465.14	23.0038
1465.41	23.0013
1465.67	21.9788
1465.94	27.0755
1466.21	27.0707
1466.47	25.0257
1466.74	22.9796
1467	23.9911
1467.27	23.9841
1467.54	27.0356
1467.8	22.9546
1468.07	23.9696
1468.33	23.9643
1468.6	29.0498
1468.86	21.9149
1469.13	25.9843
1469.39	29.036
1469.66	22.9238
1469.93	28.0121
1470.19	23.9354
1470.46	28.0018
1470.72	21.8882
1470.99	22.9011
1471.25	24.9325
1471.52	22.895
1471.79	20.8596
1472.05	25.9483
1472.32	22.8933
1472.58	24.9262
1472.85	22.8864
1473.11	25.9339
1473.38	25.9291
1473.64	25.9248
1473.91	24.9012
1474.17	21.8435
1474.44	25.9074
1474.71	23.8705
1474.97	22.8509
1475.24	21.8294
1475.5	27.9227
1475.77	23.8503
1476.03	24.8609
1476.3	20.7896
1476.56	25.8633
1476.83	22.8081
1477.09	23.8164
1477.36	24.8207
1477.62	25.8258
1477.89	21.7593
1478.15	21.755
1478.42	26.8214
1478.68	25.8071
1478.95	23.78
1479.22	24.7975
1479.48	22.7708
1479.75	22.7727
1480.01	22.7709
1480.28	23.7871
1480.54	22.7714
1480.81	25.816
1481.07	21.7514
1481.34	27.8306
1481.6	27.8125
1481.87	22.7122
1482.13	27.7371
1482.4	26.709
1482.66	22.6391
1482.93	27.7598
1483.19	21.6865
1483.46	25.7505
1483.72	20.6538
1483.99	26.7429
1484.25	23.7058
1484.52	23.6961
1484.78	28.7525
1485.05	23.6825
1485.31	24.689
1485.58	21.6441
1485.84	21.6363
1486.11	20.6179
1486.37	27.6961
1486.64	25.6681
1486.9	23.6407
1487.17	22.6269
1487.43	26.6713
1487.7	27.6774
1487.96	22.6128
1488.22	25.6393
1488.49	27.6567
1488.75	26.6423
1489.02	20.5741
1489.28	26.6395
1489.55	23.6035
1489.81	25.622
1490.08	27.6409
1490.34	24.6061
1490.61	25.6131
1490.87	22.5775
1491.14	20.554
1491.4	23.5861
1491.67	19.5425
1491.93	22.5726
1492.19	23.5776
1492.46	22.5577
1492.72	26.5874
1492.99	25.5672
1493.25	25.5601
1493.52	26.5638
1493.78	25.5489
1494.05	22.5151
1494.31	24.5314
1494.58	20.4921
1494.84	22.5072
1495.1	23.5137
1495.37	23.5119
1495.63	23.5104
1495.9	22.5
1496.16	22.499
1496.43	22.4985
1496.69	28.5554
1496.96	25.5275
1497.22	22.4977
1497.48	22.4956
1497.75	24.5118
1498.01	20.4709
1498.28	20.4667
1498.54	22.4786
1498.81	20.4566
1499.07	27.5179
1499.34	23.4783
1499.6	23.4741
1499.86	24.4755
1500.13	28.5024
1500.39	23.4546
1500.66	23.4478
1500.92	26.4703
1501.18	24.4543
1501.45	23.4451
1501.71	19.4095
1501.98	22.4318
1502.24	28.4772
1502.5	21.4135
1502.77	25.4367
1503.03	25.4244
1503.3	25.4205
1503.56	23.4028
1503.83	25.4165
1504.09	23.4034
1504.35	22.3947
1504.62	28.44
1504.88	23.3994
1505.15	18.3575
1505.41	25.4073
1505.67	23.3905
1505.94	27.42
1506.2	26.4108
1506.47	26.4084
1506.73	21.368
1506.99	25.3994
1507.26	20.3605
1507.52	29.4228
1507.78	24.3776
1508.05	27.3911
1508.31	25.3671
1508.58	25.3543
1508.84	23.3258
1509.1	25.3215
1509.37	25.306
1509.63	27.3014
1509.9	23.2743
1510.16	24.2706
1510.42	26.2713
1510.69	24.259
1510.95	27.2748
1511.21	22.2622
1511.48	23.2675
1511.74	28.2848
1512.01	27.2719
1512.27	25.254
1512.53	23.2377
1512.8	21.2212
1513.06	23.2184
1513.32	23.2108
1513.59	24.2091
1513.85	25.2077
1514.11	21.1932
1514.38	23.1958
1514.64	24.1968
1514.9	21.1885
1515.17	27.2079
1515.43	22.1929
1515.7	29.2138
1515.96	25.2013
1516.22	23.1953
1516.49	23.1953
1516.75	25.2012
1517.01	24.1953
1517.28	21.1814
1517.54	24.1871
1517.8	23.1833
1518.07	26.1936
1518.33	22.1806
1518.59	27.1966
1518.86	21.1732
1519.12	26.1856
1519.38	23.1709
1519.65	27.1781
1519.91	21.1552
1520.17	25.1606
1520.44	28.158
1520.7	24.1357
1520.96	23.1247
1521.23	27.1238
1521.49	22.1093
1521.75	23.1047
1522.02	20.1011
1522.28	26.109
1522.54	23.1035
1522.81	21.1018
1523.07	24.1096
1523.33	21.1082
1523.59	23.1157
1523.86	28.1278
1524.12	28.1252
1524.38	24.1099
1524.65	29.1171
1524.91	22.0978
1525.17	26.1019
1525.44	20.0851
1525.7	29.0968
1525.96	28.0902
1526.23	26.0833
1526.49	23.0759
1526.75	21.0691
1527.02	23.0661
1527.28	26.0669
1527.54	21.0601
1527.8	22.0645
1528.07	24.0712
1528.33	25.0754
1528.59	21.0659
1528.86	22.0642
1529.12	27.0731
1529.38	26.0651
1529.64	23.0603
1529.91	23.0649
1530.17	25.0772
1530.43	25.0839
1530.69	28.095
1530.96	26.0892
1531.22	24.0807
1531.48	22.071
1531.75	24.0732
1532.01	26.0742
1532.27	22.0584
1532.53	23.0547
1532.8	24.042
1533.06	20.0245
1533.32	25.0257
1533.59	26.0157
1533.85	25.0022
1534.11	28.9934
1534.37	24.9853
1534.64	21.976
1534.9	21.9744
1535.16	24.9677
1535.42	22.9574
1535.69	25.9518
1535.95	21.9486
1536.21	22.9527
1536.48	19.964
1536.74	21.9805
1537	25.9973
1537.26	25.0051
1537.53	25.0152
1537.79	22.0125
1538.05	24.0194
1538.31	27.0135
1538.58	25.0054
1538.84	25.9981
1539.1	25.9891
1539.36	22.975
1539.62	25.9708
1539.89	24.961
1540.15	26.9548
1540.41	22.9428
1540.67	24.9335
1540.94	22.9217
1541.2	22.9208
1541.46	20.9199
1541.72	25.9244
1541.98	23.9297
1542.25	24.9342
1542.51	24.9431
1542.77	25.9486
1543.03	28.9551
1543.3	26.9533
1543.56	22.9428
1543.82	24.9453
1544.08	24.9464
1544.35	23.9456
1544.61	28.957
1544.87	24.9411
1545.13	23.9231
1545.39	24.9224
1545.66	23.9198
1545.92	18.9182
1546.18	20.8983
1546.44	25.8705
1546.71	27.8605
1546.97	26.875
1547.23	19.8953
1547.49	25.943
1547.75	21.957
1548.02	28.0086
1548.28	25.9772
1548.54	22.9658
1548.8	21.9551
1549.06	20.9412
1549.33	25.9696
1549.59	19.9531
1549.85	21.9567
1550.11	26.9686
1550.37	19.9214
1550.64	22.9251
1550.9	22.9211
1551.16	21.9111
1551.42	23.9073
1551.68	21.892
1551.94	23.885
1552.21	24.8814
1552.47	26.8809
1552.73	22.8718
1552.99	23.8731
1553.25	23.8716
1553.52	15.8523
1553.78	22.862
1554.04	26.8685
1554.3	23.8628
1554.56	23.8613
1554.82	26.8631
1555.09	30.8621
1555.35	28.847
1555.61	30.8393
1555.87	22.8206
1556.13	24.8115
1556.39	25.8023
1556.65	24.7942
1556.92	21.7882
1557.18	22.7822
1557.44	23.777
1557.7	23.7728
1557.96	21.7705
1558.22	28.7634
1558.49	27.7641
1558.75	25.7684
1559.01	26.7738
1559.27	24.7805
1559.53	20.7782
1559.79	24.7754
1560.05	23.7711
1560.32	27.7707
1560.58	22.7658
1560.84	27.7616
1561.1	24.7693
1561.36	25.7787
1561.62	24.7795
1561.88	27.778
1562.15	26.7598
1562.41	25.7081
1562.67	24.6414
1562.93	23.6068
1563.19	19.7186
1563.45	27.7448
1563.71	25.7284
1563.98	23.7091
1564.24	25.7274
1564.5	28.753
1564.76	24.7428
1565.02	25.7208
1565.28	24.7224
1565.54	26.724
1565.8	22.7242
1566.07	22.7199
1566.33	27.706
1566.59	27.6973
1566.85	22.699
1567.11	28.6953
1567.37	27.6945
1567.63	25.6941
1567.89	28.6897
1568.15	23.6895
1568.42	25.6837
1568.68	25.6772
1568.94	24.6711
1569.2	23.6693
1569.46	23.664
1569.72	24.6554
1569.98	22.6525
1570.24	26.6401
1570.5	27.6313
1570.77	24.6309
1571.03	24.6294
1571.29	22.6358
1571.55	23.638
1571.81	25.6396
1572.07	25.6447
1572.33	28.6468
1572.59	26.6519
1572.85	22.6538
1573.11	27.6465
1573.37	23.6467
1573.64	23.6417
1573.9	27.627
1574.16	21.6224
1574.42	27.6004
1574.68	25.5923
1574.94	25.5812
1575.2	25.5707
1575.46	23.5694
1575.72	31.5412
1575.98	23.5634
1576.24	26.5519
1576.5	21.5654
1576.76	28.5436
1577.03	25.5547
1577.29	25.5547
1577.55	24.556
1577.81	25.55
1578.07	17.5682
1578.33	26.5351
1578.59	26.5293
1578.85	22.535
1579.11	27.5093
1579.37	19.5347
1579.63	22.5197
1579.89	26.5003
1580.15	29.4848
1580.41	26.4936
1580.67	26.4908
1580.93	25.4898
1581.19	26.4836
1581.46	26.4841
1581.72	26.484
1581.98	26.4831
1582.24	22.4963
1582.5	28.4692
1582.76	24.4822
1583.02	26.4695
1583.28	25.4649
1583.54	26.4514
1583.8	29.4299
1584.06	28.4284
1584.32	27.428
1584.58	24.4384
1584.84	22.4451
1585.1	27.4178
1585.36	26.4232
1585.62	28.4147
1585.88	23.4409
1586.14	27.4235
1586.4	25.4343
1586.66	23.4437
1586.92	25.4338
1587.18	30.4098
1587.44	25.4318
1587.7	23.4414
1587.96	30.4132
1588.22	26.4266
1588.48	20.4491
1588.74	23.4329
1589	29.4025
1589.26	22.4248
1589.52	32.3666
1589.78	28.3764
1590.04	26.3801
1590.3	25.373
1590.56	23.3716
1590.82	25.346
1591.08	22.3565
1591.34	29.3037
1591.6	23.3421
1591.86	23.3431
1592.12	30.3012
1592.38	30.3036
1592.64	25.3333
1592.9	25.3183
1593.16	24.3224
1593.42	25.3135
1593.68	24.3184
1593.94	29.2837
1594.2	24.3172
1594.46	28.2911
1594.72	25.3113
1594.98	22.3281
1595.24	30.2707
1595.5	29.2695
1595.76	27.2729
1596.02	27.2635
1596.28	32.2184
1596.54	24.2716
1596.8	26.2493
1597.06	26.2423
1597.32	22.268
1597.58	24.2444
1597.84	22.2529
1598.1	26.2075
1598.36	27.1866
1598.62	26.1843
1598.88	25.1842
1599.14	25.1763
1599.4	28.1382
1599.66	26.1503
1599.92	26.1412
1600.18	30.0892
1600.44	26.1252
1600.7	23.153
1600.96	28.0924
1601.22	27.1009
1601.48	28.088
1601.73	26.1093
1601.99	29.0739
1602.25	24.1285
1602.51	26.1051
1602.77	26.1054
1603.03	27.0957
1603.29	27.0975
1603.55	24.1315
1603.81	24.1323
1604.07	32.0482
1604.33	21.1627
1604.59	31.0551
1604.85	29.0729
1605.11	25.1127
1605.37	26.0996
1605.63	24.1182
1605.89	33.0178
1606.14	23.116
1606.4	30.0273
1606.66	29.0285
1606.92	24.076
1607.18	28.9787
1607.44	28.9158
1607.7	20.2535
1607.96	31.7531
1608.22	27.7186
1608.48	26.0336
1608.74	28.6415
1609	27.0246
1609.26	26.1003
1609.51	27.5854
1609.77	28.2603
1610.03	21.8451
1610.29	24.3069
1610.55	23.3428
1610.81	24.1662
1611.07	27.0264
1611.33	27.0027
1611.59	22.9471
1611.85	27.9688
1612.11	22.8636
1612.36	26.0435
1612.62	26.534
1612.88	28.236
1613.14	27.2875
1613.4	24.7958
1613.66	29.1968
1613.92	25.6173
1614.18	26.1696
1614.44	25.3946
1614.7	27.6255
1614.95	24.9036
1615.21	30.2714
1615.47	23.6176
1615.73	25.4055
1615.99	28.3341
1616.25	27.9422
1616.51	26.1207
1616.77	26.7262
1617.03	26.697
1617.28	27.2629
1617.54	25.1905
1617.8	28.7703
1618.06	24.0561
1618.32	27.7248
1618.58	25.3835
1618.84	23.8681
1619.1	25.6044
1619.35	27.5669
1619.61	24.4834
1619.87	24.8896
1620.13	26.1247
1620.39	25.0183
1620.65	25.9139
1620.91	26.0936
1621.17	24.9988
1621.42	29.0831
1621.68	28.3101
1621.94	26.479
1622.2	25.9444
1622.46	26.2835
1622.72	26.7398
1622.98	25.3863
1623.23	25.6651
1623.49	27.8046
1623.75	25.5425
1624.01	25.0094
1624.27	29.1879
1624.53	27.6091
1624.79	27.7801
1625.04	26.1292
1625.3	28.3997
1625.56	26.6022
1625.82	26.9647
1626.08	27.7136
1626.34	25.323
1626.59	26.2687
1626.85	27.6246
1627.11	28.7034
1627.37	25.1577
1627.63	24.3179
1627.89	26.7948
1628.14	28.3531
1628.4	26.7512
1628.66	25.542
1628.92	28.6434
1629.18	24.3812
1629.44	27.5055
1629.69	27.1143
1629.95	24.2986
1630.21	26.3542
1630.47	28.5007
1630.73	26.1107
1630.99	26.7072
1631.24	26.7787
1631.29	26.8146
1631.55	26.8137
1631.81	28.7835
1632.07	22.8669
1632.33	22.8639
1632.59	28.774
1632.86	29.7551
1633.12	22.8523
1633.38	28.7593
1633.64	23.8281
1633.9	23.8229
1634.16	28.7413
1634.42	24.7962
1634.68	25.7771
1634.95	22.8201
1635.21	26.754
1635.47	27.7339
1635.73	27.7305
1635.99	25.7601
1636.25	28.7112
1636.51	28.7089
1636.77	25.7537
1637.03	22.7982
1637.3	25.7484
1637.56	24.7641
1637.82	24.7663
1638.08	27.7211
1638.34	28.7041
1638.6	24.7612
1638.86	24.7569
1639.12	24.7534
1639.39	26.7191
1639.65	26.7159
1639.91	23.7599
1640.17	29.6629
1640.43	23.7548
1640.69	27.6888
1640.95	26.7003
1641.21	24.7272
1641.47	23.7372
1641.73	20.7817
1641.99	28.6493
1642.25	24.7154
1642.52	26.6837
1642.78	25.6998
1643.04	19.7926
1643.3	26.6763
1643.56	25.6875
1643.82	23.7155
1644.08	26.6635
1644.34	23.7074
1644.6	25.6704
1644.86	23.6991
1645.12	25.6643
1645.38	25.6632
1645.65	26.65
1645.91	26.6531
1646.17	27.6516
1646.43	27.6491
1646.69	27.645
1646.95	25.6709
1647.21	22.7171
1647.47	26.6622
1647.73	26.6645
1647.99	25.6827
1648.25	23.7146
1648.51	27.6568
1648.77	26.6703
1649.03	27.6537
1649.29	27.6519
1649.55	22.7237
1649.82	28.6306
1650.08	25.6698
1650.34	29.6079
1650.6	26.6506
1650.86	27.6354
1651.12	28.6218
1651.38	28.6212
1651.64	27.6348
1651.9	27.635
1652.16	27.6368
1652.42	26.6547
1652.68	26.6607
1652.94	26.6678
1653.2	26.6712
1653.46	23.7117
1653.72	22.7243
1653.98	26.6715
1654.24	28.6425
1654.5	22.7159
1654.76	25.6724
1655.02	29.6162
1655.28	24.6781
1655.54	25.66
1655.81	26.6409
1656.07	28.6079
1656.33	25.6432
1656.58	26.6236
1656.84	23.6596
1657.11	29.5691
1657.37	27.598
1657.63	26.6136
1657.89	22.6711
1658.15	26.6184
1658.41	25.6348
1658.67	24.6503
1658.93	25.638
1659.19	25.6288
1659.45	23.6515
1659.71	22.6999
1659.97	22.7101
1660.23	27.6402
1660.49	25.6612
1660.75	23.6598
1661.01	30.5379
1661.27	23.6507
1661.53	25.6269
1661.79	25.6303
1662.05	23.6644
1662.31	25.636
1662.57	29.5429
1662.83	26.5941
1663.09	22.6845
1663.35	25.6492
1663.61	21.6949
1663.87	26.5571
1664.13	23.5886
1664.39	27.5754
1664.65	25.5938
1664.91	23.6151
1665.17	26.5699
1665.43	24.5913
1665.69	26.5651
1665.95	28.5529
1666.21	21.6484
1666.47	28.5619
1666.72	23.6219
1666.99	23.6208
1667.25	26.5774
1667.51	27.5676
1667.76	24.6163
1668.02	22.6404
1668.28	23.6245
1668.54	24.6095
1668.8	25.5947
1669.06	22.6297
1669.32	24.606
1669.58	24.6047
1669.84	24.6023
1670.1	26.5775
1670.36	25.5878
1670.62	24.5983
1670.88	27.5642
1671.14	26.5764
1671.4	23.6112
1671.66	23.6118
1671.92	25.5913
1672.18	25.5945
1672.44	26.5852
1672.7	27.5748
1672.96	22.6244
1673.22	25.5909
1673.48	26.5799
1673.74	24.5997
1674	25.5879
1674.25	23.6058
1674.51	21.623
1674.77	21.6189
1675.03	23.5925
1675.29	24.575
1675.55	25.5569
1675.81	26.5395
1676.07	24.5568
1676.33	20.5977
1676.59	27.5137
1676.85	24.5436
1677.11	22.5627
1677.37	23.5473
1677.63	23.5428
1677.89	25.5147
1678.15	27.4866
1678.4	23.5318
1678.66	27.4811
1678.92	25.5031
1679.18	25.5011
1679.44	25.4994
1679.7	22.5338
1679.96	22.5308
1680.22	22.5283
1680.48	24.5018
1680.74	24.4996
1681	24.4967
1681.25	26.4681
1681.51	22.5122
1681.77	23.4961
1682.03	24.4805
1682.29	27.4401
1682.55	25.4628
1682.81	22.4984
1683.07	21.5091
1683.33	28.4203
1683.59	25.4587
1683.84	22.4976
1684.1	22.4974
1684.36	27.4347
1684.62	25.4547
1684.88	29.4006
1685.14	23.47
1685.4	24.4533
1685.66	25.4359
1685.92	24.4425
1686.18	28.3838
1686.43	27.3903
1686.69	25.4102
1686.95	23.4301
1687.21	24.4095
1687.47	23.4228
1687.73	24.4115
1687.99	22.4389
1688.25	25.3988
1688.51	25.3978
1688.76	24.4123
1689.02	22.4376
1689.28	23.4222
1689.54	19.4711
1689.8	21.4392
1690.06	19.4602
1690.32	23.3988
1690.58	20.4325
1690.84	25.353
1691.09	25.3471
1691.35	20.4132
1691.61	22.3774
1691.87	24.3427
1692.13	20.4011
1692.39	23.3557
1692.64	23.3548
1692.9	23.3541
1693.16	22.3684
1693.42	24.3407
1693.68	21.3837
1693.94	22.3664
1694.2	25.318
1694.46	24.3257
1694.71	23.3324
1694.97	23.3246
1695.23	23.3182
1695.49	22.3281
1695.75	24.2909
1696.01	24.2859
1696.26	22.3146
1696.52	23.2964
1696.78	21.3276
1697.04	22.3096
1697.3	23.2912
1697.56	23.2852
1697.81	23.2825
1698.07	25.2468
1698.33	23.2758
1698.59	25.2386
1698.85	21.2986
1699.11	22.2758
1699.37	26.202
1699.62	22.2636
1699.88	25.2064
1700.14	25.2032
1700.4	24.2176
1700.66	24.2139
1700.91	23.2273
1701.17	23.2248
1701.43	25.1902
1701.69	24.2081
1701.95	22.2409
1702.21	22.2377
1702.46	23.2173
1702.72	23.2154
1702.98	22.2298
1703.24	21.2417
1703.5	24.1816
1703.75	25.1559
1704.01	25.1477
1704.27	23.1771
1704.53	23.1699
1704.79	24.1425
1705.04	22.1718
1705.3	22.1631
1705.56	20.1939
1705.82	21.1646
1706.08	22.1358
1706.33	25.0667
1706.59	21.1456
1706.85	25.0582
1707.11	20.1613
1707.37	27.0124
1707.62	23.0953
1707.88	24.075
1708.14	19.1797
1708.4	23.0967
1708.66	22.1172
1708.91	19.178
1709.17	22.1141
1709.43	21.1295
1709.69	21.1207
1709.95	19.1531
1710.2	24.0338
1710.46	22.0679
1710.72	23.0345
1710.98	21.0714
1711.23	22.043
1711.49	23.992
1711.75	23.9881
1712.01	21.0547
1712.27	20.076
1712.52	21.056
1712.78	25.9421
1713.04	23.008
1713.3	21.0498
1713.55	23.9749
1713.81	22.0143
1714.07	24.9347
1714.33	22.9719
1714.58	21.9845
1714.84	25.8715
1715.1	22.9358
1715.36	22.9249
1715.61	22.9165
1715.87	19.9888
1716.13	25.8267
1716.39	21.9303
1716.64	23.8749
1716.9	19.977
1717.16	21.925
1717.42	22.8963
1717.68	21.918
1717.93	21.9117
1718.19	19.9571
1718.45	21.8976
1718.71	23.8363
1718.96	20.9115
1719.22	23.821
1719.48	23.8129
1719.74	18.9465
1719.99	21.8547
1720.25	21.8482
1720.51	19.9006
1720.76	22.8097
1721.02	23.7791
1721.28	19.8906
1721.54	25.7132
1721.79	20.8525
1722.05	21.815
1722.31	22.7742
1722.56	22.7646
1722.82	19.8464
1723.08	22.7478
1723.34	22.7441
1723.59	21.7746
1723.85	23.7082
1724.11	20.7953
1724.37	23.6923
1724.62	20.786
1724.88	23.6943
1725.14	22.721
1725.39	24.6511
1725.65	18.8273
1725.91	21.6977
1726.17	23.5982
1726.42	22.6256
1726.68	20.7057
1726.94	21.6793
1727.19	19.7478
1727.45	25.5289
1727.71	20.6945
1727.96	22.6287
1728.22	21.6785
1728.48	22.644
1728.74	21.6757
1728.99	21.673
1729.25	19.7367
1729.51	20.699
1729.76	19.7284
1730.02	26.4852
1730.28	20.6824
1730.53	24.5355
1730.79	21.6283
1731.05	21.6184
1731.3	20.6456
1731.56	22.5653
1731.82	22.5562
1732.08	23.5105
1732.33	21.5749
1732.59	18.6788
1732.85	22.524
1733.1	22.5191
1733.36	22.5151
1733.62	24.4353
1733.87	20.5811
1734.13	20.5762
1734.39	21.5332
1734.64	23.4523
1734.9	20.5619
1735.16	22.4791
1735.41	22.4724
1735.67	19.5824
1735.93	21.4981
1736.18	20.5302
1736.44	22.4428
1736.7	18.5919
1736.95	20.5008
1737.21	15.6948
1737.47	22.3989
1737.72	23.349
1737.98	24.3
1738.24	18.544
1738.49	22.3696
1738.75	19.4902
1739.01	26.1881
1739.26	24.2689
1739.52	17.5638
1739.78	22.3466
1740.03	22.3424
1740.29	25.2109
1740.54	24.2512
1740.8	20.4177
1741.06	18.4976
1741.31	21.363
1741.57	21.3576
1741.83	22.3115
1742.08	20.3965
1742.34	22.3079
1742.6	21.3491
1742.85	22.3021
1743.11	22.2968
1743.36	19.4217
1743.62	20.3703
1743.88	21.3177
1744.13	21.3115
1744.39	23.2128
1744.65	22.2516
1744.9	16.5164
1745.16	18.4225
1745.42	21.2839
1745.67	24.1461
1745.93	19.3721
1746.18	18.4167
1746.44	23.1912
1746.7	21.2831
1746.95	16.5094
1747.21	21.2881
1747.46	20.3353
1747.72	24.1605
1747.98	21.2921
1748.23	21.2926
1748.49	21.2903
1748.74	22.2404
1749	19.365
1749.26	18.4022
1749.51	22.2165
1749.77	23.1646
1750.02	18.3843
1750.28	23.1505
1750.54	19.3273
1750.79	22.1844
1751.05	22.1786
1751.31	19.3105
1751.56	22.1652
1751.82	22.16
1752.07	20.2485
1752.33	23.1036
1752.59	19.2864
1752.84	22.1395
1753.1	20.2274
1753.35	20.2203
1753.61	19.2606
1753.86	19.2525
1754.12	23.0506
1754.38	21.1406
1754.63	20.1848
1754.89	21.1325
1755.14	20.182
1755.4	21.1361
1755.66	22.0871
1755.91	23.9886
1756.17	19.229
1756.42	23.9855
1756.68	20.1777
1756.93	19.2234
1757.19	21.123
1757.44	20.1677
1757.7	21.115
1757.96	21.1103
1758.21	21.1047
1758.47	23.0003
1758.72	21.0932
1758.98	20.1383
1759.23	19.1842
1759.49	18.2322
1759.75	22.036
1760	24.8883
1760.26	22.0336
1760.51	21.0804
1760.77	17.2759
1761.02	21.0789
1761.28	22.9814
1761.53	23.9374
1761.79	22.0391
1762.05	20.1368
1762.3	17.2815
1762.56	21.0889
1762.81	22.9922
1763.07	21.0866
1763.32	22.0365
1763.58	20.1295
1763.83	22.9815
1764.09	20.1229
1764.34	22.0239
1764.6	18.2127
1764.85	22.0143
1765.11	17.2521
1765.37	21.0532
1765.62	20.0994
1765.88	19.1427
1766.13	19.1313
1766.39	23.8708
1766.64	21.9565
1766.9	17.2029
1767.15	19.101
1767.41	22.905
1767.66	17.2055
1767.92	21.0043
1768.17	21.0043
1768.43	21.9602
1768.68	21.965
1768.94	24.8166
1769.19	21.0129
1769.45	20.0637
1769.7	21.0171
1769.96	20.0665
1770.21	21.0184
1770.47	22.9222
1770.72	21.0188
1770.98	19.1149
1771.23	23.8743
1771.49	21.9694
1771.74	21.9687
1772	18.1609
1772.26	19.1127
1772.51	21.0203
1772.76	20.0749
1773.02	21.9833
1773.27	20.0769
1773.53	21.0284
1773.78	20.0717
1774.04	24.8325
1774.29	21.0146
1774.55	21.963
1774.8	24.8151
1775.06	24.8087
1775.31	21.9451
1775.57	20.9868
1775.82	19.0762
1776.08	23.8276
1776.33	20.0138
1776.59	20.0094
1776.84	22.8631
1777.1	22.8665
1777.35	18.1073
1777.61	17.1549
1777.86	19.0582
1778.12	20.9616
1778.37	21.9122
1778.63	20.9594
1778.88	16.1987
1779.13	21.9128
1779.39	20.9624
1779.65	21.9175
1779.9	23.8242
1780.15	20.9661
1780.41	17.1542
1780.66	20.014
1780.92	19.0614
1781.17	23.8297
1781.43	20.9715
1781.68	22.8821
1781.94	22.8832
1782.19	20.9743
1782.45	20.972
1782.7	20.9685
1782.95	20.9642
1783.21	20.0069
1783.46	20.9596
1783.72	21.9139
1783.97	20.0073
1784.23	20.0099
1784.48	20.9686
1784.74	16.2001
1784.99	20.0309
1785.24	19.0855
1785.5	22.9225
1785.75	21.9707
1786.01	14.3128
1786.26	21.9772
1786.52	21.0246
1786.77	21.9852
1787.03	19.1106
1787.28	21.0285
1787.54	20.0698
1787.79	19.1088
1788.04	21.0234
1788.3	19.0954
1788.55	22.9173
1788.81	17.1666
1789.06	20.9942
1789.31	19.0775
1789.57	20.0337
1789.82	20.0336
1790.08	20.9918
1790.33	24.8236
1790.59	18.115
1790.84	20.989
1791.09	19.0723
1791.35	21.9462
1791.6	20.9837
1791.86	23.8536
1792.11	20.0306
1792.36	18.1241
1792.62	21.9686
1792.87	22.9311
1793.13	18.1326
1793.38	19.0941
1793.64	20.0562
1793.89	21.0189
1794.14	21.982
1794.4	23.9061
1794.65	22.9465
1794.9	21.9861
1795.16	21.0251
1795.41	20.0634
1795.67	19.1008
1795.92	21.0217
1796.17	20.0566
1796.43	20.0522
1796.68	21.9692
1796.94	20.0407
1797.19	22.918
1797.44	22.9129
1797.7	21.9477
1797.95	19.0623
1798.21	19.0593
1798.46	18.0963
1798.71	20.0156
1798.97	20.975
1799.22	23.8566
1799.47	16.1711
1799.73	22.8977
1799.98	21.9387
1800.24	21.9412
1800.49	21.944
1800.74	20.0221
1801	22.9066
1801.25	20.9822
1801.5	19.0599
1801.76	22.9101
1802.01	20.0253
1802.27	21.9533
1802.52	20.994
1802.77	20.034
1803.03	23.8891
1803.28	19.0741
1803.53	22.9293
1803.79	17.1481
1804.04	23.8936
1804.29	22.9283
1804.55	20.9988
1804.8	20.0331
1805.05	22.9229
1805.31	21.9575
1805.56	18.1006
1805.81	22.9187
1806.07	20.0258
1806.32	19.0606
1806.58	20.9873
1806.83	18.094
1807.08	20.9851
1807.34	21.9479
1807.59	20.9817
1807.84	20.0143
1808.1	19.0474
1808.35	19.0452
1808.6	20.9708
1808.86	20.9687
1809.11	20.003
1809.36	19.0383
1809.62	21.9313
1809.87	22.8971
1810.12	19.0409
1810.38	22.8996
1810.63	20.0052
1810.88	20.9715
1811.14	20.9746
1811.39	21.9435
1811.64	20.9829
1811.9	21.9527
1812.15	19.0561
1812.4	20.9893
1812.65	20.0224
1812.91	20.0214
1813.16	20.0205
1813.41	20.0193
1813.67	22.9195
1813.92	22.9175
1814.17	20.0148
1814.43	23.8727
1814.68	20.9612
1814.93	18.0582
1815.19	19.9896
1815.44	21.9239
1815.69	18.063
1815.95	20.9606
1816.2	17.093
1816.45	19.992
1816.7	19.9926
1816.96	18.0592
1817.21	19.0257
1817.46	18.0592
1817.72	19.0267
1817.97	24.8295
1818.22	20.9611
1818.47	19.9948
1818.73	19.996
1818.98	19.029
1819.23	22.9004
1819.49	19.9966
1819.74	19.9958
1819.99	18.0588
1820.24	19.9938
1820.5	19.9906
1820.75	18.0509
1821	18.047
1821.26	20.9491
1821.51	20.949
1821.76	21.9169
1822.01	20.9487
1822.27	19.0124
1822.52	16.1073
1822.77	22.8851
1823.03	19.978
1823.28	19.9758
1823.53	19.006
1823.78	20.9414
1824.04	19.9715
1824.29	20.9397
1824.54	23.8459
1824.79	20.9402
1825.05	19.9712
1825.3	20.9373
1825.55	21.9034
1825.8	20.9298
1826.06	21.8934
1826.31	18.0157
1826.56	20.9188
1826.81	20.9158
1827.07	22.8493
1827.32	18.0026
1827.57	19.9352
1827.82	18.9628
1828.08	21.8664
1828.33	18.9625
1828.58	19.9315
1828.83	22.8379
1829.09	21.87
1829.34	18.9645
1829.59	20.9031
1829.84	21.8751
1830.1	19.9368
1830.35	18.9652
1830.6	25.7492
1830.85	17.9946
1831.11	18.9625
1831.36	19.9313
1831.61	22.8288
1831.86	23.7822
1832.12	16.9921
1832.37	16.9825
1832.62	20.8462
1832.87	18.9043
1833.13	19.8703
1833.38	17.9364
1833.63	21.9077
1833.88	20.8987
1834.13	20.8727
1834.39	20.8638
1834.64	17.9405
1834.89	18.8945
1835.14	19.8393
1835.39	24.6592
1835.65	18.8651
1835.9	18.8977
1836.15	16.9668
1836.4	17.939
1836.65	23.753
1836.91	18.9091
1837.16	20.846
1837.41	20.8224
1837.66	18.872
1837.92	20.7932
1838.17	22.7142
1838.42	21.7354
1838.67	22.6896
1838.92	18.8173
1839.18	18.8085
1839.43	18.8001
1839.68	20.7232
1839.93	18.7949
1840.18	18.7917
1840.43	18.7914
1840.69	19.7536
1840.94	21.6802
1841.19	18.7828
1841.44	20.7106
1841.7	19.746
1841.95	20.7078
1842.2	19.739
1842.45	21.6668
1842.7	21.6676
1842.95	17.8145
1843.2	21.6822
1843.46	19.759
1843.71	19.763
1843.96	22.6407
1844.21	15.8557
1844.46	20.6478
1844.72	17.7534
1844.97	21.6057
1845.22	23.5413
1845.47	20.6522
1845.72	19.6781
1845.97	20.6357
1846.23	19.67
1846.48	20.626
1846.73	19.6555
1846.98	20.6095
1847.23	23.4854
1847.48	20.5913
1847.74	19.6222
1847.99	20.5762
1848.24	18.6486
1848.49	16.7223
1848.74	18.6386
1848.99	18.635
1849.25	18.6324
1849.5	19.5905
1849.75	21.509
1850	19.5864
1850.25	21.5039
1850.5	20.5402
1850.75	17.6553
1851.01	21.4883
1851.26	14.7634
1851.51	22.4297
1851.76	15.7096
1852.01	22.4175
1852.26	20.4938
1852.51	15.693
1852.76	17.6024
1853.02	20.4718
1853.27	19.5101
1853.52	18.5497
1853.77	15.6744
1854.02	20.461
1854.27	20.4579
1854.52	19.4959
1854.78	18.5341
1855.03	20.4445
1855.28	23.3106
1855.53	21.3894
1855.78	20.4255
1856.03	20.4187
1856.28	18.4987
1856.53	20.4041
1856.79	17.5315
1857.04	19.4419
1857.29	17.5275
1857.54	20.3959
1857.79	16.573
1858.04	19.4428
1858.29	21.3572
1858.54	18.4891
1858.79	21.3604
1859.04	18.4877
1859.3	21.3548
1859.55	21.3489
1859.8	19.4289
1860.05	20.3784
1860.3	18.4593
1860.55	20.3647
1860.8	19.4027
1861.05	21.3079
1861.3	19.3913
1861.56	18.4308
1861.81	13.6505
1862.06	20.3287
1862.31	19.3665
1862.56	17.4499
1862.81	17.4418
1863.06	17.4325
1863.31	21.2353
1863.56	19.3186
1863.81	18.3562
1864.06	22.1538
1864.32	18.3367
1864.57	19.279
1864.82	20.2227
1865.07	19.2672
1865.32	23.0658
1865.57	20.2107
1865.82	18.3083
1866.07	22.1102
1866.32	19.2553
1866.57	20.2027
1866.82	18.2982
1867.07	20.1962
1867.32	19.2426
1867.57	17.3388
1867.83	19.2369
1868.08	19.2345
1868.33	21.1328
1868.58	19.2281
1868.83	17.3233
1869.08	21.118
1869.33	21.1139
1869.58	23.0091
1869.83	18.2541
1870.08	21.0968
1870.33	21.0924
1870.58	20.1404
1870.83	18.2379
1871.08	17.2838
1871.33	17.2782
1871.58	19.1694
1871.84	18.2139
1872.08	18.207
1872.33	20.0956
1872.59	22.9303
1872.84	19.1299
1873.09	21.0105
1873.34	20.0552
1873.59	20.9934
1873.84	16.2572
1874.09	20.0347
1874.34	17.1852
1874.59	20.9484
1874.84	23.7609
1875.09	19.0733
1875.34	21.0216
1875.59	20.9808
1875.84	23.8137
1876.09	20.9763
1876.34	20.0471
1876.59	20.0494
1876.84	17.1986
1877.09	19.0861
1877.34	20.0302
1877.59	19.0815
1877.84	20.9758
1878.09	18.1291
1878.34	20.9643
1878.59	20.9524
1878.84	21.8853
1879.09	20.9267
1879.34	19.9682
1879.59	19.9535
1879.84	19.9397
1880.1	20.8726
1880.34	19.9572
1880.59	19.0793
1880.84	18.0524
1881.1	20.8457
1881.34	19.9076
1881.59	20.8534
1881.84	20.8458
1882.1	18.967
1882.34	18.9726
1882.59	19.9168
1882.85	18.0323
1883.1	19.9261
1883.34	18.0396
1883.59	20.8722
1883.85	19.9214
1884.09	22.7439
1884.34	20.8492
1884.59	21.7856
1884.84	18.005
1885.09	20.8271
1885.34	19.8754
1885.59	22.6927
1885.84	21.7409
1886.09	22.6733
1886.34	20.7821
1886.59	19.8365
1886.84	18.892
1887.09	19.8313
1887.34	17.9493
1887.59	18.8936
1887.84	18.8949
1888.09	17.9516
1888.34	18.89
1888.59	21.7123
1888.84	21.7094
1889.09	17.9391
1889.34	18.8782
1889.59	18.8746
1889.84	15.1037
1890.09	20.7452
1890.34	18.8519
1890.59	16.9586
1890.84	19.7687
1891.09	20.7096
1891.34	20.7049
1891.59	19.7571
1891.84	15.0546
1892.09	21.6282
1892.34	18.8088
1892.59	17.8688
1892.83	18.8085
1893.08	20.6884
1893.33	20.6893
1893.58	19.7511
1893.83	17.8723
1894.08	23.5159
1894.33	21.6356
1894.58	23.5166
1894.83	21.634
1895.08	17.8689
1895.33	19.7465
1895.58	17.8608
1895.83	17.8552
1896.08	18.7887
1896.33	19.7217
1896.58	17.8373
1896.83	18.7729
1897.08	17.8285
1897.32	17.8249
1897.57	16.8832
1897.82	17.8217
1898.07	17.8218
1898.32	20.6426
1898.57	15.0053
1898.82	19.707
1899.07	21.5895
1899.32	19.7126
1899.57	19.7134
1899.82	21.5917
1900.07	19.7067
1900.31	20.6427
1900.57	19.698
1900.81	23.4555
1901.06	17.8106
1901.31	20.6285
1901.56	18.7455
1901.81	19.6828
1902.06	18.7395
1902.31	18.7371
1902.56	21.5549
1902.81	17.791
1903.06	18.7209
1903.31	21.5326
1903.55	21.5278
1903.8	19.6449
1904.05	19.641
1904.3	20.5767
1904.55	18.6979
1904.8	20.5748
1905.05	19.6379
1905.3	20.5783
1905.55	20.5774
1905.79	15.879
1906.04	19.6379
1906.29	20.5792
1906.54	19.6418
1906.79	19.6453
1907.04	19.6497
1907.29	17.7726
1907.54	24.3662
1907.79	18.7219
1908.04	18.7237
1908.28	19.6662
1908.53	15.898
1908.78	17.7803
1909.03	20.6038
1909.28	22.4835
1909.53	20.5968
1909.78	16.8271
1910.03	19.6507
1910.27	19.6487
1910.52	17.7641
1910.77	18.708
1911.02	18.7124
1911.27	20.6016
1911.52	17.775
1911.77	21.5496
1912.02	18.7224
1912.26	19.6675
1912.51	20.6115
1912.76	21.5538
1913.01	17.7762
1913.26	16.8289
1913.51	22.4874
1913.76	17.7639
1914	20.5875
1914.25	17.7531
1914.5	20.5771
1914.75	22.4587
1915	17.7421
1915.25	20.5697
1915.49	14.9137
1915.74	21.5178
1915.99	19.6352
1916.24	17.752
1916.49	22.4764
1916.74	18.7072
1916.99	19.6556
1917.23	17.7666
1917.48	20.5993
1917.73	19.6487
1917.98	16.816
1918.23	17.7642
1918.48	21.5488
1918.72	17.7667
1918.97	21.5506
1919.22	21.5497
1919.47	19.6556
1919.72	21.5427
1919.97	20.5913
1920.21	18.6958
1920.46	18.6922
1920.71	16.7982
1920.96	16.7944
1921.21	20.5695
1921.46	21.5083
1921.7	20.5596
1921.95	19.6126
1922.2	21.5017
1922.45	17.7235
1922.7	15.8355
1922.94	19.6209
1923.19	19.6242
1923.44	22.4656
1923.69	19.6314
1923.94	17.7424
1924.19	18.6904
1924.43	16.7974
1924.68	19.6389
1924.93	19.6394
1925.18	19.6397
1925.43	17.745
1925.67	20.5867
1925.92	21.5353
1926.17	22.484
1926.42	20.5905
1926.66	19.6457
1926.91	16.8049
1927.16	23.448
1927.41	18.7085
1927.66	17.7619
1927.91	19.6631
1928.15	15.864
1928.4	19.6598
1928.65	25.3518
1928.9	16.8032
1929.15	18.697
1929.39	23.4371
1929.64	16.7897
1929.89	19.6316
1930.14	19.6285
1930.38	20.573
1930.63	19.6254
1930.88	19.6309
1931.13	18.6906
1931.37	19.653
1931.62	21.5719
1931.87	15.8766
1932.12	21.602
1932.37	18.7533
1932.61	19.7134
1932.86	17.8055
1933.11	16.8386
1933.36	18.7425
1933.61	20.6447
1933.85	20.6394
1934.1	16.8221
1934.35	15.8635
1934.6	20.6191
1934.84	19.6607
1935.09	16.7994
1935.34	20.6014
1935.59	23.4571
1935.83	21.5587
1936.08	16.7979
1936.33	19.6559
1936.58	16.7995
1936.82	17.7526
1937.07	19.6587
1937.32	21.5642
1937.57	22.5212
1937.81	19.6673
1938.06	17.7698
1938.31	23.4983
1938.56	16.8149
1938.8	20.6255
1939.05	16.7995
1939.3	17.7449
1939.55	16.8007
1939.79	15.8586
1940.04	22.5426
1940.29	16.8096
1940.54	19.6627
1940.78	19.6521
1941.03	19.6492
1941.28	18.7045
1941.52	18.7061
1941.77	20.6181
1942.02	17.7559
1942.27	21.5798
1942.51	18.7167
1942.76	16.8078
1943.01	19.6775
1943.26	17.7667
1943.5	13.9421
1943.75	22.549
1944	21.5914
1944.24	17.7628
1944.49	21.5842
1944.74	19.668
1944.99	19.6657
1945.23	20.6197
1945.48	19.6608
1945.73	18.7018
1945.97	18.7017
1946.22	19.66
1946.47	18.7056
1946.71	19.6649
1946.96	18.7111
1947.21	17.7579
1947.46	19.6798
1947.7	18.7283
1947.95	15.8576
1948.2	17.7803
1948.44	17.7859
1948.69	16.8308
1948.94	16.8335
1949.19	20.6754
1949.43	20.6768
1949.68	20.6768
1949.93	16.8337
1950.17	18.7568
1950.42	18.7561
1950.67	17.7873
1950.91	19.6964
1951.16	18.7222
1951.41	17.7505
1951.65	21.5727
1951.9	19.6468
1952.15	16.7688
1952.39	19.6411
1952.64	20.6009
1952.89	18.689
1953.14	18.6976
1953.38	17.747
1953.63	14.871
1953.88	20.6338
1954.12	20.6361
1954.37	18.718
1954.62	20.6414
1954.86	17.7605
1955.11	21.605
1955.36	18.7218
1955.6	19.6822
1955.85	16.7968
1956.1	16.7926
1956.34	18.7095
1956.59	19.6669
1956.84	19.6632
1957.08	20.6186
1957.33	19.6527
1957.58	17.7268
1957.82	20.6019
1958.07	20.5959
1958.31	19.6305
1958.56	20.5853
1958.81	18.6629
1959.05	22.5006
1959.3	19.6205
1959.55	16.74
1959.79	18.6584
1960.04	21.5369
1960.29	19.6159
1960.53	19.6147
1960.78	19.6135
1961.03	24.4135
1961.27	19.6136
1961.52	18.6526
1961.77	20.5702
1962.01	14.8062
1962.26	17.6847
1962.5	18.6426
1962.75	19.6018
1963	20.563
1963.24	18.6443
1963.49	22.49
1963.74	22.4926
1963.98	19.6108
1964.23	18.6489
1964.48	20.5689
1964.72	16.7229
1964.97	18.6449
1965.21	19.6048
1965.46	22.4878
1965.71	15.7552
1965.95	18.6348
1966.2	18.6287
1966.44	16.6998
1966.69	18.6128
1966.94	21.4853
1967.18	20.5181
1967.43	19.5522
1967.68	23.3861
1967.92	17.6226
1968.17	18.5775
1968.41	19.5327
1968.66	19.5287
1968.91	22.4031
1969.15	17.6077
1969.4	16.6479
1969.64	19.5245
1969.89	19.5217
1970.14	18.5581
1970.38	18.5523
1970.63	20.4635
1970.87	22.3753
1971.12	15.6606
1971.37	17.5745
1971.61	17.572
1971.86	20.4459
1972.1	17.5693
1972.35	20.4452
1972.6	19.4875
1972.84	18.5297
1973.09	19.4892
1973.33	14.6932
1973.58	18.5289
1973.82	23.3237
1974.07	16.6067
1974.32	17.5632
1974.56	18.5187
1974.81	18.5141
1975.05	19.4677
1975.3	20.4212
1975.55	19.4579
1975.79	23.2879
1976.04	19.451
1976.28	19.4493
1976.53	12.7384
1976.77	20.4046
1977.02	18.4865
1977.26	19.4428
1977.51	17.521
1977.76	18.4737
1978	19.4269
1978.25	16.5492
1978.49	19.418
1978.74	22.2877
1978.98	16.5377
1979.23	17.4929
1979.48	20.3628
1979.72	17.4841
1979.97	18.4363
1980.21	22.2574
1980.46	18.4213
1980.7	22.2425
1980.95	19.3691
1981.19	19.3655
1981.44	19.3613
1981.69	21.2699
1981.93	19.3533
1982.18	17.4348
1982.42	18.3838
1982.67	19.3364
1982.91	17.4236
1983.16	20.2907
1983.4	17.4241
1983.65	20.2936
1983.89	16.4675
1984.14	18.377
1984.38	20.289
1984.63	19.325
1984.88	20.2725
1985.12	18.3521
1985.37	17.3873
1985.61	17.376
1985.86	18.3132
1986.1	19.2519
1986.35	23.0487
1986.59	19.2255
1986.84	20.1698
1987.08	20.1642
1987.33	19.2106
1987.57	19.2119
1987.82	23.029
1988.06	18.2697
1988.31	23.0373
1988.55	20.1842
1988.8	18.2825
1989.04	21.1215
1989.29	17.4137
1989.53	22.0002
1989.78	20.1622
1990.02	20.1126
1990.27	18.2958
1990.52	23.6341
1990.76	18.4112
1991.01	20.229
1991.25	19.4345
1991.49	19.3448
1991.74	22.5225
1991.99	18.39
1992.23	19.0808
1992.47	19.687
1992.72	19.2624
1992.97	18.8389
1993.21	22.9572
1993.45	21.1349
1993.7	16.7129
1993.95	19.5604
1994.19	20.8173
1994.43	17.7119
1994.68	18.2005
1994.93	17.9499
1995.17	18.0455
1995.41	20.0365
1995.66	19.0899
1995.9	18.6598
1996.15	17.4004
1996.39	19.6177
1996.64	19.9667
1996.88	20.2209
1997.13	20.2659
1997.37	18.3165
1997.62	19.8979
1997.86	19.3814
1998.11	18.2493
1998.35	20.1052
1998.6	18.3398
1998.84	20.3036
1999.09	18.9116
1999.33	19.5397
1999.57	19.5721
1999.82	16.514
2000.06	19.6563
2000.31	18.2909
2000.55	20.1708
2000.8	20.1486
2001.04	17.8102
2001.29	17.6779
2001.53	20.0294
2001.78	20.0251
2002.02	20.0976
2002.27	19.2867
2002.51	19.0702
2002.75	21.272
2003	18.3773
2003.24	19.6647
2003.49	19.3416
2003.73	19.4287
2003.98	17.1875
2004.22	19.1059
2004.47	19.823
2004.71	20.2411
2004.95	19.3485
2005.2	19.2707
2005.44	18.4231
2005.69	20.3546
2005.93	19.6538
2006.18	19.0437
2006.42	17.9677
2006.66	17.1893
2006.91	18.2542
2007.15	18.8767
2007.4	20.1603
2007.64	19.2287
2007.89	18.55
2008.13	16.9035
2008.38	18.783
2008.62	19.4751
2008.86	18.3665
2009.11	18.319
2009.35	19.0706
2009.6	18.0577
2009.84	17.9898
2010.08	19.9046
2010.33	19.8135
2010.57	20.1379
2010.82	19.8328
2011.06	19.3841
2011.3	18.6024
2011.55	17.6762
2011.79	19.3008
2012.04	17.7453
2012.18	15.5388
2012.43	19.2944
2012.68	18.3583
2012.93	19.2988
2013.17	17.4197
2013.42	21.1755
2013.67	18.3731
2013.91	21.1955
2014.16	22.1337
2014.41	18.3712
2014.66	20.2456
2014.9	21.1784
2015.15	19.2924
2015.4	16.4686
2015.64	19.2764
2015.89	19.2691
2016.14	20.1985
2016.38	16.4424
2016.63	18.3119
2016.88	21.1192
2017.13	15.4967
2017.37	19.2422
2017.62	19.2408
2017.87	20.1759
2018.11	22.0492
2018.36	19.2401
2018.61	18.3031
2018.86	18.3017
2019.1	19.2361
2019.35	18.2966
2019.6	20.1652
2019.84	17.3519
2020.09	21.0897
2020.34	19.2133
2020.58	19.2087
2020.83	19.204
2021.08	22.0041
2021.32	20.1297
2021.57	16.3854
2021.82	16.3793
2022.06	17.3072
2022.31	20.1018
2022.56	22.8952
2022.8	21.9554
2023.05	16.3516
2023.3	20.0822
2023.54	20.0882
2023.79	17.2984
2024.04	16.3759
2024.28	19.1938
2024.53	18.2683
2024.78	20.1381
2025.02	17.3212
2025.27	20.1085
2025.52	20.9915
2025.76	21.0298
2026.01	18.2924
2026.26	20.1378
2026.5	21.0885
2026.75	16.381
2027	18.2306
2027.24	19.1411
2027.49	18.2074
2027.74	18.1899
2027.98	20.0663
2028.23	16.3465
2028.48	17.2763
2028.72	17.2758
2028.97	17.275
2029.22	20.0791
2029.46	18.2175
2029.71	22.8933
2029.96	18.2287
2030.2	21.0365
2030.45	18.2356
2030.69	20.11
2030.94	20.1145
2031.19	20.1035
2031.43	18.2232
2031.68	21.0027
2031.93	18.1956
2032.17	19.1361
2032.42	16.3408
2032.66	19.1505
2032.91	19.1638
2033.16	20.1085
2033.4	22.9159
2033.65	21.0326
2033.9	18.2266
2034.14	17.2961
2034.39	19.1654
2034.63	21.0341
2034.88	20.0966
2035.13	18.224
2035.37	18.2209
2035.62	18.2175
2035.87	18.2141
2036.11	20.0791
2036.36	21.0093
2036.6	17.2694
2036.85	21.0002
2037.1	20.9939
2037.34	20.9876
2037.59	17.2498
2037.83	19.1106
2038.08	19.106
2038.33	19.1021
2038.57	18.1674
2038.82	17.2336
2039.06	21.8914
2039.31	20.956
2039.56	19.0879
2039.8	18.1535
2040.05	21.8796
2040.3	18.1534
2040.54	19.0891
2040.79	18.1633
2041.03	19.1027
2041.28	16.3069
2041.52	18.1717
2041.77	19.1
2042.02	19.0915
2042.26	20.9389
2042.51	18.1587
2042.75	18.1676
2043	20.056
2043.25	18.2163
2043.49	20.0775
2043.74	20.9911
2043.98	19.1081
2044.23	16.306
2044.47	19.1013
2044.72	19.087
2044.97	19.0808
2045.21	20.945
2045.46	20.9454
2045.7	20.0137
2045.95	17.2177
2046.19	17.2213
2046.44	19.0898
2046.69	18.1612
2046.93	22.8342
2047.18	17.2375
2047.42	19.1096
2047.67	19.1122
2047.91	17.2443
2048.16	17.2428
2048.41	18.1732
2048.65	20.0351
2048.9	15.3649
2049.14	19.0996
2049.39	20.0354
2049.63	20.9698
2049.88	18.1693
2050.12	19.1057
2050.37	21.9118
2050.62	20.0472
2050.86	19.1206
2051.11	20.0592
2051.35	17.2552
2051.6	19.1262
2051.84	18.1898
2052.09	19.1237
2052.33	21.9283
2052.58	19.1169
2052.82	19.114
2053.07	19.1126
2053.31	19.1103
2053.56	18.1728
2053.8	20.0404
2054.05	20.9742
2054.3	18.1702
2054.54	19.1057
2054.79	20.0422
2055.03	20.0447
2055.28	19.1115
2055.52	16.3092
2055.77	17.2478
2056.01	18.1867
2056.26	18.1891
2056.5	18.1896
2056.75	17.2537
2056.99	17.2539
2057.24	20.9956
2057.48	20.0561
2057.73	19.1169
2057.97	19.1183
2058.22	19.1205
2058.46	20.0581
2058.71	18.186
2058.95	21.9309
2059.2	17.2494
2059.45	18.1863
2059.69	19.124
2059.94	19.1259
2060.18	20.0654
2060.43	20.0682
2060.67	18.1961
2060.92	18.1975
2061.16	19.1357
2061.4	20.074
2061.65	19.138
2061.9	17.2649
2062.14	19.1435
2062.39	20.0868
2062.63	19.1533
2062.88	18.2187
2063.12	21.0382
2063.37	19.1626
2063.61	19.1631
2063.86	20.1032
2064.1	18.2266
2064.34	19.1668
2064.59	17.2896
2064.83	18.2314
2065.08	18.2333
2065.32	21.0543
2065.57	18.2353
2065.81	19.177
2066.06	18.2372
2066.3	22.9341
2066.55	21.9878
2066.79	19.1602
2067.04	17.2772
2067.28	18.217
2067.53	20.1022
2067.77	19.1715
2068.02	18.2399
2068.26	19.1802
2068.51	18.2339
2068.75	18.2497
2069	18.2593
2069.24	18.2579
2069.48	20.1391
2069.73	20.1378
2069.97	19.1942
2070.22	21.0763
2070.46	15.4259
2070.71	18.2503
2070.95	21.075
2071.2	20.1339
2071.44	22.9605
2071.69	21.0802
2071.93	19.2006
2072.18	17.3214
2072.42	19.2138
2072.66	20.1664
2072.91	18.2857
2073.15	20.1767
2073.4	19.2329
2073.64	20.1772
2073.89	20.1748
2074.13	21.1141
2074.38	20.1654
2074.62	17.3265
2074.87	19.2093
2075.11	17.3244
2075.35	19.2141
2075.6	19.2152
2075.84	17.3292
2076.09	17.3309
2076.33	19.2214
2076.58	16.3973
2076.82	23.0115
2077.06	21.1255
2077.31	18.2937
2077.55	18.2956
2077.8	19.2406
2078.04	22.0728
2078.29	22.0706
2078.53	18.2899
2078.77	19.2341
2079.02	16.3982
2079.26	21.123
2079.51	18.2893
2079.75	17.3448
2080	17.3446
2080.24	20.1787
2080.48	19.2324
2080.73	22.0658
2080.97	19.2303
2081.22	18.2851
2081.46	17.3393
2081.7	21.1187
2081.95	20.1738
2082.19	19.2285
2082.44	19.2277
2082.68	18.2823
2082.93	19.2275
2083.17	18.2862
2083.41	21.1281
2083.66	18.2952
2083.9	21.1343
2084.14	20.19
2084.39	17.3539
2084.63	20.1944
2084.88	19.2475
2085.12	19.2472
2085.36	20.1935
2085.61	22.0867
2085.85	23.0338
2086.1	14.5152
2086.34	23.0369
2086.58	21.1464
2086.83	19.2568
2087.07	22.1002
2087.32	18.3115
2087.56	15.4701
2087.8	17.3657
2088.05	17.3669
2088.29	21.1589
2088.54	20.2128
2088.78	17.3728
2089.02	20.2221
2089.27	20.2277
2089.51	20.2335
2089.75	18.3412
2090	20.2447
2090.24	21.1988
2090.48	21.2035
2090.73	20.2578
2090.97	18.3604
2091.22	18.3632
2091.46	22.1669
2091.7	19.3141
2091.95	21.2141
2092.19	18.3601
2092.43	19.3072
2092.68	21.2038
2092.92	19.2998
2093.17	17.3968
2093.41	20.2449
2093.65	22.1434
2093.9	21.1921
2094.14	17.3896
2094.38	20.2346
2094.63	18.331
2094.87	20.2275
2095.11	16.4286
2095.36	21.1737
2095.6	18.3224
2095.84	14.5254
2096.09	15.4735
2096.33	23.0645
2096.57	18.3177
2096.82	19.2657
2097.06	19.2653
2097.3	15.469
2097.55	20.2147
2097.79	21.1648
2098.03	17.3717
2098.28	17.3746
2098.52	16.4264
2098.76	17.3767
2099.01	18.326
2099.25	20.2245
2099.5	16.4248
2099.74	17.3732
2099.98	17.37
2100.22	20.2141
2100.47	18.3124
2100.71	19.2607
2100.95	22.1065
2101.2	18.3092
2101.44	21.1579
2101.68	17.3626
2101.93	19.2638
2102.17	18.316
2102.41	18.3185
2102.66	17.3717
2102.9	18.3249
2103.14	20.2271
2103.39	18.3275
2103.63	18.3279
2103.87	20.2293
2104.12	18.329
2104.36	19.2801
2104.6	17.3761
2104.85	19.2735
2105.09	19.2681
2105.33	20.2123
2105.57	20.2064
2105.82	18.3022
2106.06	20.1989
2106.3	19.2493
2106.55	19.253
2106.79	17.357
2107.03	17.3566
2107.27	17.356
2107.52	18.3054
2107.76	21.1547
2108	17.3541
2108.25	17.3534
2108.49	18.3017
2108.73	18.2987
2108.98	22.0949
2109.22	19.244
2109.46	17.3439
2109.7	18.2945
2109.95	21.1453
2110.19	19.2472
2110.43	22.1014
2110.68	21.1552
2110.92	20.2063
2111.16	18.3039
2111.4	20.2024
2111.65	18.3005
2111.89	20.2014
2112.13	18.3005
2112.38	18.2991
2112.62	20.1976
2112.86	17.3447
2113.1	20.1931
2113.35	17.3389
2113.59	17.335
2113.83	16.3829
2114.07	18.2807
2114.32	21.1281
2114.56	19.2289
2114.8	20.1763
2115.04	18.2738
2115.29	20.1687
2115.53	17.3161
2115.77	21.1054
2116.01	18.2544
2116.26	20.1466
2116.5	19.1938
2116.74	18.2414
2116.99	19.1852
2117.23	19.1818
2117.47	18.2324
2117.71	19.1798
2117.96	18.2343
2118.2	22.0267
2118.44	19.1866
2118.68	19.1906
2118.92	21.0911
2119.17	20.1461
2119.41	20.1493
2119.65	20.1517
2119.9	18.2555
2120.14	19.2063
2120.38	19.2073
2120.62	18.2581
2120.86	20.1549
2121.11	18.2537
2121.35	18.2502
2121.59	17.2963
2121.83	19.1861
2122.08	19.1765
2122.32	22.0102
2122.56	18.2131
2122.8	20.1009
2123.04	18.2012
2123.29	16.3029
2123.53	20.0839
2123.77	21.9711
2124.01	21.0201
2124.26	21.0149
2124.5	21.0124
2124.74	21.0107
2124.98	18.1727
2125.22	19.1154
2125.47	17.2229
2125.71	20.0581
2125.95	19.1124
2126.19	19.1111
2126.44	19.109
2126.68	21.9423
2126.92	17.2154
2127.16	18.159
2127.4	20.0473
2127.65	18.1554
2127.89	23.8219
2128.13	21.9291
2128.37	17.2026
2128.61	20.9769
2128.86	20.9733
2129.1	18.1381
2129.34	20.0237
2129.58	19.0755
2129.82	21.9024
2130.06	19.0687
2130.31	20.0112
2130.55	19.0678
2130.79	21.8989
2131.03	18.1238
2131.27	20.0113
2131.52	21.899
2131.76	23.7854
2132	19.0654
2132.24	21.8954
2132.48	17.1754
2132.73	20.9475
2132.97	20.9435
2133.21	14.3349
2133.45	21.8727
2133.69	20.9259
2133.94	17.1549
2134.18	21.8691
2134.42	19.0404
2134.66	20.9274
2134.9	19.0448
2135.14	19.0436
2135.39	19.9805
2135.63	20.9181
2135.87	19.9776
2136.11	20.9264
2136.35	21.8741
2136.59	19.036
2136.84	20.9122
2137.08	18.0811
2137.32	15.2513
2137.56	18.0748
2137.8	20.898
2138.04	18.0701
2138.28	18.0681
2138.53	20.8929
2138.77	18.0638
2139.01	19.0005
2139.25	17.1154
2139.49	18.9973
2139.74	17.117
2139.98	19.0024
2140.22	15.2462
2140.46	19.0103
2140.7	18.0266
2140.94	20.8396
2141.18	18.9639
2141.43	15.2088
2141.67	17.0942
2141.91	18.9785
2142.15	18.0283
2142.39	17.0876
2142.63	17.088
2142.87	18.967
2143.12	20.8452
2143.36	18.9627
2143.6	18.0205
2143.84	18.0184
2144.08	18.9559
2144.32	18.9527
2144.56	20.8287
2144.8	20.8256
2145.05	19.8834
2145.29	16.1235
2145.53	20.8167
2145.77	18.9354
2146.01	21.7486
2146.25	20.805
2146.49	18.9226
2146.73	19.8525
2146.98	19.8472
2147.22	19.8412
2147.46	22.6487
2147.7	17.9591
2147.94	17.0207
2148.18	17.9587
2148.42	19.8361
2148.66	16.0869
2148.9	18.9022
2149.15	17.9648
2149.39	18.9051
2149.63	17.026
2149.87	18.8985
2150.11	20.7696
2150.35	17.9532
2150.59	20.763
2150.83	16.0745
2151.07	19.8196
2151.31	22.6249
2151.56	17.9341
2151.8	16.9898
2152.04	19.79
2152.28	20.7157
2152.52	20.7086
2152.76	20.7017
2153	21.6303
2153.24	20.6912
2153.48	16.9514
2153.72	18.8184
2153.97	20.6855
2154.21	17.8824
2154.45	19.7514
2154.69	19.7534
2154.93	18.8218
2155.17	17.8897
2155.41	19.7593
2155.65	19.7586
2155.89	17.8878
2156.13	20.6895
2156.37	18.8174
2156.61	16.9451
2156.86	20.6778
2157.1	17.8704
2157.34	18.799
2157.58	18.7943
2157.82	21.5898
2158.06	21.5866
2158.3	18.7855
2158.54	16.9171
2158.78	20.6466
2159.02	19.7122
2159.26	19.7115
2159.5	16.9122
2159.74	18.7772
2159.98	20.6407
2160.22	12.2429
2160.47	17.8366
2160.71	17.8342
2160.95	22.4937
2161.19	15.9643
2161.43	20.6211
2161.67	20.615
2161.91	17.8158
2162.15	22.4741
2162.39	17.8168
2162.63	18.7482
2162.87	15.9523
2163.11	18.7474
2163.35	17.8131
2163.59	19.6738
2163.83	18.7388
2164.07	15.9405
2164.31	19.6623
2164.55	18.7264
2164.79	19.651
2165.03	17.7808
2165.27	17.7722
2165.51	20.5575
2165.76	18.6969
2166	19.6269
2166.24	17.7691
2166.48	15.9119
2166.72	18.7064
2166.96	17.7814
2167.2	18.7184
2167.44	16.8598
2167.68	19.6547
2167.92	21.5154
2168.16	18.7176
2168.4	19.6461
2168.64	17.7769
2168.88	16.8344
2169.12	18.6865
2169.36	19.6116
2169.6	16.8198
2169.84	16.8169
2170.08	17.7447
2170.32	18.6729
2170.56	18.672
2170.8	21.46
2171.04	20.5327
2171.28	22.3928
2171.52	17.7462
2171.76	17.7459
2172	20.5333
2172.24	19.603
2172.48	16.8131
2172.72	14.0236
2172.96	16.8102
2173.2	15.8795
2173.44	19.5942
2173.68	21.4484
2173.92	18.6595
2174.16	17.73
2174.4	20.5167
2174.64	20.5165
2174.88	20.5153
2175.12	18.6576
2175.36	18.6555
2175.6	16.7925
2175.84	16.7884
2176.08	16.7872
2176.32	17.7158
2176.56	19.5725
2176.8	18.6435
2177.04	18.6428
2177.28	19.5706
2177.52	18.641
2177.76	19.5676
2178	15.8522
2178.24	18.6362
2178.48	17.7062
2178.72	16.7753
2178.96	20.485
2179.2	15.8433
2179.44	18.6243
2179.68	16.7663
2179.92	17.692
2180.16	20.4706
2180.4	18.6109
2180.64	17.6778
2180.88	21.3808
2181.12	15.8165
2181.35	17.6667
2181.59	18.5917
2181.83	21.3713
2182.07	16.7394
2182.31	17.6668
2182.55	19.5211
2182.79	19.5228
2183.03	18.5982
2183.27	16.7465
2183.51	18.6035
2183.75	17.6803
2183.99	17.685
2184.23	20.4742
2184.47	16.7653
2184.71	20.4834
2184.95	18.6266
2185.19	19.5528
2185.43	19.5489
2185.67	18.6162
2185.91	18.6116
2186.15	18.6067
2186.38	16.7457
2186.62	18.5945
2186.86	17.6614
2187.1	17.6585
2187.34	19.5109
2187.58	16.7298
2187.82	17.6574
2188.06	20.44
2188.3	17.6578
2188.54	18.5853
2188.78	19.5135
2189.02	16.7325
2189.26	17.6608
2189.5	20.4443
2189.74	21.3731
2189.97	20.4481
2190.21	18.5952
2190.45	16.7413
2190.69	16.7443
2190.93	19.5365
2191.17	19.5454
2191.41	19.5512
2191.65	19.5542
2191.89	20.4826
2192.13	19.5499
2192.37	13.0413
2192.61	15.8266
2192.85	19.5392
2193.08	21.3909
2193.32	21.383
2193.56	17.6626
2193.8	18.5856
2194.04	19.5093
2194.28	21.3607
2194.52	17.6469
2194.76	17.6461
2195	19.5012
2195.24	18.5748
2195.47	20.4342
2195.71	16.7263
2195.95	17.6589
2196.19	17.6643
2196.43	16.7398
2196.67	18.6031
2196.91	19.5382
2197.15	16.7565
2197.39	21.4176
2197.63	17.7029
2197.86	17.7094
2198.1	19.5775
2198.34	19.5817
2198.58	21.4373
2198.82	14.901
2199.06	18.5855
2199.3	18.5574
2199.54	18.5661
2199.78	14.8794
2200.01	20.4729
2200.25	25.1165
2200.49	19.5319
2200.73	19.5428
2200.97	15.8761
2201.21	18.6527
2201.45	19.5824
2201.69	20.5187
2201.92	17.7088
2202.16	18.6236
2202.4	19.5388
2202.64	17.6672
2202.88	20.4529
2203.12	16.7336
2203.36	17.6667
2203.59	18.5975
2203.83	16.7302
2204.07	18.5899
2204.31	18.592
2204.55	16.7347
2204.79	16.7375
2205.03	17.6709
2205.27	20.4659
2205.5	19.5386
2205.74	18.6106
2205.98	16.7504
2206.22	19.5453
2206.46	18.6146
2206.7	18.6142
2206.93	18.6131
2207.17	20.4757
2207.41	17.6833
2207.65	21.4115
2207.89	17.6874
2208.13	16.7577
2208.37	17.6917
2208.6	14.8974
2208.84	17.6971
2209.08	18.633
2209.32	18.6352
2209.56	18.6362
2209.8	21.4328
2210.03	18.632
2210.27	19.5622
2210.51	19.5588
2210.75	20.4868
2210.99	17.6901
2211.23	18.6254
2211.47	17.6991
2211.7	22.3723
2211.94	20.5073
2212.18	13.9739
2212.42	19.5757
2212.66	18.6424
2212.89	18.6423
2213.13	16.7745
2213.37	17.7074
2213.61	14.9054
2213.85	18.6385
2214.09	16.7701
2214.32	20.5037
2214.56	17.703
2214.8	16.7696
2215.04	18.6363
2215.28	19.5692
2215.51	14.9009
2215.75	19.5707
2215.99	18.6388
2216.23	18.6415
2216.47	17.7101
2216.71	18.6459
2216.94	20.5166
2217.18	19.5836
2217.42	19.5826
2217.66	15.8429
2217.9	20.5145
2218.13	18.643
2218.37	17.704
2218.61	20.5006
2218.85	16.7604
2219.08	18.6239
2219.32	16.7539
2219.56	16.7528
2219.8	17.6868
2220.04	19.5561
2220.27	18.6246
2220.51	17.6931
2220.75	19.565
2220.99	17.7011
2221.23	19.5755
2221.46	19.5805
2221.7	19.5848
2221.94	17.7175
2222.18	18.6564
2222.42	18.6603
2222.65	17.7287
2222.89	16.7957
2223.13	15.8619
2223.37	16.8016
2223.6	19.6147
2223.84	21.4926
2224.08	19.6215
2224.32	22.4368
2224.55	17.7505
2224.79	16.8133
2225.03	17.7502
2225.27	21.4991
2225.5	17.7464
2225.74	18.6822
2225.98	18.6807
2226.22	19.6166
2226.46	16.8035
2226.69	15.8679
2226.93	17.7472
2227.17	19.6271
2227.41	21.5067
2227.64	16.8178
2227.88	18.6979
2228.12	16.8235
2228.36	17.7659
2228.59	16.8303
2228.83	21.5307
2229.07	14.9562
2229.31	17.7783
2229.54	16.8411
2229.78	18.7242
2230.02	18.7271
2230.26	17.7892
2230.49	17.7919
2230.73	15.9125
2230.97	18.7377
2231.21	16.8567
2231.44	16.8554
2231.68	18.7358
2231.92	18.7331
2232.16	18.7292
2232.39	18.7223
2232.63	18.7169
2232.87	18.7165
2233.11	17.7763
2233.34	18.7171
2233.58	19.6581
2233.82	19.6584
2234.05	18.7182
2234.29	16.8402
2234.53	18.7253
2234.77	16.8489
2235	18.7388
2235.24	18.7454
2235.48	16.8651
2235.72	15.9262
2235.95	17.8164
2236.19	18.7655
2236.43	19.71
2236.66	17.8211
2236.9	17.8181
2237.14	18.7559
2237.37	18.7506
2237.61	18.7479
2237.85	17.8114
2238.09	17.8181
2238.32	21.5927
2238.56	17.8193
2238.8	17.8201
2239.04	16.877
2239.27	19.7092
2239.51	18.7669
2239.75	16.8806
2239.98	18.7686
2240.22	18.7673
2240.46	18.7644
2240.69	19.7048
2240.93	17.8153
2241.17	16.8705
2241.4	17.8141
2241.64	17.8162
2241.88	16.8765
2242.11	16.8827
2242.35	15.9434
2242.59	18.782
2242.83	17.8397
2243.06	18.7884
2243.3	18.7917
2243.54	15.0107
2243.77	15.9577
2244.01	18.7979
2244.25	16.9076
2244.48	16.9087
2244.72	18.8019
2244.96	16.9082
2245.19	20.6925
2245.43	19.7443
2245.67	19.7425
2245.91	17.8484
2246.14	20.6855
2246.38	21.6303
2246.61	21.6332
2246.85	15.9566
2247.09	16.9024
2247.32	19.7389
2247.56	15.9499
2247.8	17.838
2248.03	16.8875
2248.27	17.8294
2248.51	15.9354
2248.74	21.6064
2248.98	18.7703
2249.22	17.8261
2249.45	16.8826
2249.69	16.8853
2249.93	18.7825
2250.16	17.8451
2250.4	16.9044
2250.64	19.751
2250.87	17.8598
2251.11	20.7061
2251.35	14.0733
2251.58	16.9191
2251.82	19.7635
2252.06	17.865
2252.29	17.8651
2252.53	18.8129
2252.77	16.9166
2253	17.865
2253.24	19.7642
2253.48	17.8702
2253.71	18.8215
2253.95	16.9261
2254.18	20.7248
2254.42	18.8291
2254.66	18.8314
2254.89	17.8834
2255.13	20.7327
2255.37	20.7331
2255.6	15.9853
2255.84	16.9361
2256.08	18.8378
2256.31	14.0895
2256.55	16.9409
2256.78	15.0411
2257.02	17.8935
2257.26	17.8949
2257.49	20.7479
2257.73	19.7986
2257.96	17.8993
2258.2	18.8555
2258.44	16.9562
2258.67	16.9565
2258.91	19.8115
2259.15	17.9094
2259.38	17.9104
2259.62	18.8642
2259.85	15.0594
2260.09	16.9666
2260.33	18.8756
2260.56	16.0223
2260.8	22.6994
2261.03	16.9865
2261.27	16.0384
2261.51	17.9519
2261.74	19.8656
2261.98	18.9151
2262.21	18.9184
2262.45	16.0557
2262.69	18.9214
2262.92	17.0111
2263.16	17.9645
2263.39	16.0501
2263.63	18.9101
2263.87	19.8595
2264.1	21.7632
2264.34	18.8966
2264.57	17.9392
2264.81	17.9358
2265.05	19.8387
2265.28	18.8813
2265.52	16.9726
2265.75	19.833
2265.99	17.9279
2266.22	18.8849
2266.46	17.9353
2266.7	16.0309
2266.93	16.9898
2267.17	19.8602
2267.4	17
2267.64	19.8693
2267.87	19.8712
2268.11	18.9191
2268.35	18.922
2268.58	16.0552
2268.82	17.0132
2269.05	18.929
2269.29	20.8437
2269.53	17.017
2269.76	19.8873
2270	18.9311
2270.23	18.9316
2270.47	17.9752
2270.7	17.9756
2270.94	17.9761
2271.18	18.9335
2271.41	16.0624
2271.65	17.9771
2271.88	19.892
2272.12	17.9783
2272.35	17.9787
2272.59	17.9794
2272.82	18.9356
2273.06	18.9378
2273.3	17.0261
2273.53	18.9459
2273.77	16.0747
2274	19.9113
2274.24	16.0804
2274.47	16.085
2274.71	17.0498
2274.94	18.0157
2275.18	17.0627
2275.41	18.0251
2275.65	19.9468
2275.88	18.9861
2276.12	17.064
2276.36	18.0227
2276.59	18.9793
2276.83	18.9702
2277.06	17.0451
2277.3	18.9585
2277.53	17.0354
2277.77	18.9492
2278	18.946
2278.24	17.9849
2278.47	18.9406
2278.71	16.0629
2278.94	18.9397
2279.18	16.0647
2279.41	19.9014
2279.65	17.9869
2279.89	18.9497
2280.12	19.9129
2280.36	18.9584
2280.59	18.0051
2280.83	18.9735
2281.06	18.981
2281.3	18.0279
2281.53	18.0323
2281.77	18.9956
2282	18.9994
2282.24	16.1164
2282.47	20.9288
2282.71	18.0418
2282.94	18.0376
2283.18	18.9919
2283.41	18.0289
2283.65	19.9534
2283.88	18.994
2284.12	18.0398
2284.35	17.0835
2284.59	19.0116
2284.82	19.0131
2285.06	20.9447
2285.29	19.0159
2285.53	18.0493
2285.76	19.0092
2286	19.9682
2286.23	17.0737
2286.47	20.9158
2286.7	20.9083
2286.94	15.1296
2287.17	16.0883
2287.41	17.0474
2287.64	18.0082
2287.88	16.0853
2288.11	18.0101
2288.35	18.976
2288.58	15.1334
2288.82	17.0609
2289.05	19.9509
2289.28	16.103
2289.52	18.0313
2289.75	19.9613
2289.99	20.9285
2290.22	17.0776
2290.46	19.0069
2290.69	20.9361
2290.93	19.0091
2291.16	18.0434
2291.4	19.968
2291.63	19.9644
2291.87	18.0334
2292.1	17.067
2292.34	18.9903
2292.57	21.876
2292.81	19.9467
2293.04	24.7574
2293.28	17.0511
2293.51	19.9299
2293.74	18.9661
2293.98	20.8914
2294.21	22.8184
2294.45	18.9722
2294.68	20.9013
2294.92	18.0177
2295.15	16.0967
2295.39	17.0632
2295.62	19.9562
2295.86	17.0679
2296.09	18.0359
2296.32	15.1461
2296.56	19.0064
2296.79	16.1138
2297.03	19.0069
2297.26	16.1126
2297.5	16.1116
2297.73	18.0423
2297.97	20.9397
2298.2	16.1166
2298.43	19.0133
2298.67	19.0141
2298.9	19.9793
2299.14	16.1171
2299.37	19.9758
2299.61	16.1134
2299.84	19.9738
2300.07	19.0077
2300.31	19.9711
2300.54	19.9702
2300.78	18.0399
2301.01	17.0759
2301.25	18.0436
2301.48	19.0115
2301.71	20.9443
2301.95	19.0152
2302.18	15.1544
2302.42	19.986
2302.65	18.0542
2302.89	17.0889
2303.12	19.9896
2303.35	18.0585
2303.59	17.0922
2303.82	19.9917
2304.05	19.0243
2304.29	18.0566
2304.52	19.9873
2304.76	18.0516
2304.99	18.0497
2305.23	15.1489
2305.46	18.0454
2305.69	18.0448
2305.93	19.0112
2306.16	19.0135
2306.4	19.0162
2306.63	19.9871
2306.86	18.0588
2307.1	16.1276
2307.33	19.9981
2307.57	17.0959
2307.8	19.997
2308.03	18.0597
2308.27	19.0221
2308.5	19.9772
2308.74	17.066
2308.97	18.025
2309.2	16.0892
2309.44	17.0514
2309.67	17.0478
2309.91	18.9748
2310.14	18.974
2310.37	21.8706
2310.61	18.0155
2310.84	19.9534
2311.07	16.0948
2311.31	12.2339
2311.54	18.0365
2311.78	18.0427
2312.01	21.9174
2312.24	20.9532
2312.48	17.0782
2312.71	20.9413
2312.94	17.0693
2313.18	17.0642
2313.41	20.9183
2313.65	18.9803
2313.88	20.9082
2314.11	16.0793
2314.35	18.0108
2314.58	20.9084
2314.81	19.9475
2315.05	17.0521
2315.28	16.0799
2315.51	18.9736
2315.75	17.0394
2315.98	18.0015
2316.22	19.9284
2316.45	19.9248
2316.68	17.9921
2316.92	20.885
2317.15	19.9196
2317.38	17.0247
2317.62	16.059
2317.85	17.025
2318.08	19.9226
2318.32	17.0293
2318.55	19.9286
2318.78	18.0008
2319.02	18.0054
2319.25	22.8423
2319.48	18.0146
2319.72	20.916
2319.95	15.1143
2320.19	20.9149
2320.42	16.0818
2320.65	19.9497
2320.89	19.9505
2321.12	18.9836
2321.35	20.9161
2321.58	16.08
2321.82	20.9089
2322.05	18.0026
2322.28	17.9956
2322.52	18.9566
2322.75	21.8492
2322.98	18.948
2323.22	17.013
2323.45	17.9737
2323.68	18.934
2323.92	17.9647
2324.15	18.9246
2324.38	16.0271
2324.62	20.8445
2324.85	19.8765
2325.08	20.8374
2325.32	23.7294
2325.55	22.7651
2325.78	20.8374
2326.02	20.8326
2326.25	24.682
2326.48	22.7482
2326.71	23.7087
2326.95	27.5596
2327.18	30.4525
2327.41	37.1922
2327.65	43.9304
2327.88	41.0367
2328.11	37.1827
2328.35	31.4064
2328.58	28.5208
2328.81	21.7813
2329.05	23.7133
2329.28	24.6694
2329.51	19.8481
2329.75	23.6968
2329.98	21.7671
2330.21	23.6892
2330.44	17.9096
2330.68	21.7573
2330.91	19.8297
2331.14	19.8263
2331.38	16.9358
2331.61	16.9308
2331.84	17.8894
2332.07	19.8104
2332.31	18.8474
2332.54	17.8841
2332.77	15.9609
2333	17.8849
2333.24	16.922
2333.47	17.8812
2333.7	18.841
2333.94	20.7626
2334.17	18.8383
2334.4	18.8367
2334.63	20.7581
2334.87	18.8331
2335.1	17.8699
2335.33	17.8685
2335.56	17.8671
2335.8	18.8271
2336.03	10.1765
2336.26	19.7883
2336.5	18.8264
2336.73	18.8252
2336.96	17.8619
2337.19	19.7811
2337.43	16.8946
2337.66	20.7338
2337.89	19.7681
2338.12	17.8416
2338.36	17.8352
2338.59	18.7873
2338.82	18.7813
2339.05	19.7363
2339.29	20.6913
2339.52	18.77
2339.75	17.8087
2339.98	14.9312
2340.22	17.806
2340.45	17.8056
2340.68	16.8456
2340.91	17.8029
2341.15	19.7196
2341.38	18.7618
2341.61	17.8032
2341.84	17.802
2342.08	19.7174
2342.31	18.7563
2342.54	17.7943
2342.77	17.789
2343.01	13.9535
2343.24	18.7388
2343.47	17.7792
2343.7	19.6929
2343.93	21.6064
2344.17	17.774
2344.4	23.5164
2344.63	15.8562
2344.86	20.6431
2345.1	17.7713
2345.33	18.7305
2345.56	18.7314
2345.79	19.6884
2346.03	15.8555
2346.26	20.6395
2346.49	18.7159
2346.72	18.7072
2346.95	18.6972
2347.19	18.6854
2347.42	18.671
2347.65	17.6922
2347.88	19.5568
2348.12	18.6355
2348.35	17.7431
2348.58	19.6751
2348.81	18.6777
2349.04	14.8391
2349.28	19.6124
2349.51	17.7051
2349.74	15.7854
2349.97	16.7234
2350.2	19.5682
2350.44	15.7622
2350.67	16.7127
2350.9	17.6613
2351.13	15.7561
2351.36	20.517
2351.6	18.6163
2351.83	14.8084
2352.06	15.7602
2352.29	20.5227
2352.52	19.5675
2352.76	18.6124
2352.99	18.6096
2353.22	16.7009
2353.45	17.647
2353.68	19.5411
2353.92	19.5332
2354.15	20.4796
2354.38	18.5737
2354.61	21.4223
2354.84	18.5666
2355.07	17.6129
2355.31	16.6601
2355.54	17.6084
2355.77	16.6539
2356	18.5516
2356.23	18.5497
2356.46	17.5981
2356.7	16.6455
2356.93	12.8435
2357.16	18.5366
2357.39	16.6333
2357.62	15.6798
2357.86	19.4706
2358.09	17.5683
2358.32	19.46
2358.55	13.766
2358.78	18.5011
2359.01	19.4433
2359.25	17.5425
2359.48	20.3784
2359.71	18.4795
2359.94	16.5817
2360.17	18.4712
2360.4	17.5213
2360.63	14.6798
2360.87	15.6237
2361.1	17.5133
2361.33	20.3479
2361.56	17.5069
2361.79	17.5037
2362.02	21.2834
2362.26	18.4426
2362.49	21.2737
2362.72	19.3736
2362.95	18.417
2363.18	19.3514
2363.41	15.5739
2363.64	19.3467
2363.88	16.5167
2364.11	16.5234
2364.34	15.5882
2364.57	18.4297
2364.8	17.4824
