#Acq. time (s)=	30
#Accumulations=	2
#Range (cm-¹)=	1200...2365
#Windows=	3
#Auto scanning=	Off
#Autofocus=	Off
#Macrospot=	Off
#AutoExposure=	Off
#Spike filter=	Multiple accum.
#Delay time (s)=	2
#Binning=	1
#Readout mode=	Signal
#DeNoise=	Off
#ICS correction=	On
#Dark correction=	Off
#Inst. Process=	Off
#Detector Gain=	Best Dynamic
#Detector ADC=	50 kHz HS
#Detector temperature (°C)=	-60.09
#Instrument=	LabRAM HR Evol
#Detector=	SIN-EM FIVIS
#Objective=	x100_VIS_LWD
#Grating=	1800 (450-850nm)
#ND Filter=	100%
#Laser=	532nm_Edge
#Hole=	100.021
#Temperature=	0
#Range=	Visible
#StageXY=	75x50mm Scan+
#StageZ=	Z motor
#X (µm)=	0
#Y (µm)=	0
#Z (µm)=	-47.2
#Full time(mm:ss)=	3:22
#Project=	21_11_26
#Sample=	BU19(2)w
#Site=	
#Title=	BU19(2)w-A-FF1-FI01-V_1800 (450-850nm)_532nm_Edge_100%_x100_VIS_LWD_H100um_30sX2
#Remark=	
#Date=	26.11.2021 11:36
#Acquired=	26.11.2021 11:36:17
1202.72	63.9874
1203	67.3084
1203.28	64.0964
1203.56	65.1324
1203.84	62.9284
1204.11	65.0463
1204.39	58.5688
1204.67	61.7941
1204.95	76.8505
1205.23	66.0841
1205.5	68.2054
1205.78	69.2489
1206.06	61.6993
1206.34	62.7402
1206.61	70.2161
1206.89	60.5323
1207.17	59.4297
1207.45	61.5463
1207.73	66.8824
1208	66.8638
1208.28	67.9209
1208.56	67.9045
1208.84	60.3925
1209.11	57.1648
1209.39	65.7019
1209.67	59.2764
1209.95	60.3407
1210.23	67.816
1210.5	66.7309
1210.78	63.4955
1211.06	63.4676
1211.34	66.6475
1211.61	61.2837
1211.89	64.4636
1212.17	64.4352
1212.45	63.3419
1212.72	61.1907
1213	62.2358
1213.28	69.6706
1213.56	55.8102
1213.83	66.4485
1214.11	68.561
1214.39	63.2386
1214.67	64.3031
1214.94	56.8488
1215.22	66.4278
1215.5	65.358
1215.78	62.1586
1216.05	58.9576
1216.33	69.5819
1216.61	58.9164
1216.89	62.0785
1217.16	67.3659
1217.44	56.7166
1217.72	58.8223
1218	57.7408
1218.27	57.7249
1218.55	59.8325
1218.83	59.8174
1219.1	62.9914
1219.38	58.7401
1219.66	59.793
1219.94	64.0265
1220.21	65.0733
1220.49	61.8868
1220.77	58.7025
1221.04	61.8785
1221.32	59.7488
1221.6	61.8562
1221.88	57.6021
1222.15	59.7024
1222.43	66.0329
1222.71	60.7056
1222.98	60.6727
1223.26	56.4098
1223.54	64.8407
1223.81	59.5264
1224.09	61.6161
1224.37	54.1984
1224.65	56.2944
1224.92	60.5041
1225.2	58.3822
1225.48	65.767
1225.76	57.327
1226.03	62.6096
1226.31	64.7271
1226.59	55.2179
1226.86	71.0486
1227.14	63.6433
1227.42	59.4081
1227.69	66.7591
1227.97	63.5306
1228.25	57.1701
1228.52	61.3454
1228.8	63.3877
1229.08	60.1842
1229.35	64.3798
1229.63	58.217
1229.91	60.4499
1230.18	67.7723
1230.46	60.3304
1230.74	65.5724
1231.01	61.3638
1231.29	58.1669
1231.57	61.2016
1231.84	66.4645
1232.12	62.2574
1232.4	61.2019
1232.67	66.4454
1232.95	55.9349
1233.23	62.2326
1233.5	67.4764
1233.78	68.5226
1234.06	64.3218
1234.33	65.3757
1234.61	61.1769
1234.89	64.336
1235.16	63.2931
1235.44	70.6535
1235.71	63.2991
1235.99	61.2017
1236.27	65.4099
1236.54	55.9436
1236.82	62.2417
1237.1	65.3827
1237.37	69.5694
1237.65	63.2401
1237.93	68.4656
1238.2	65.2892
1238.48	68.4112
1238.76	71.531
1239.03	64.1675
1239.31	67.2994
1239.58	65.1909
1239.86	64.1332
1240.14	63.0782
1240.41	62.0254
1240.69	62.0226
1240.97	63.0701
1241.24	66.2157
1241.52	68.3122
1241.79	68.3035
1242.07	70.3846
1242.35	70.374
1242.62	65.1331
1242.9	60.9427
1243.18	66.1895
1243.45	75.6304
1243.73	69.3372
1244	64.094
1244.28	76.6758
1244.56	60.9474
1244.83	68.2787
1245.11	66.1732
1245.39	73.4918
1245.66	69.28
1245.94	66.1114
1246.21	73.4155
1246.49	67.1217
1246.76	73.3942
1247.04	69.2051
1247.32	72.3413
1247.59	79.659
1247.87	75.4685
1248.14	72.3183
1248.42	78.5654
1248.7	77.5017
1248.97	79.5871
1249.25	79.5894
1249.52	78.5469
1249.8	76.4472
1250.08	77.4881
1250.35	76.4405
1250.63	79.5589
1250.9	68.0363
1251.18	74.2895
1251.45	69.0475
1251.73	78.4358
1252.01	72.1521
1252.28	80.4916
1252.56	79.43
1252.83	77.3245
1253.11	76.2617
1253.39	73.1138
1253.66	75.1911
1253.94	79.3629
1254.21	79.3731
1254.49	80.4296
1254.76	77.3123
1255.04	73.1397
1255.31	82.5349
1255.59	86.7159
1255.87	78.3592
1256.14	76.2645
1256.42	73.1326
1256.69	80.4464
1256.97	85.6782
1257.24	86.7244
1257.52	82.5394
1257.79	90.8798
1258.07	95.0462
1258.35	107.566
1258.62	105.467
1258.9	98.1445
1259.17	98.1188
1259.45	101.245
1259.72	100.21
1260	101.267
1260.27	98.1729
1260.55	111.719
1260.82	100.206
1261.1	110.603
1261.37	113.703
1261.65	120.983
1261.92	128.301
1262.2	134.678
1262.48	144.262
1262.75	151.673
1263.02	161.867
1263.3	184.62
1263.58	184.533
1263.85	184.711
1264.13	210.964
1264.4	195.477
1264.68	188.251
1264.95	179.767
1265.23	169.268
1265.5	152.543
1265.78	134.762
1266.05	127.42
1266.33	120.103
1266.6	109.66
1266.88	105.492
1267.15	102.374
1267.43	110.759
1267.7	113.924
1267.98	102.447
1268.25	95.1537
1268.53	93.0999
1268.8	97.3206
1269.08	102.575
1269.35	98.3984
1269.63	88.9782
1269.9	103.639
1270.18	93.1382
1270.45	96.2486
1270.73	98.3195
1271	101.433
1271.28	102.46
1271.55	104.543
1271.83	97.2026
1272.1	96.1611
1272.38	102.461
1272.65	103.534
1272.93	99.3825
1273.2	99.406
1273.47	101.526
1273.75	94.2133
1274.03	98.4296
1274.3	96.3559
1274.57	102.663
1274.85	97.4205
1275.12	103.707
1275.4	106.852
1275.67	111.058
1275.95	110.024
1276.22	104.794
1276.5	110.066
1276.77	102.734
1277.05	122.703
1277.32	105.915
1277.6	113.292
1277.87	126.976
1278.14	113.342
1278.42	122.822
1278.69	122.843
1278.97	124.979
1279.24	134.464
1279.52	142.9
1279.79	166.032
1280.07	154.446
1280.34	174.408
1280.61	192.278
1280.89	221.74
1281.16	249.108
1281.44	295.463
1281.71	371.332
1281.99	473.485
1282.26	634.52
1282.53	823.012
1282.81	1070.52
1283.08	1385.08
1283.36	1700.04
1283.63	1960.3
1283.91	2169.75
1284.18	2254.81
1284.45	2164.54
1284.73	1823.46
1285	1437.06
1285.28	1044
1285.55	760.183
1285.83	512.503
1286.1	398.802
1286.37	308.32
1286.65	244.077
1286.92	218.76
1287.2	179.799
1287.47	166.099
1287.75	166.072
1288.02	154.463
1288.29	139.711
1288.57	140.76
1288.84	134.447
1289.12	130.244
1289.39	128.156
1289.66	116.596
1289.94	117.669
1290.21	116.638
1290.49	117.709
1290.76	101.905
1291.03	111.371
1291.31	89.2447
1291.58	99.7732
1291.86	115.568
1292.13	111.349
1292.4	98.709
1292.68	103.979
1292.95	102.918
1293.22	100.801
1293.5	99.7508
1293.77	97.6741
1294.05	84.0109
1294.32	93.5342
1294.59	97.761
1294.87	95.6499
1295.14	90.3685
1295.42	97.7652
1295.69	98.8595
1295.96	86.2434
1296.24	98.9804
1296.51	94.792
1296.79	93.7427
1297.06	92.6859
1297.33	87.389
1297.61	87.3714
1297.88	90.5207
1298.15	85.2163
1298.43	86.2473
1298.7	85.1991
1298.97	85.19
1299.25	90.4528
1299.52	88.3266
1299.79	79.8655
1300.07	84.0845
1300.34	83.0413
1300.62	92.5503
1300.89	81.9917
1301.16	84.0972
1301.44	79.8685
1301.71	74.5909
1301.98	77.7694
1302.25	84.1166
1302.53	91.5156
1302.8	80.9527
1303.08	75.6677
1303.35	78.8292
1303.62	77.762
1303.9	85.1372
1304.17	80.9082
1304.44	85.1314
1304.72	80.9055
1304.99	86.1819
1305.26	89.3364
1305.54	74.5394
1305.81	85.0739
1306.08	78.7215
1306.35	80.8096
1306.63	76.5723
1306.9	79.727
1307.18	77.6152
1307.45	74.4557
1307.72	71.2913
1308	76.5616
1308.27	76.5587
1308.54	74.451
1308.81	76.5536
1309.09	76.5555
1309.36	83.9499
1309.63	75.5188
1309.91	79.7486
1310.18	80.8091
1310.45	81.86
1310.73	72.355
1311	85.0159
1311.27	73.4089
1311.55	72.3551
1311.82	80.7995
1312.09	76.5818
1312.37	72.37
1312.64	77.6577
1312.91	78.7167
1313.18	71.3197
1313.46	70.2502
1313.73	67.0784
1314	68.1255
1314.28	71.2846
1314.55	74.4487
1314.82	74.4509
1315.09	73.4003
1315.37	68.1281
1315.64	68.134
1315.91	74.4773
1316.18	76.5973
1316.46	69.1983
1316.73	72.3599
1317	77.6349
1317.28	73.4061
1317.55	67.0673
1317.82	70.2433
1318.09	80.8111
1318.37	71.3065
1318.64	69.1942
1318.91	72.3628
1319.18	74.4737
1319.46	74.4692
1319.73	73.4074
1320	73.4024
1320.28	73.405
1320.55	78.6859
1320.82	73.3972
1321.09	64.9341
1321.37	61.749
1321.64	68.0632
1321.91	61.7068
1322.18	72.2451
1322.46	65.8927
1322.73	76.4289
1323	69.0335
1323.27	66.9118
1323.55	76.3848
1323.82	70.065
1324.09	71.1202
1324.36	74.2824
1324.64	73.2233
1324.91	72.1677
1325.18	74.272
1325.45	65.8385
1325.73	68.9817
1326	67.8942
1326.27	67.8523
1326.54	72.0107
1326.81	66.7265
1327.09	66.719
1327.36	67.7915
1327.63	70.9936
1327.9	65.7494
1328.18	78.4162
1328.45	68.9566
1328.72	73.2
1328.99	67.9463
1329.27	69.0055
1329.54	70.0494
1329.81	66.8893
1330.08	64.774
1330.35	74.2606
1330.63	67.9197
1330.9	71.0685
1331.17	66.8316
1331.44	62.5928
1331.71	70.9949
1331.99	61.4825
1332.26	74.0924
1332.53	74.0692
1332.8	75.0963
1333.07	75.0678
1333.35	68.7294
1333.62	70.8065
1333.89	71.8332
1334.16	73.9111
1334.43	73.8879
1334.71	69.6659
1334.98	71.7458
1335.25	60.1836
1335.52	66.4652
1335.79	62.2536
1336.07	68.5337
1336.34	67.4709
1336.61	69.5555
1336.88	67.4466
1337.15	64.2913
1337.43	70.5721
1337.7	67.4192
1337.97	65.3132
1338.24	72.6289
1338.51	69.4669
1338.78	62.1224
1339.06	63.1567
1339.33	67.3358
1339.6	66.2843
1339.87	69.4258
1340.14	70.4744
1340.42	68.3791
1340.69	71.5211
1340.96	69.4265
1341.23	72.5645
1341.5	64.181
1341.77	73.5983
1342.04	65.2114
1342.32	74.6201
1342.59	69.3682
1342.86	66.208
1343.13	66.188
1343.4	64.0844
1343.67	68.2605
1343.95	57.7973
1344.22	66.1611
1344.49	71.3892
1344.76	74.5244
1345.03	71.3778
1345.3	71.3635
1345.58	69.2541
1345.85	69.2295
1346.12	73.3884
1346.39	67.0943
1346.66	75.4092
1346.93	65.9902
1347.2	73.2705
1347.47	72.202
1347.75	60.71
1348.02	61.7387
1348.29	70.0669
1348.56	64.8471
1348.83	70.0507
1349.1	70.0371
1349.37	70.0215
1349.65	74.1716
1349.92	67.9068
1350.19	67.8919
1350.46	67.8773
1350.73	67.8623
1351	61.5993
1351.27	68.8635
1351.54	75.0907
1351.81	81.3083
1352.09	63.6222
1352.36	69.8577
1352.63	78.1831
1352.9	76.1174
1353.17	70.9361
1353.44	74.0671
1353.71	66.8376
1353.98	72.1108
1354.25	72.0397
1354.53	70.8878
1354.8	68.7339
1355.07	70.8173
1355.34	71.8599
1355.61	72.8708
1355.88	74.932
1356.15	78.0721
1356.42	68.7249
1356.69	74.9402
1356.96	71.8142
1357.24	73.8827
1357.51	79.0653
1357.78	71.7839
1358.05	77.9994
1358.32	74.8692
1358.59	77.9666
1358.86	82.1015
1359.13	78.9698
1359.4	73.7656
1359.67	72.7153
1359.94	77.8884
1360.22	79.939
1360.49	80.949
1360.76	81.9598
1361.03	71.5824
1361.3	76.7535
1361.57	77.7857
1361.84	80.8876
1362.11	80.8805
1362.38	69.4765
1362.65	84.9992
1362.92	83.953
1363.19	82.9122
1363.46	80.8442
1363.73	81.8915
1364	88.114
1364.28	87.0868
1364.55	92.2628
1364.82	94.3258
1365.09	83.9562
1365.36	96.3648
1365.63	91.1643
1365.9	93.2101
1366.17	90.0819
1366.44	92.1282
1366.71	94.1726
1366.98	90.0065
1367.25	88.9389
1367.52	82.7213
1367.79	83.7441
1368.06	88.9207
1368.33	88.9252
1368.6	97.198
1368.87	101.337
1369.15	120.983
1369.41	152.009
1369.68	177.867
1369.95	181.979
1370.23	169.551
1370.5	131.284
1370.77	100.246
1371.04	101.264
1371.31	105.375
1371.58	89.8511
1371.85	91.8833
1372.12	95.9723
1372.39	100.059
1372.66	95.8965
1372.93	96.8996
1373.2	92.7571
1373.47	94.8036
1373.74	90.6669
1374.01	100.96
1374.28	91.6753
1374.55	97.8481
1374.82	99.8997
1375.09	100.92
1375.36	105.025
1375.63	101.936
1375.9	99.8863
1376.17	106.063
1376.44	106.066
1376.71	107.067
1376.98	118.365
1377.25	111.117
1377.52	113.126
1377.79	118.284
1378.06	104.93
1378.33	117.327
1378.6	108.111
1378.87	111.261
1379.14	119.526
1379.41	117.457
1379.68	122.593
1379.95	118.45
1380.22	125.637
1380.49	126.61
1380.76	125.476
1381.03	135.703
1381.3	138.734
1381.57	148.012
1381.84	150.028
1382.11	155.094
1382.38	158.096
1382.65	165.215
1382.92	163.1
1383.19	173.296
1383.46	183.503
1383.73	199.855
1384	206.995
1384.27	226.443
1384.54	263.357
1384.81	289.011
1385.08	315.725
1385.34	378.385
1385.61	473.968
1385.88	600.35
1386.15	796.581
1386.42	1135.55
1386.69	1667.79
1386.96	2474.27
1387.23	3498.29
1387.5	4479.77
1387.77	4982.31
1388.04	4638.47
1388.31	3612.73
1388.58	2400.33
1388.85	1552.42
1389.12	963.296
1389.39	671.288
1389.66	490.626
1389.93	375.668
1390.2	305.733
1390.46	260.359
1390.73	235.652
1391	202.83
1391.27	188.396
1391.54	173.004
1391.81	164.788
1392.08	162.699
1392.35	139.096
1392.62	149.303
1392.89	140.06
1393.16	135.943
1393.43	130.807
1393.7	123.627
1393.97	128.731
1394.23	121.554
1394.5	109.264
1394.77	119.487
1395.04	124.596
1395.31	103.118
1395.58	116.438
1395.85	105.19
1396.12	112.359
1396.39	111.329
1396.66	109.27
1396.93	110.279
1397.2	109.239
1397.46	103.077
1397.73	109.193
1398	97.9292
1398.27	103.04
1398.54	94.8616
1398.81	99.9857
1399.08	106.129
1399.35	106.132
1399.62	95.9153
1399.89	97.9706
1400.16	106.166
1400.42	101.045
1400.69	101.057
1400.96	93.9134
1401.23	95.9705
1401.5	88.7965
1401.77	95.9741
1402.04	95.9711
1402.31	99.0752
1402.58	92.9794
1402.84	109.446
1403.11	100.257
1403.38	96.1817
1403.65	98.2477
1403.92	100.3
1404.19	95.1446
1404.46	109.45
1404.73	113.568
1404.99	114.582
1405.26	104.308
1405.53	114.544
1405.8	121.698
1406.07	114.497
1406.34	131.904
1406.61	140.088
1406.87	152.374
1407.14	147.254
1407.41	164.689
1407.68	174.952
1407.95	209.818
1408.22	223.158
1408.49	243.676
1408.76	264.196
1409.02	301.132
1409.29	306.286
1409.56	304.259
1409.83	280.689
1410.1	229.412
1410.37	205.817
1410.63	179.109
1410.9	153.424
1411.17	128.773
1411.44	111.319
1411.71	113.347
1411.98	115.379
1412.25	95.9078
1412.51	82.5993
1412.78	101.07
1413.05	80.6207
1413.32	82.7702
1413.59	84.8742
1413.86	85.8326
1414.12	84.6902
1414.39	66.2478
1414.66	77.5793
1414.93	81.7207
1415.2	80.6865
1415.47	73.5006
1415.73	73.4988
1416	71.4455
1416.27	70.4226
1416.54	77.6153
1416.81	75.5669
1417.07	64.2746
1417.34	66.3347
1417.61	77.6417
1417.88	68.4007
1418.15	70.4577
1418.42	67.3742
1418.68	70.4578
1418.95	66.3484
1419.22	75.5964
1419.49	64.2909
1419.76	66.337
1420.02	70.4318
1420.29	64.2519
1420.56	63.2105
1420.83	66.2756
1421.1	64.2055
1421.36	74.4557
1421.63	68.2886
1421.9	68.2906
1422.17	71.3871
1422.44	69.3554
1422.7	71.432
1422.97	66.3294
1423.24	64.3278
1423.51	64.3839
1423.77	66.2806
1424.04	67.1618
1424.31	71.2802
1424.58	59.9382
1424.85	67.1082
1425.11	63.0266
1425.38	61.0181
1425.65	58.9727
1425.92	63.0641
1426.19	70.2656
1426.45	64.1033
1426.72	59.9869
1426.99	57.918
1427.26	64.0501
1427.52	60.9544
1427.79	65.0243
1428.06	57.8317
1428.33	59.8678
1428.59	59.8617
1428.86	64.9798
1429.13	60.8858
1429.4	58.8408
1429.67	63.9665
1429.93	52.7068
1430.2	48.6181
1430.47	57.8528
1430.74	54.7882
1431	58.9047
1431.27	60.9808
1431.54	58.9479
1431.81	50.7452
1432.07	52.796
1432.34	55.8623
1432.61	53.7946
1432.87	53.7841
1433.14	53.765
1433.41	52.7169
1433.68	54.7411
1433.95	55.7409
1434.21	55.7247
1434.48	56.7407
1434.75	46.5211
1435.01	52.6771
1435.28	54.7266
1435.55	48.5764
1435.82	48.573
1436.08	54.7165
1436.35	52.6615
1436.62	53.6802
1436.89	54.6973
1437.15	51.6165
1437.42	52.634
1437.69	47.5089
1437.95	54.6704
1438.22	49.5448
1438.49	49.5451
1438.76	53.6481
1439.02	48.5289
1439.29	57.7485
1439.56	57.7495
1439.82	45.4603
1440.09	49.5685
1440.36	47.5303
1440.63	48.5596
1440.89	56.7639
1441.16	50.61
1441.43	48.5597
1441.69	53.6809
1441.96	51.6189
1442.23	45.4609
1442.49	46.4938
1442.76	47.5183
1443.03	46.5003
1443.3	48.543
1443.56	45.456
1443.83	49.5479
1444.1	50.5657
1444.36	47.4862
1444.63	48.5122
1444.9	47.499
1445.16	50.586
1445.43	50.6006
1445.7	51.6199
1445.97	46.4833
1446.23	48.5285
1446.5	50.5735
1446.77	46.4647
1447.03	56.7145
1447.3	48.5037
1447.57	47.471
1447.83	43.3614
1448.1	42.3294
1448.37	41.3016
1448.63	46.4337
1448.9	45.4167
1449.17	53.6227
1449.43	44.3888
1449.7	51.5617
1449.97	44.3744
1450.23	46.4151
1450.5	45.3798
1450.77	39.2232
1451.03	45.3675
1451.3	46.3864
1451.57	46.38
1451.83	44.3234
1452.1	40.2181
1452.37	46.3599
1452.63	47.3801
1452.9	50.4522
1453.17	44.3049
1453.43	45.3326
1453.7	42.2604
1453.97	48.4075
1454.23	46.3522
1454.5	45.3226
1454.77	38.1473
1455.03	41.2192
1455.3	43.265
1455.56	40.1858
1455.83	40.1844
1456.1	41.2143
1456.36	45.3158
1456.63	45.3135
1456.9	47.357
1457.16	48.371
1457.43	51.4343
1457.7	48.3546
1457.96	44.2514
1458.23	31.9548
1458.49	40.1477
1458.76	37.0732
1459.03	49.3668
1459.29	44.2443
1459.56	43.219
1459.82	48.3407
1460.09	38.0909
1460.36	42.184
1460.62	36.0319
1460.89	42.1725
1461.16	43.1896
1461.42	40.1091
1461.69	40.1013
1461.95	43.1645
1462.22	42.1309
1462.49	40.0735
1462.75	45.1792
1463.02	45.1666
1463.28	42.0849
1463.55	39.0041
1463.82	37.9707
1464.08	38.9893
1464.35	46.1587
1464.61	43.1091
1464.88	44.1464
1465.15	43.1417
1465.41	37.9886
1465.68	33.8278
1465.94	45.0225
1466.21	43.995
1466.48	37.8821
1466.74	37.8759
1467.01	39.8965
1467.27	40.9087
1467.54	39.8902
1467.8	36.8247
1468.07	38.8597
1468.34	40.8957
1468.6	36.8123
1468.87	38.8491
1469.13	37.8244
1469.4	40.8777
1469.67	38.8306
1469.93	30.6638
1470.2	37.789
1470.46	41.8556
1470.73	39.8092
1470.99	38.783
1471.26	38.7776
1471.53	39.7883
1471.79	37.7407
1472.06	35.6961
1472.32	43.8373
1472.59	35.6871
1472.85	43.8295
1473.12	40.7712
1473.39	43.8199
1473.65	36.685
1473.92	36.6768
1474.18	40.7406
1474.45	40.7351
1474.71	37.6796
1474.98	31.5743
1475.24	39.7167
1475.51	39.7148
1475.78	40.7289
1476.04	39.7049
1476.31	40.7145
1476.57	43.7603
1476.84	44.7713
1477.1	36.6235
1477.37	44.7514
1477.63	38.6431
1477.9	42.7071
1478.16	36.6019
1478.43	37.6118
1478.69	38.6183
1478.96	40.6429
1479.22	40.6341
1479.49	42.6568
1479.76	42.6459
1480.02	39.5865
1480.29	44.6531
1480.55	41.5884
1480.82	40.5584
1481.08	42.577
1481.35	34.4535
1481.61	41.546
1481.88	33.4312
1482.14	37.4933
1482.41	43.5875
1482.67	36.4888
1482.94	29.3855
1483.2	34.4593
1483.47	39.5384
1483.73	36.4923
1484	40.5519
1484.26	41.5635
1484.53	38.4983
1484.79	40.5021
1485.06	35.3871
1485.32	41.4062
1485.59	38.3479
1485.85	33.2602
1486.12	35.3662
1486.38	46.5219
1486.65	39.4414
1486.91	41.4204
1487.18	40.427
1487.44	40.431
1487.71	33.3243
1487.97	40.4038
1488.24	41.4081
1488.5	38.3609
1488.77	41.3866
1489.03	40.3615
1489.3	43.3869
1489.56	38.3203
1489.83	34.2674
1490.09	30.2158
1490.36	37.2947
1490.62	37.2917
1490.89	43.3537
1491.15	35.2515
1491.42	38.2751
1491.68	40.2908
1491.95	43.3195
1492.21	32.1959
1492.48	40.2833
1492.74	35.2244
1493	41.2858
1493.27	33.1944
1493.53	33.1919
1493.8	37.2304
1494.06	40.2589
1494.33	39.2462
1494.59	37.2247
1494.86	33.1816
1495.12	40.2544
1495.39	40.2451
1495.65	34.1672
1495.92	37.182
1496.18	35.1484
1496.45	39.1778
1496.71	36.1411
1496.97	38.1527
1497.24	38.1447
1497.5	35.1141
1497.77	37.1298
1498.03	39.1435
1498.3	41.1585
1498.56	32.0736
1498.82	32.0719
1499.09	34.0891
1499.35	37.1161
1499.62	38.1256
1499.88	37.1173
1500.15	39.1373
1500.41	34.0884
1500.68	36.1049
1500.94	35.0916
1501.2	35.0879
1501.47	40.1285
1501.73	45.164
1502	30.0211
1502.26	35.0634
1502.52	37.0776
1502.79	33.0354
1503.05	37.0606
1503.32	37.0503
1503.58	37.0432
1503.85	38.042
1504.11	39.0476
1504.37	37.0324
1504.64	37.0317
1504.9	38.038
1505.17	39.0421
1505.43	35.0021
1505.7	33.9858
1505.96	35.9888
1506.22	40.0028
1506.49	45.0347
1506.75	33.9491
1507.02	38.9856
1507.28	37.9815
1507.54	38.9883
1507.81	35.9646
1508.07	36.9694
1508.34	35.9567
1508.6	35.9521
1508.86	32.9276
1509.13	36.957
1509.39	35.9475
1509.66	41.9903
1509.92	39.9724
1510.18	35.9436
1510.45	44.0062
1510.71	36.9415
1510.98	31.8942
1511.24	35.9126
1511.5	36.9064
1511.77	38.9011
1512.03	35.8589
1512.29	42.8748
1512.56	37.8251
1512.82	34.7919
1513.08	37.7927
1513.35	31.7564
1513.61	41.7864
1513.88	33.7497
1514.14	37.772
1514.4	37.7851
1514.67	38.7911
1514.93	36.7751
1515.2	37.7679
1515.46	43.7783
1515.72	30.7162
1515.99	41.7409
1516.25	33.7005
1516.51	32.6875
1516.78	38.6983
1517.04	36.6871
1517.3	38.6873
1517.57	40.689
1517.83	37.6794
1518.09	36.6771
1518.36	32.6702
1518.62	40.6933
1518.88	32.6697
1519.15	31.6663
1519.41	40.6954
1519.67	28.6573
1519.94	36.6828
1520.2	41.6959
1520.47	34.6671
1520.73	34.662
1520.99	31.6521
1521.26	40.6826
1521.52	36.6706
1521.78	36.6695
1522.05	36.6655
1522.31	40.6726
1522.57	32.64
1522.84	34.6394
1523.1	38.6449
1523.36	33.6216
1523.62	32.6058
1523.89	33.5915
1524.15	35.5831
1524.41	35.5726
1524.68	34.5619
1524.94	39.5602
1525.2	41.5654
1525.47	37.5591
1525.73	31.5491
1525.99	34.5566
1526.26	41.574
1526.52	31.5622
1526.78	40.5877
1527.05	37.5815
1527.31	37.5781
1527.57	40.5766
1527.84	35.5605
1528.1	31.5465
1528.36	34.5472
1528.63	33.5384
1528.89	38.541
1529.15	35.5298
1529.41	40.5336
1529.68	36.5239
1529.94	37.5204
1530.2	35.5087
1530.47	33.5018
1530.73	38.51
1530.99	36.5126
1531.25	36.5181
1531.52	37.5237
1531.78	37.5221
1532.04	41.525
1532.31	33.5076
1532.57	34.5022
1532.83	33.5022
1533.09	33.5094
1533.36	38.533
1533.62	36.5376
1533.88	39.5499
1534.15	39.5509
1534.41	35.5354
1534.67	41.5494
1534.94	40.5405
1535.2	39.5306
1535.46	37.5187
1535.72	34.5006
1535.99	36.4839
1536.25	30.4584
1536.51	34.455
1536.77	33.4384
1537.04	42.4308
1537.3	37.4105
1537.56	41.4043
1537.82	38.391
1538.09	33.3877
1538.35	31.3778
1538.61	39.3625
1538.87	34.3576
1539.14	36.3506
1539.4	37.3587
1539.66	31.3768
1539.92	38.4071
1540.19	37.4238
1540.45	33.4302
1540.71	38.4559
1540.97	38.4648
1541.24	37.4641
1541.5	42.4571
1541.76	38.4429
1542.02	31.4143
1542.29	36.4128
1542.55	33.3956
1542.81	41.3951
1543.07	35.3755
1543.34	33.3626
1543.6	32.3505
1543.86	30.3358
1544.12	30.3221
1544.39	39.3219
1544.65	38.3218
1544.91	38.3279
1545.17	36.3366
1545.43	36.3427
1545.7	35.3546
1545.96	37.3634
1546.22	37.3662
1546.48	39.3716
1546.74	37.3633
1547.01	40.368
1547.27	35.3613
1547.53	38.3693
1547.79	34.3629
1548.06	33.3505
1548.32	37.3345
1548.58	33.3267
1548.84	34.3275
1549.1	42.3494
1549.37	34.2992
1549.63	37.2575
1549.89	33.2481
1550.15	35.266
1550.42	39.3078
1550.68	36.3612
1550.94	35.3982
1551.2	37.4423
1551.46	38.4167
1551.73	35.406
1551.99	38.4076
1552.25	33.3742
1552.51	42.4243
1552.77	39.4271
1553.03	35.4018
1553.3	33.3803
1553.56	37.3646
1553.82	38.3589
1554.08	37.3499
1554.34	40.3479
1554.61	40.3331
1554.87	33.3003
1555.13	34.2869
1555.39	38.2868
1555.65	36.2782
1555.91	32.2686
1556.18	43.2879
1556.44	41.2824
1556.7	34.2617
1556.96	39.2679
1557.22	40.2699
1557.48	37.2646
1557.75	35.2593
1558.01	36.2564
1558.27	34.2436
1558.53	31.2257
1558.79	38.2216
1559.06	31.2005
1559.32	32.1879
1559.58	38.1767
1559.84	40.165
1560.1	30.1578
1560.36	35.1484
1560.63	33.143
1560.89	35.1364
1561.15	34.1323
1561.41	37.1274
1561.67	35.129
1561.93	37.1326
1562.19	34.1416
1562.46	38.1508
1562.72	32.1478
1562.98	30.1433
1563.24	38.1384
1563.5	34.1376
1563.76	32.1315
1564.02	33.1268
1564.29	35.1376
1564.55	41.1538
1564.81	35.1522
1565.07	36.1478
1565.33	31.1225
1565.59	35.0536
1565.85	36.9509
1566.11	36.8979
1566.38	35.0623
1566.64	37.1057
1566.9	34.0841
1567.16	33.0582
1567.42	31.0859
1567.68	35.1159
1567.94	35.1046
1568.2	39.0739
1568.47	32.0782
1568.73	37.0801
1568.99	37.0805
1569.25	37.0742
1569.51	35.0579
1569.77	37.0458
1570.03	31.0478
1570.29	29.0492
1570.55	35.0439
1570.82	34.0425
1571.08	43.0339
1571.34	39.0319
1571.6	35.0285
1571.86	34.0209
1572.12	34.0118
1572.38	30.0125
1572.64	36.9973
1572.9	32.9926
1573.17	41.9708
1573.43	32.9772
1573.69	33.9669
1573.95	43.9391
1574.21	31.9614
1574.47	29.9688
1574.73	31.9708
1574.99	37.9687
1575.25	41.9723
1575.51	32.9882
1575.78	31.993
1576.04	34.9903
1576.3	35.9844
1576.56	36.9804
1576.82	37.9726
1577.08	29.9662
1577.34	38.9373
1577.6	38.9196
1577.86	33.9136
1578.12	35.8942
1578.38	34.8829
1578.64	34.8733
1578.9	31.8777
1579.17	36.8595
1579.43	42.8382
1579.69	41.8392
1579.95	33.8633
1580.21	35.8605
1580.47	33.8664
1580.73	36.8563
1580.99	35.8549
1581.25	41.8303
1581.51	33.8454
1581.77	37.8251
1582.03	27.8485
1582.29	37.803
1582.55	36.8012
1582.81	32.8109
1583.07	37.7863
1583.33	37.7815
1583.59	38.7737
1583.85	31.7979
1584.11	36.7715
1584.38	34.7771
1584.64	36.7699
1584.9	37.7661
1585.16	32.7846
1585.42	36.7662
1585.68	33.7733
1585.94	37.754
1586.2	33.7637
1586.46	36.7397
1586.72	34.7364
1586.98	28.7553
1587.24	32.7292
1587.5	33.7178
1587.76	33.7121
1588.02	35.6976
1588.28	36.6903
1588.54	33.706
1588.8	32.7126
1589.06	36.6964
1589.32	38.6895
1589.58	34.7103
1589.84	36.7025
1590.1	38.6927
1590.36	37.6944
1590.62	34.708
1590.88	35.7058
1591.14	36.7028
1591.4	31.7197
1591.66	40.6798
1591.92	33.7036
1592.18	33.6973
1592.44	44.6369
1592.7	34.6674
1592.96	36.6459
1593.22	37.632
1593.48	36.6201
1593.74	35.6076
1594	33.6017
1594.26	32.5963
1594.52	36.5619
1594.78	35.5661
1595.04	37.5549
1595.3	37.5606
1595.56	36.5699
1595.82	40.5421
1596.08	36.5467
1596.34	30.584
1596.6	34.5543
1596.86	34.5521
1597.12	34.551
1597.38	41.5044
1597.64	36.5387
1597.9	38.5266
1598.16	34.5491
1598.42	37.5231
1598.68	36.5201
1598.94	41.4714
1599.2	30.5383
1599.46	36.4845
1599.72	29.5288
1599.98	35.4737
1600.24	44.3927
1600.5	32.4801
1600.76	38.4206
1601.02	32.4593
1601.28	37.4012
1601.54	30.4496
1601.8	39.3503
1602.06	39.3362
1602.32	39.3247
1602.58	35.3547
1602.84	34.3542
1603.1	32.3638
1603.36	33.3425
1603.62	34.3221
1603.88	32.3371
1604.14	32.3315
1604.4	37.2718
1604.66	33.315
1604.92	31.336
1605.17	38.2552
1605.43	36.276
1605.69	41.2191
1605.95	39.2424
1606.21	37.2667
1606.47	38.2587
1606.73	33.3152
1606.99	35.2952
1607.25	33.3287
1607.51	34.3137
1607.77	37.2131
1608.03	33.5007
1608.29	36.3225
1608.55	32.4413
1608.81	37.9873
1609.07	31.548
1609.32	32.5123
1609.58	32.8309
1609.84	41.4299
1610.1	36.1328
1610.36	37.5419
1610.62	30.3795
1610.88	35.1897
1611.14	38.3983
1611.4	30.4409
1611.66	40.6853
1611.92	35.3902
1612.18	36.8932
1612.44	37.2271
1612.69	36.0878
1612.95	36.6288
1613.21	34.0045
1613.47	38.8966
1613.73	36.6509
1613.99	35.8503
1614.25	37.7338
1614.51	36.8616
1614.77	36.9177
1615.03	36.4887
1615.29	39.793
1615.54	38.7733
1615.8	36.1427
1616.06	38.0942
1616.32	37.7056
1616.58	38.23
1616.84	36.6972
1617.1	34.5239
1617.36	34.3066
1617.62	36.1199
1617.88	35.8528
1618.13	37.3075
1618.39	35.1159
1618.65	33.9355
1618.91	37.1212
1619.17	35.0887
1619.43	36.3433
1619.69	37.519
1619.95	33.9722
1620.2	35.1146
1620.46	35.7809
1620.72	35.3329
1620.98	34.3634
1621.24	37.2357
1621.5	37.358
1621.76	37.1196
1622.02	35.1761
1622.27	35.171
1622.53	35.5134
1622.79	33.8201
1623.05	34.4665
1623.31	37.0548
1623.57	35.8032
1623.83	35.2412
1624.09	35.3586
1624.34	36.8863
1624.6	36.4245
1624.86	37.3428
1625.12	38.2486
1625.38	34.6714
1625.64	34.936
1625.9	36.7484
1626.15	37.6819
1626.41	34.6577
1626.67	36.4555
1626.93	38.5988
1627.19	36.7364
1627.45	38.5898
1627.7	34.8993
1627.96	36.2208
1628.22	37.3567
1628.48	36.5565
1628.74	37.4499
1629	37.972
1629.26	39.5922
1629.51	37.0608
1629.77	35.1448
1630.03	36.1416
1630.29	37.657
1630.55	35.5824
1630.81	34.3643
1631.06	34.825
1631.32	37.0916
1631.53	37.108
1631.79	39.0812
1632.05	36.1296
1632.31	33.1764
1632.57	34.1578
1632.84	40.0788
1633.1	36.1508
1633.36	36.1358
1633.62	40.0571
1633.88	43.0061
1634.14	36.1113
1634.4	38.0855
1634.66	30.1996
1634.93	39.069
1635.19	41.0373
1635.45	36.105
1635.71	37.086
1635.97	36.095
1636.23	39.0451
1636.49	38.0527
1636.75	37.0604
1637.02	33.1129
1637.28	39.0146
1637.54	39.0052
1637.8	40.9684
1638.06	31.1186
1638.32	37.0204
1638.58	40.9518
1638.84	36.0246
1639.1	37.9911
1639.37	37.9887
1639.63	37.9858
1639.89	33.0613
1640.15	38.9642
1640.41	36.0074
1640.67	37.9746
1640.93	34.0409
1641.19	40.9354
1641.46	37.9803
1641.72	34.0366
1641.98	36.9841
1642.24	35.9946
1642.5	37.9591
1642.76	38.9393
1643.02	34.0134
1643.28	35.9784
1643.54	34.0064
1643.8	39.9086
1644.06	37.9345
1644.33	38.9121
1644.59	34.9679
1644.85	36.9285
1645.11	37.9086
1645.37	33.9734
1645.63	38.8952
1645.89	39.8796
1646.15	37.9094
1646.41	34.9512
1646.67	35.9285
1646.93	37.8899
1647.19	36.9012
1647.46	36.895
1647.72	35.905
1647.98	39.833
1648.24	37.8628
1648.5	32.9445
1648.76	39.8328
1649.02	37.8701
1649.28	34.9328
1649.54	35.9214
1649.8	32.9618
1650.06	33.94
1650.32	39.8432
1650.58	38.8674
1650.85	34.9345
1651.11	38.8784
1651.37	41.8388
1651.63	34.9439
1651.89	42.8267
1652.15	38.8826
1652.41	32.9674
1652.67	32.9661
1652.93	33.9458
1653.19	35.9099
1653.45	38.8612
1653.71	33.9325
1653.97	36.8873
1654.23	36.8884
1654.49	37.8736
1654.75	35.9015
1655.01	35.9014
1655.27	36.8889
1655.53	37.8794
1655.8	41.8324
1656.06	37.8981
1656.32	32.9702
1656.57	32.9726
1656.84	34.9471
1657.1	35.9332
1657.36	39.8781
1657.62	33.9501
1657.88	34.9309
1658.14	36.8998
1658.4	32.9474
1658.66	36.8882
1658.92	35.8941
1659.18	38.8456
1659.44	37.8512
1659.7	35.8711
1659.96	37.8353
1660.22	34.8676
1660.48	36.8394
1660.74	35.8555
1661	34.8722
1661.26	36.8482
1661.52	33.8929
1661.78	34.8837
1662.04	36.8576
1662.3	33.8972
1662.56	33.8649
1662.82	35.8996
1663.08	35.9331
1663.34	37.8882
1663.6	31.9519
1663.86	33.9176
1664.12	34.8339
1664.38	36.8408
1664.64	31.9107
1664.9	36.8475
1665.16	39.8264
1665.42	38.8436
1665.68	35.8395
1665.94	37.7768
1666.2	33.9137
1666.46	39.8513
1666.72	36.8784
1666.98	34.8514
1667.24	37.6973
1667.5	33.8535
1667.76	35.8178
1668.02	37.7832
1668.28	34.8167
1668.54	34.8085
1668.8	33.8202
1669.06	33.8323
1669.32	32.8606
1669.58	33.8492
1669.84	38.7861
1670.1	33.846
1670.36	37.7908
1670.62	33.8375
1670.88	35.8282
1671.14	35.8372
1671.4	41.7619
1671.66	38.791
1671.92	35.8218
1672.18	35.8207
1672.44	37.7981
1672.69	35.8198
1672.95	33.84
1673.21	34.8258
1673.47	35.8127
1673.73	33.8344
1673.99	34.8228
1674.25	40.7564
1674.51	32.8479
1674.77	31.8602
1675.03	34.8291
1675.29	38.7904
1675.55	38.7937
1675.81	35.8256
1676.07	38.7924
1676.33	37.7996
1676.59	37.7983
1676.85	36.808
1677.11	36.8064
1677.37	35.8135
1677.63	31.8503
1677.89	36.7929
1678.14	39.7536
1678.4	37.7651
1678.66	38.7436
1678.92	34.7787
1679.18	34.7715
1679.44	35.7534
1679.7	33.7708
1679.96	32.7765
1680.22	36.724
1680.48	34.7422
1680.74	36.7125
1681	36.7063
1681.26	36.7005
1681.52	36.6962
1681.78	30.7655
1682.03	34.7143
1682.29	29.7721
1682.55	34.7093
1682.81	33.7195
1683.07	32.7276
1683.33	33.712
1683.59	32.7211
1683.85	33.7064
1684.11	33.7029
1684.37	37.6493
1684.63	35.6659
1684.89	31.7101
1685.14	35.656
1685.4	34.6647
1685.66	33.674
1685.92	39.596
1686.18	35.6438
1686.44	32.6795
1686.7	30.7044
1686.96	32.6834
1687.22	36.6355
1687.48	38.6095
1687.73	34.6527
1687.99	37.6094
1688.25	36.615
1688.51	29.6964
1688.77	37.59
1689.03	33.633
1689.29	34.6105
1689.55	37.5629
1689.81	32.6203
1690.06	31.625
1690.32	32.6018
1690.58	38.5147
1690.84	31.6154
1691.1	31.6167
1691.36	37.537
1691.62	31.6158
1691.88	34.577
1692.13	34.5774
1692.39	34.5748
1692.65	37.5311
1692.91	33.5761
1693.17	34.5538
1693.43	34.5436
1693.69	32.5598
1693.95	38.4625
1694.2	34.51
1694.46	30.5593
1694.72	39.4171
1694.98	34.4837
1695.24	32.5106
1695.5	35.4651
1695.76	36.4495
1696.01	34.4785
1696.27	32.5077
1696.53	37.4365
1696.79	29.5532
1697.05	27.5794
1697.31	29.5451
1697.57	41.3599
1697.82	34.4521
1698.08	31.4865
1698.34	36.4
1698.6	33.4383
1698.86	30.4778
1699.12	36.3754
1699.38	33.4183
1699.63	32.4309
1699.89	32.43
1700.15	36.3637
1700.41	32.4255
1700.67	34.3849
1700.92	35.3646
1701.18	32.4091
1701.44	39.2906
1701.7	34.3665
1701.96	33.375
1702.22	34.3492
1702.47	28.4421
1702.73	29.4169
1702.99	33.3399
1703.25	34.3181
1703.51	35.2971
1703.77	34.3097
1704.02	30.374
1704.28	36.2641
1704.54	35.2822
1704.8	36.2668
1705.06	35.2826
1705.32	38.2262
1705.57	37.2387
1705.83	32.3232
1706.09	36.2508
1706.35	35.2603
1706.61	37.2147
1706.86	36.2216
1707.12	32.2832
1707.38	36.1988
1707.64	36.1886
1707.9	32.2525
1708.16	36.1627
1708.41	34.1881
1708.67	41.0355
1708.93	34.1603
1709.19	39.0438
1709.44	37.0741
1709.7	38.0451
1709.96	35.103
1710.22	37.0577
1710.48	34.1189
1710.73	37.0543
1710.99	36.0756
1711.25	39.0158
1711.51	34.1202
1711.77	36.0793
1712.02	32.1614
1712.28	32.1593
1712.54	35.0913
1712.8	33.1209
1713.06	35.0625
1713.31	37.0017
1713.57	31.1173
1713.83	35.9915
1714.09	34.9985
1714.34	34.9895
1714.6	30.0983
1714.86	34.9768
1715.12	35.9489
1715.38	34.9689
1715.63	33.9953
1715.89	33.0228
1716.15	38.8824
1716.41	35.9456
1716.66	33.9842
1716.92	37.8811
1717.18	35.9153
1717.44	35.9003
1717.69	38.8098
1717.95	30.9873
1718.21	37.7944
1718.47	33.8804
1718.72	31.9188
1718.98	31.9093
1719.24	36.7711
1719.5	35.7941
1719.75	37.7383
1720.01	39.6807
1720.27	35.7863
1720.53	30.9167
1720.78	32.8583
1721.04	37.7169
1721.3	31.8654
1721.56	32.8291
1721.81	32.82
1722.07	31.8376
1722.33	38.6332
1722.59	33.7607
1722.84	29.8626
1723.1	36.6539
1723.36	34.7009
1723.62	35.6636
1723.87	30.8016
1724.13	36.6249
1724.39	32.7354
1724.64	30.7892
1724.9	33.694
1725.16	35.6237
1725.42	37.5477
1725.67	37.532
1725.93	36.546
1726.19	32.6579
1726.45	34.5896
1726.7	33.6203
1726.96	33.6152
1727.22	31.6698
1727.47	30.6877
1727.73	33.5899
1727.99	33.5951
1728.24	37.4652
1728.5	36.4878
1728.76	27.7581
1729.02	29.6519
1729.27	33.4662
1729.53	34.4099
1729.79	35.3919
1730.05	36.3731
1730.3	36.3844
1730.56	36.36
1730.82	30.5554
1731.07	36.3416
1731.33	38.3119
1731.59	34.4461
1731.84	36.377
1732.1	33.4742
1732.36	34.4361
1732.61	36.3627
1732.87	39.2548
1733.13	37.3142
1733.39	36.338
1733.64	40.1867
1733.9	35.3426
1734.16	35.3255
1734.41	36.2768
1734.67	37.2272
1734.93	36.249
1735.18	35.2712
1735.44	33.3312
1735.7	40.06
1735.95	35.2354
1736.21	33.3023
1736.47	36.1842
1736.72	34.2531
1736.98	35.2082
1737.24	34.2388
1737.49	32.3072
1737.75	34.2241
1738.01	30.3702
1738.26	34.2087
1738.52	36.1218
1738.78	34.1893
1739.03	34.1796
1739.29	36.0905
1739.55	36.0776
1739.8	35.1016
1740.06	33.1641
1740.32	38.9032
1740.57	35.0505
1740.83	35.9957
1741.09	33.1093
1741.34	33.0994
1741.6	38.8372
1741.86	34.9958
1742.11	36.9027
1742.37	36.8962
1742.63	34.9766
1742.88	37.8433
1743.14	34.0078
1743.4	33.0459
1743.65	33.9995
1743.91	32.0794
1744.16	36.8548
1744.42	37.8026
1744.68	37.7944
1744.93	34.9196
1745.19	33.0039
1745.45	34.9149
1745.7	32.9992
1745.96	32.9949
1746.22	38.7263
1746.47	34.8914
1746.73	32.0122
1746.98	34.867
1747.24	33.901
1747.5	33.8889
1747.75	36.7433
1748.01	32.9135
1748.27	36.7255
1748.52	33.8584
1748.78	33.8562
1749.03	41.4918
1749.29	31.9452
1749.55	36.7202
1749.8	40.5432
1750.06	36.728
1750.32	34.8229
1750.57	36.7395
1750.83	35.7888
1751.08	38.6567
1751.34	34.8346
1751.6	35.789
1751.85	34.8259
1752.11	30.991
1752.36	35.7558
1752.62	30.9695
1752.88	31.9153
1753.13	36.6791
1753.39	39.5318
1753.64	32.8417
1753.9	35.696
1754.15	33.7797
1754.41	31.8622
1754.67	35.6669
1754.92	34.7055
1755.18	35.6513
1755.43	37.551
1755.69	36.5907
1755.95	32.7704
1756.2	31.8083
1756.46	34.6553
1756.71	34.6436
1756.97	35.5818
1757.23	32.7132
1757.48	30.7986
1757.74	35.5483
1757.99	33.6392
1758.25	37.4433
1758.5	37.4517
1758.76	35.5495
1759.02	33.6447
1759.27	33.6425
1759.53	33.6403
1759.78	38.3976
1760.04	31.7331
1760.3	35.5343
1760.55	38.3831
1760.81	36.4742
1761.06	38.3699
1761.32	35.5079
1761.57	36.4492
1761.83	41.194
1762.08	35.4825
1762.34	36.4278
1762.6	35.4732
1762.85	38.3287
1763.11	32.6255
1763.36	32.6236
1763.62	33.5704
1763.87	40.2248
1764.13	34.5197
1764.38	31.6677
1764.64	34.5252
1764.89	36.4385
1765.15	34.5382
1765.4	40.2513
1765.66	32.6369
1765.92	36.4446
1766.17	35.4913
1766.43	36.4409
1766.68	31.677
1766.94	38.3357
1767.19	37.3785
1767.45	36.4235
1767.7	37.3698
1767.96	38.3138
1768.21	35.4508
1768.47	35.4442
1768.73	39.244
1768.98	35.4334
1769.24	37.3182
1769.49	38.2455
1769.75	38.2233
1770	33.46
1770.26	36.3071
1770.51	37.2628
1770.77	38.2196
1771.02	36.3176
1771.28	39.1681
1771.53	33.4736
1771.79	37.286
1772.04	37.2882
1772.3	30.6311
1772.55	35.3891
1772.81	35.3937
1773.06	41.1053
1773.32	36.3499
1773.57	40.1584
1773.83	32.5457
1774.08	38.2575
1774.34	35.4021
1774.59	34.4495
1774.85	35.4007
1775.1	32.5464
1775.36	38.2603
1775.61	38.2645
1775.87	36.3735
1776.12	38.2867
1776.38	35.4292
1776.63	38.288
1776.89	38.2837
1777.14	33.5104
1777.4	39.2202
1777.65	33.4959
1777.91	34.4402
1778.16	39.1944
1778.42	35.375
1778.67	36.3184
1778.93	35.3561
1779.18	34.3924
1779.44	34.3803
1779.69	33.4208
1779.95	39.1258
1780.2	39.1345
1780.46	31.5211
1780.71	37.2315
1780.97	36.2804
1781.22	34.3775
1781.47	38.1837
1781.73	36.2787
1781.98	36.2795
1782.24	40.091
1782.49	38.1901
1782.75	34.3859
1783	35.3414
1783.26	29.6255
1783.51	39.1566
1783.77	30.5806
1784.02	33.4419
1784.28	35.3511
1784.53	36.3086
1784.79	37.2692
1785.04	38.2265
1785.29	35.3649
1785.55	34.4082
1785.8	36.312
1786.06	34.3977
1786.31	39.1609
1786.57	37.2513
1786.82	33.436
1787.08	35.3471
1787.33	30.5804
1787.58	37.2686
1787.84	35.3702
1788.09	33.4777
1788.35	40.1901
1788.6	32.5585
1788.86	34.4843
1789.11	34.4877
1789.37	34.4933
1789.62	37.3778
1789.87	35.4682
1790.13	37.3871
1790.38	35.4724
1790.64	37.3919
1790.89	33.555
1791.15	40.2614
1791.4	32.5824
1791.65	31.6021
1791.91	30.6391
1792.16	35.4219
1792.42	32.5468
1792.67	30.6301
1792.93	35.4182
1793.18	31.5886
1793.43	35.4207
1793.69	31.587
1793.94	33.5009
1794.2	32.5446
1794.45	32.5433
1794.7	38.2894
1794.96	30.6165
1795.21	33.4977
1795.47	34.4803
1795.72	34.4956
1795.97	32.5824
1796.23	36.4252
1796.48	30.6681
1796.74	33.5526
1796.99	35.4779
1797.25	37.4042
1797.5	30.6818
1797.75	34.5288
1798.01	28.7632
1798.26	37.4165
1798.51	31.6485
1798.77	32.6094
1799.02	38.3766
1799.28	35.4874
1799.53	30.6739
1799.78	32.5891
1800.04	33.5412
1800.29	30.6498
1800.55	34.486
1800.8	32.558
1801.05	35.4343
1801.31	34.4691
1801.56	33.5049
1801.81	35.4234
1802.07	36.3827
1802.32	29.6583
1802.58	33.5015
1802.83	37.3467
1803.08	32.5455
1803.34	30.627
1803.59	31.5925
1803.84	37.3651
1804.1	36.4043
1804.35	28.7098
1804.61	31.5966
1804.86	31.6
1805.11	30.6411
1805.37	31.6078
1805.62	31.6132
1805.87	31.6184
1806.13	32.5859
1806.38	38.3694
1806.64	34.5189
1806.89	29.7028
1807.14	35.4853
1807.4	34.5202
1807.65	31.6267
1807.9	29.6966
1808.16	25.8391
1808.41	32.5839
1808.66	32.5822
1808.92	32.5806
1809.17	29.6875
1809.42	31.6141
1809.68	34.5047
1809.93	33.5396
1810.18	34.5026
1810.44	32.5729
1810.69	34.499
1810.94	31.6024
1811.2	31.5983
1811.45	33.5234
1811.7	34.4842
1811.96	33.5171
1812.21	36.4071
1812.46	31.5858
1812.72	31.5867
1812.97	35.4461
1813.22	37.379
1813.48	30.6291
1813.73	35.4521
1813.98	33.5248
1814.24	34.4949
1814.49	33.5363
1814.74	35.4745
1815	33.5518
1815.25	32.5896
1815.5	36.4576
1815.76	34.5253
1816.01	33.5581
1816.26	30.6576
1816.52	28.7235
1816.77	33.5561
1817.02	33.556
1817.27	35.4848
1817.53	28.7114
1817.78	35.458
1818.03	30.6146
1818.29	29.6477
1818.54	31.5825
1818.79	35.4536
1819.05	33.5238
1819.3	34.4859
1819.55	32.553
1819.8	36.4207
1820.06	32.5558
1820.31	29.6558
1820.56	35.4582
1820.82	31.5923
1821.07	33.5276
1821.32	32.561
1821.58	36.4324
1821.83	36.4357
1822.08	31.6001
1822.33	33.5368
1822.59	29.6658
1822.84	25.7934
1823.09	31.6004
1823.34	31.5995
1823.6	33.5324
1823.85	34.495
1824.1	35.4568
1824.36	32.5497
1824.61	36.4216
1824.86	33.5182
1825.11	30.6141
1825.37	32.5511
1825.62	30.6154
1825.87	28.6783
1826.12	32.55
1826.38	27.7051
1826.63	30.6085
1826.88	34.4807
1827.14	32.542
1827.39	32.5415
1827.64	29.636
1827.89	33.5119
1828.15	30.606
1828.4	31.5726
1828.65	31.5687
1828.9	31.563
1829.16	30.5873
1829.41	40.2674
1829.66	35.4207
1829.91	33.4798
1830.17	34.4437
1830.42	34.4371
1830.67	39.2716
1830.92	33.4562
1831.18	35.39
1831.43	33.455
1831.68	34.4253
1831.93	35.3961
1832.19	36.3667
1832.44	33.4625
1832.69	30.558
1832.94	35.4072
1833.2	30.5635
1833.45	29.5922
1833.7	35.4061
1833.95	29.5905
1834.2	32.4977
1834.46	33.4669
1834.71	32.4863
1834.96	31.4978
1835.21	32.4478
1835.47	36.3015
1835.72	33.3854
1835.97	33.3737
1836.22	32.4033
1836.48	36.2614
1836.73	28.639
1836.98	31.5455
1837.23	29.561
1837.48	30.5133
1837.74	31.4573
1837.99	33.3706
1838.24	30.4334
1838.49	31.3782
1838.74	33.3039
1839	33.3577
1839.25	31.4426
1839.5	33.3895
1839.75	30.4848
1840	33.3938
1840.26	30.4915
1840.51	33.3661
1840.76	34.3078
1841.01	35.2519
1841.27	26.5308
1841.52	33.2794
1841.77	32.296
1842.02	28.4185
1842.27	31.3007
1842.53	30.3226
1842.78	31.2743
1843.03	36.1004
1843.28	34.1651
1843.53	31.2726
1843.78	36.0926
1844.04	33.1961
1844.29	32.2255
1844.54	34.1517
1844.79	32.2241
1845.04	31.2576
1845.3	29.3207
1845.55	33.1775
1845.8	34.1397
1846.05	31.2565
1846.3	34.164
1846.55	31.2776
1846.81	32.2638
1847.06	32.2431
1847.31	34.1228
1847.56	24.433
1847.81	31.1604
1848.07	35.0089
1848.32	31.1718
1848.57	32.1474
1848.82	30.202
1849.07	32.1169
1849.32	29.2268
1849.57	29.2183
1849.83	29.2072
1850.08	29.1954
1850.33	31.1077
1850.58	31.0932
1850.83	33.9648
1851.09	30.1097
1851.34	31.0612
1851.59	32.9736
1851.84	29.1247
1852.09	31.0396
1852.34	29.115
1852.59	32.9531
1852.84	32.9506
1853.1	31.9876
1853.35	31.0239
1853.6	27.1787
1853.85	33.8933
1854.1	31.9643
1854.35	34.8315
1854.6	29.0617
1854.86	33.8458
1855.11	31.9201
1855.36	29.0364
1855.61	31.9006
1855.86	34.7617
1856.11	28.0469
1856.36	32.8311
1856.61	30.9111
1856.87	28.035
1857.12	32.8213
1857.37	28.9861
1857.62	31.854
1857.87	31.8476
1858.12	34.7134
1858.37	35.6626
1858.63	29.91
1858.88	33.7281
1859.13	31.8042
1859.38	31.7937
1859.63	30.8266
1859.88	31.7746
1860.13	34.6392
1860.38	32.7248
1860.63	30.8121
1860.89	31.7716
1861.14	32.7311
1861.39	32.7334
1861.64	34.6506
1861.89	31.7829
1862.14	29.868
1862.39	31.7777
1862.64	30.8135
1862.9	34.6305
1863.15	28.8814
1863.4	34.6087
1863.65	29.8184
1863.9	30.765
1864.15	29.8007
1864.4	28.8372
1864.65	34.5606
1864.9	29.7766
1865.15	32.6322
1865.4	33.5757
1865.66	31.6543
1865.91	34.5029
1866.16	36.3941
1866.41	31.61
1866.66	30.6408
1866.91	32.5299
1867.16	32.5135
1867.41	29.6425
1867.66	30.5797
1867.91	35.3228
1868.16	28.6583
1868.41	28.6524
1868.67	31.4997
1868.92	33.3989
1869.17	35.2996
1869.42	31.4938
1869.67	31.4896
1869.92	33.3861
1870.17	27.6783
1870.42	32.4267
1870.67	31.472
1870.92	27.6664
1871.17	29.5639
1871.42	34.3128
1871.67	31.4567
1871.92	30.5003
1872.17	29.5423
1872.42	26.6862
1872.68	31.4301
1872.93	35.2203
1873.18	28.564
1873.43	32.3548
1873.68	29.5028
1873.93	37.0917
1874.18	34.2365
1874.43	31.3805
1874.68	31.3708
1874.93	30.4117
1875.18	33.2459
1875.43	32.286
1875.68	32.2741
1875.93	34.1545
1876.18	28.4516
1876.43	35.0637
1876.68	34.104
1876.93	32.201
1877.18	32.1937
1877.43	26.5025
1877.68	34.9866
1877.93	29.281
1878.18	33.0808
1878.44	34.1487
1878.69	34.0976
1878.93	30.2946
1879.19	30.2881
1879.44	35.0497
1879.69	29.3791
1879.94	34.103
1880.19	32.1961
1880.44	32.1919
1880.69	30.2936
1880.94	32.1919
1881.19	30.2884
1881.44	30.2842
1881.69	30.2688
1881.94	34.98
1882.19	29.2873
1882.44	29.2687
1882.69	26.4158
1882.94	31.1125
1883.19	32.9877
1883.44	32.0178
1883.69	36.9771
1883.94	30.1973
1884.19	28.2293
1884.44	30.1139
1884.69	34.8447
1884.94	32.9381
1885.19	34.8339
1885.44	29.1895
1885.69	36.7392
1885.94	29.1924
1886.19	33.925
1886.44	33.9305
1886.69	29.211
1886.94	30.1497
1887.19	31.0782
1887.44	30.1247
1887.69	33.8891
1887.94	34.8213
1888.19	31.9803
1888.44	34.7969
1888.69	28.1832
1888.94	31.939
1889.19	31.926
1889.44	31.9132
1889.69	30.0224
1889.94	31.9014
1890.19	31.8972
1890.44	30.9563
1890.69	32.8441
1890.94	35.6748
1891.19	30.9653
1891.43	30.0196
1891.68	33.7813
1891.94	29.0693
1892.18	29.0647
1892.43	30.9438
1892.68	30.9401
1892.93	32.8159
1893.18	29.0411
1893.43	30.9097
1893.68	29.949
1893.93	31.8114
1894.18	31.8048
1894.43	34.6276
1894.68	32.7327
1894.93	30.845
1895.18	28.0217
1895.43	32.7173
1895.68	31.7776
1895.93	34.5974
1896.18	33.6592
1896.43	31.7813
1896.68	33.6642
1896.93	32.7281
1897.18	29.9101
1897.42	25.2089
1897.68	33.6743
1897.92	31.792
1898.17	29.908
1898.42	33.6659
1898.67	31.7783
1898.92	30.8297
1899.17	33.6403
1899.42	30.8092
1899.67	31.7402
1899.92	28.9154
1900.17	28.9089
1900.42	35.4782
1900.67	32.6563
1900.92	31.7154
1901.16	35.4741
1901.41	31.719
1901.66	28.9038
1901.91	31.7271
1902.16	31.7312
1902.41	31.7363
1902.66	31.7408
1902.91	30.7979
1903.16	31.7332
1903.41	31.7273
1903.66	36.4227
1903.91	30.775
1904.16	27.9496
1904.41	27.9457
1904.65	33.5833
1904.9	30.759
1905.15	30.7547
1905.4	32.631
1905.65	33.568
1905.9	27.9234
1906.15	33.5512
1906.4	31.6579
1906.65	28.8329
1906.9	31.6444
1907.14	32.5776
1907.39	33.5116
1907.64	31.6313
1907.89	33.5089
1908.14	34.45
1908.39	29.7571
1908.64	34.4545
1908.89	26.9376
1909.14	34.4552
1909.39	30.699
1909.63	28.8229
1909.88	30.7083
1910.13	33.5368
1910.38	34.4865
1910.63	28.8493
1910.88	31.6804
1911.13	34.5103
1911.38	31.6878
1911.62	36.3982
1911.87	30.7452
1912.12	31.6844
1912.37	34.5054
1912.62	33.5585
1912.87	33.5552
1913.12	28.8433
1913.37	30.7245
1913.61	30.7231
1913.86	34.4935
1914.11	30.7319
1914.36	34.5099
1914.61	34.5156
1914.86	29.8052
1915.11	31.6959
1915.36	28.8694
1915.6	33.5891
1915.85	37.3631
1916.1	28.8671
1916.35	29.8056
1916.6	31.6883
1916.85	28.851
1917.1	30.7284
1917.34	36.3783
1917.59	30.7131
1917.84	35.4211
1918.09	31.6454
1918.34	27.8727
1918.59	29.76
1918.83	25.9918
1919.08	33.5434
1919.33	31.6639
1919.58	29.784
1919.83	30.7386
1920.08	35.4708
1920.33	34.5304
1920.57	29.8048
1920.82	31.6883
1921.07	29.7982
1921.32	30.7487
1921.57	33.5907
1921.81	30.7568
1922.06	35.4871
1922.31	29.8132
1922.56	38.3227
1922.81	28.86
1923.06	30.744
1923.31	30.7368
1923.55	31.6765
1923.8	31.6713
1924.05	32.6109
1924.3	29.7684
1924.55	28.8154
1924.79	32.5883
1925.04	32.5844
1925.29	28.8041
1925.54	35.4198
1925.79	30.6994
1926.04	29.7612
1926.28	32.6042
1926.53	30.7185
1926.78	34.5094
1927.03	30.7322
1927.28	28.8429
1927.52	29.7917
1927.77	29.7935
1928.02	29.7948
1928.27	27.9014
1928.52	31.6913
1928.76	35.4806
1929.01	29.7978
1929.26	31.6945
1929.51	34.5406
1929.76	27.9099
1930	32.6579
1930.25	32.664
1930.5	33.6206
1930.75	31.7283
1931	33.6333
1931.24	34.5829
1931.49	29.834
1931.74	30.7785
1931.99	32.6703
1932.24	32.6632
1932.48	30.7579
1932.73	35.4954
1932.98	28.8459
1933.23	33.5855
1933.47	31.6811
1933.72	32.6293
1933.97	30.7386
1934.22	31.701
1934.46	27.9198
1934.71	29.8448
1934.96	33.6755
1935.21	28.9368
1935.46	28.9527
1935.7	30.8719
1935.95	31.8339
1936.2	29.9032
1936.45	30.8505
1936.69	29.8929
1936.94	31.7922
1937.19	32.7355
1937.44	31.7722
1937.68	27.9537
1937.93	33.6575
1938.18	34.6005
1938.43	30.7838
1938.68	33.6361
1938.92	30.7895
1939.17	29.8386
1939.42	30.7931
1939.67	32.7009
1939.91	31.7501
1940.16	28.8947
1940.41	25.0821
1940.66	27.9451
1940.9	32.7161
1941.15	31.782
1941.4	29.8836
1941.64	29.881
1941.89	31.7828
1942.14	31.7685
1942.39	31.7461
1942.63	27.9411
1942.88	33.696
1943.13	34.6566
1943.38	29.8811
1943.62	35.5929
1943.87	27.9412
1944.12	32.6973
1944.37	34.625
1944.61	28.9029
1944.86	33.6804
1945.11	28.911
1945.35	29.8711
1945.6	29.8763
1945.85	31.7928
1946.1	26.062
1946.34	30.8451
1946.59	34.6725
1946.84	27.9793
1947.09	29.8914
1947.33	27.019
1947.58	25.1013
1947.83	30.8334
1948.07	34.655
1948.32	32.7397
1948.57	31.7807
1948.82	33.6877
1949.06	30.8183
1949.31	30.8216
1949.56	26.9992
1949.8	27.9595
1950.05	30.8354
1950.3	30.8413
1950.54	30.8523
1950.79	32.7808
1951.04	32.7904
1951.29	31.8423
1951.53	32.8127
1951.78	28.9846
1952.03	28.0314
1952.27	28.9948
1952.52	28.9968
1952.77	32.8409
1953.01	29.9558
1953.26	30.9196
1953.51	30.9252
1953.76	33.7954
1954	36.6601
1954.25	31.8352
1954.49	31.8141
1954.74	28.9183
1954.99	33.6925
1955.24	28.895
1955.48	31.7653
1955.73	32.7247
1955.98	32.7314
1956.22	27.9499
1956.47	26.0492
1956.72	31.8126
1956.96	32.7809
1957.21	29.9037
1957.46	33.7502
1957.7	31.8338
1957.95	28.9551
1958.2	27.996
1958.44	28.9575
1958.69	37.6075
1958.94	32.801
1959.18	28.9511
1959.43	30.8646
1959.68	33.7414
1959.92	27.9726
1960.17	34.6902
1960.42	32.7609
1960.66	34.6739
1960.91	30.8244
1961.16	33.6959
1961.4	29.8476
1961.65	26.961
1961.9	28.8748
1962.14	33.6717
1962.39	29.8322
1962.63	33.67
1962.88	32.7092
1963.13	32.7081
1963.37	32.7069
1963.62	28.8658
1963.87	32.7043
1964.11	35.5835
1964.36	30.7848
1964.61	31.746
1964.85	38.4647
1965.1	30.7776
1965.35	28.8552
1965.59	31.7321
1965.84	30.77
1966.08	31.731
1966.33	26.9324
1966.58	37.5041
1966.82	34.6275
1967.07	35.5917
1967.32	32.7103
1967.56	33.6679
1967.81	32.7044
1968.05	33.6662
1968.3	30.781
1968.55	32.7027
1968.79	30.7767
1969.04	36.5389
1969.29	29.8018
1969.53	32.6742
1969.78	31.7002
1970.02	33.6076
1970.27	32.636
1970.52	32.6263
1970.76	30.6995
1971.01	31.6509
1971.25	31.6433
1971.5	37.3927
1971.75	31.6311
1971.99	30.6668
1972.24	31.6258
1972.48	35.4637
1972.73	33.5444
1972.98	34.5008
1973.22	29.6988
1973.47	35.4457
1973.71	38.3116
1973.96	36.3843
1974.21	31.5837
1974.45	33.4953
1974.7	32.5329
1974.94	33.489
1975.19	34.4463
1975.44	35.4053
1975.68	34.4488
1975.93	34.4518
1976.17	32.536
1976.42	32.537
1976.66	34.4551
1976.91	32.5354
1977.16	31.5737
1977.4	39.244
1977.65	35.4021
1977.89	33.4772
1978.14	37.3049
1978.39	35.3784
1978.63	37.2881
1978.88	34.4057
1979.12	34.4009
1979.37	36.3152
1979.61	35.3554
1979.86	29.6019
1980.1	34.3934
1980.35	35.3501
1980.6	32.4685
1980.84	36.2931
1981.09	28.6188
1981.33	32.446
1981.58	36.2704
1981.82	26.6852
1982.07	35.3008
1982.31	40.0857
1982.56	38.166
1982.81	35.2845
1983.05	36.2332
1983.3	30.4785
1983.54	40.0357
1983.79	29.5002
1984.03	36.1909
1984.28	38.0987
1984.52	41.9182
1984.77	34.2602
1985.02	32.3419
1985.26	33.2898
1985.51	34.234
1985.75	36.1385
1986	35.1803
1986.24	35.1801
1986.49	36.1386
1986.73	38.0546
1986.98	38.0554
1987.22	37.0952
1987.47	34.2267
1987.71	38.0424
1987.96	39.9399
1988.21	33.2349
1988.45	34.1744
1988.7	38.9297
1988.94	37.9468
1989.19	36.0322
1989.43	35.8714
1989.68	34.9332
1989.92	35.8897
1990.17	35.7409
1990.41	35.7853
1990.66	37.7286
1990.9	42.2127
1991.15	34.4321
1991.39	39.3854
1991.64	35.9761
1991.88	38.1914
1992.13	38.1986
1992.37	34.9383
1992.62	37.1851
1992.86	39.9757
1993.11	32.7374
1993.35	38.1111
1993.6	35.2598
1993.84	37.6544
1994.09	38.585
1994.33	39.8527
1994.58	36.0391
1994.82	36.8222
1995.07	39.8922
1995.31	36.2871
1995.56	39.8053
1995.8	40.4629
1996.05	36.467
1996.29	40.4892
1996.54	37.1806
1996.78	37.0034
1997.03	36.8418
1997.27	35.5686
1997.52	38.1098
1997.76	38.9576
1998.01	40.0158
1998.25	36.7709
1998.5	40.2183
1998.74	40.9944
1998.99	39.5128
1999.23	40.7778
1999.48	37.4538
1999.72	38.6332
1999.97	36.8743
2000.21	37.482
2000.46	36.7953
2000.7	38.2615
2000.95	40.0332
2001.19	38.9212
2001.43	39.2609
2001.68	37.2143
2001.92	38.8935
2002.17	40.3682
2002.41	39.7839
2002.66	39.4551
2002.9	38.6951
2003.15	39.9852
2003.39	36.4841
2003.64	38.9801
2003.88	42.7003
2004.13	39.8029
2004.37	40.3566
2004.61	39.3569
2004.86	38.094
2005.1	39.8886
2005.35	41.3876
2005.59	36.6879
2005.84	37.1058
2006.08	40.6976
2006.33	40.7845
2006.57	36.8884
2006.81	41.0531
2007.06	40.8684
2007.3	41.2969
2007.55	38.0752
2007.79	40.7717
2008.04	42.0274
2008.28	36.894
2008.53	40.1537
2008.77	43.0038
2009.01	39.7274
2009.26	40.2218
2009.5	38.5104
2009.75	38.9491
2009.99	39.5521
2010.24	39.1883
2010.48	38.6504
2010.73	37.2748
2010.97	36.2113
2011.21	37.5537
2011.46	38.5201
2011.7	35.2629
2011.95	39.3263
2012.19	35.0972
2012.43	44.2596
2012.68	32.9557
2012.92	39.5433
2013.17	39.5344
2013.42	40.461
2013.67	35.7377
2013.91	39.4878
2014.16	38.5329
2014.41	36.6363
2014.66	33.7996
2014.9	40.3533
2015.15	36.5935
2015.4	37.5327
2015.64	40.3527
2015.89	35.6647
2016.14	37.5458
2016.39	38.4798
2016.63	38.4885
2016.88	38.5154
2017.13	39.4598
2017.37	34.7575
2017.62	37.5705
2017.87	40.3795
2018.11	38.4881
2018.36	37.5339
2018.61	33.7641
2018.86	40.3178
2019.1	38.427
2019.35	37.4738
2019.6	33.7115
2019.84	38.3885
2020.09	37.4456
2020.34	32.7587
2020.58	36.5036
2020.83	37.4376
2021.08	38.3718
2021.33	35.5633
2021.57	33.6913
2021.82	36.5005
2022.07	37.4346
2022.31	38.3668
2022.56	38.3606
2022.81	41.1613
2023.05	32.7267
2023.3	37.3954
2023.55	37.3867
2023.8	36.4425
2024.04	32.6934
2024.29	35.4903
2024.54	38.2868
2024.78	34.536
2025.03	33.5894
2025.27	35.4452
2025.52	35.4334
2025.77	37.2886
2026.02	38.2108
2026.26	39.1294
2026.51	35.4015
2026.76	36.3465
2027	37.3018
2027.25	34.5256
2027.5	33.6185
2027.74	35.5065
2027.99	32.6942
2028.23	31.7382
2028.48	37.3135
2028.73	33.4871
2028.98	32.639
2029.22	43.0673
2029.47	34.5611
2029.72	37.4012
2029.96	37.3365
2030.21	38.2296
2030.45	37.2534
2030.7	33.5197
2030.95	37.2199
2031.19	30.7171
2031.44	35.3999
2031.69	40.059
2031.93	36.3262
2032.18	35.3932
2032.43	37.2692
2032.67	35.413
2032.92	34.4908
2033.17	33.5667
2033.41	40.1164
2033.66	31.7106
2033.91	41.0695
2034.15	35.4632
2034.4	34.5096
2034.64	31.6837
2034.89	32.5845
2035.14	39.1055
2035.38	29.7882
2035.63	35.3988
2035.87	35.4176
2036.12	31.7026
2036.37	33.5882
2036.61	37.327
2036.86	38.2419
2037.11	39.177
2037.35	35.4452
2037.6	36.3791
2037.84	35.4414
2038.09	34.5023
2038.34	33.5624
2038.58	37.2955
2038.83	32.6163
2039.08	35.4134
2039.32	32.6044
2039.57	34.4661
2039.81	33.5256
2040.06	34.4511
2040.31	35.3741
2040.55	34.4305
2040.8	36.2868
2041.04	33.4793
2041.29	34.4041
2041.54	33.465
2041.78	28.8001
2042.03	33.4586
2042.27	33.4532
2042.52	32.5165
2042.77	32.5089
2043.01	35.3006
2043.26	34.3679
2043.5	31.5746
2043.75	32.5141
2044	33.4584
2044.24	31.6054
2044.49	34.4082
2044.73	33.4727
2044.98	32.5313
2045.23	32.5161
2045.47	34.3499
2045.72	32.525
2045.96	30.6681
2046.21	31.644
2046.45	32.6292
2046.7	32.6011
2046.95	31.6355
2047.19	30.6785
2047.44	35.346
2047.68	36.268
2047.93	33.4416
2048.17	33.4337
2048.42	33.4343
2048.67	32.5027
2048.91	35.301
2049.16	30.6415
2049.4	30.6484
2049.65	32.5196
2049.89	34.3942
2050.14	33.4722
2050.39	30.6789
2050.63	31.6205
2050.88	36.2956
2051.12	30.691
2051.37	32.5567
2051.61	34.4174
2051.86	30.6717
2052.11	27.8693
2052.35	31.604
2052.6	33.4757
2052.84	34.4102
2053.09	29.7431
2053.33	27.8785
2053.58	30.6862
2053.82	35.3664
2054.07	32.5766
2054.31	32.5818
2054.56	32.5852
2054.8	36.3273
2055.05	31.6484
2055.3	36.3229
2055.54	34.4489
2055.79	31.6347
2056.03	31.6303
2056.28	30.693
2056.52	31.6241
2056.77	32.5547
2057.01	27.8782
2057.26	31.616
2057.5	34.4209
2057.75	31.6182
2058	31.6212
2058.24	30.69
2058.49	28.8232
2058.73	33.5067
2058.98	33.5133
2059.22	33.5193
2059.47	31.6515
2059.71	26.9719
2059.96	34.462
2060.2	29.7808
2060.45	34.4568
2060.69	30.707
2060.94	30.703
2061.18	31.6417
2061.43	32.5814
2061.67	30.7114
2061.92	34.4569
2062.16	30.7117
2062.41	31.6482
2062.65	27.904
2062.9	34.4615
2063.14	32.5923
2063.39	34.4708
2063.63	34.4756
2063.88	27.9196
2064.12	29.7962
2064.37	28.8605
2064.61	26.9872
2064.86	28.8644
2065.1	32.6183
2065.35	34.5006
2065.59	31.6956
2065.84	35.4571
2066.08	31.7101
2066.33	28.8988
2066.57	32.6579
2066.82	29.8413
2067.06	29.8436
2067.31	32.6638
2067.55	34.5445
2067.8	29.8508
2068.04	30.7944
2068.29	29.858
2068.53	29.8602
2068.78	30.8011
2069.02	31.7449
2069.27	30.8043
2069.51	31.7391
2069.76	30.7897
2070	32.6543
2070.25	29.8306
2070.49	28.8933
2070.73	27.9646
2070.98	28.9176
2071.22	27.9908
2071.47	36.4529
2071.71	30.7998
2071.96	34.5989
2072.2	32.7284
2072.45	32.7253
2072.69	35.5469
2072.94	31.7786
2073.18	31.7751
2073.43	31.7742
2073.67	32.7131
2073.92	28.0061
2074.16	31.7724
2074.4	36.4815
2074.65	30.8343
2074.89	29.8972
2075.14	27.0777
2075.38	29.9134
2075.63	32.7544
2075.87	28.0533
2076.12	31.8375
2076.36	31.8425
2076.6	29.9544
2076.85	31.8429
2077.09	25.2311
2077.34	29.0002
2077.58	28.9929
2077.83	29.9221
2078.07	34.6329
2078.31	33.693
2078.56	30.8694
2078.8	33.7015
2079.05	30.8731
2079.29	29.9329
2079.54	30.8829
2079.78	33.7293
2080.03	31.8461
2080.27	27.1272
2080.51	30.91
2080.76	27.1332
2081	28.0777
2081.25	32.7985
2081.49	31.8506
2081.74	30.904
2081.98	29.0132
2082.22	31.8456
2082.47	29.9575
2082.71	30.9038
2082.96	33.7397
2083.2	32.7945
2083.45	29.9581
2083.69	31.846
2083.93	29.0091
2084.18	29.0083
2084.42	33.7326
2084.67	29.9516
2084.91	29.9512
2085.15	30.8963
2085.4	29.0057
2085.64	26.1697
2085.89	29.949
2086.13	30.8953
2086.37	37.5197
2086.62	30.9111
2086.86	29.0255
2087.11	29.9735
2087.35	34.7067
2087.59	27.1414
2087.84	30.9286
2088.08	29.9816
2088.32	30.9277
2088.57	29.0348
2088.81	28.0888
2089.06	31.8755
2089.3	29.0364
2089.54	30.9334
2089.79	27.1502
2090.03	31.8921
2090.28	30.947
2090.52	29.0531
2090.76	23.37
2091.01	30.951
2091.25	31.9011
2091.5	27.1653
2091.74	30.9585
2091.98	29.0693
2092.23	32.8701
2092.47	27.1878
2092.72	28.1444
2092.96	27.2038
2093.2	31.0084
2093.45	25.3163
2093.69	31.9722
2093.93	35.7802
2094.18	30.0837
2094.42	32.9404
2094.66	28.1878
2094.91	31.0391
2095.15	32.9382
2095.39	32.9351
2095.64	31.0278
2095.88	28.1704
2096.13	29.1158
2096.37	31.0118
2096.61	29.1087
2096.86	27.2069
2097.1	29.1048
2097.34	31.9495
2097.59	34.7913
2097.83	30.0365
2098.07	30.0331
2098.32	30.98
2098.56	28.1299
2098.8	28.1251
2099.05	29.0734
2099.29	36.6646
2099.53	30.9673
2099.78	36.6592
2100.02	30.9637
2100.27	30.0141
2100.51	29.0651
2100.75	32.8622
2101	31.9154
2101.24	30.9728
2101.48	30.9779
2101.73	30.0311
2101.97	28.1325
2102.21	30.0313
2102.45	25.2807
2102.7	32.8784
2102.94	30.9762
2103.18	32.8696
2103.43	30.9633
2103.67	30.959
2103.92	29.0588
2104.16	29.0563
2104.4	33.8022
2104.64	29.0575
2104.89	30.96
2105.13	28.1148
2105.37	29.0676
2105.62	32.8715
2105.86	29.0773
2106.1	32.8833
2106.35	30.0346
2106.59	30.9873
2106.83	34.7905
2107.08	29.0872
2107.32	30.9905
2107.56	31.9414
2107.8	29.085
2108.05	30.9797
2108.29	29.0705
2108.53	27.1618
2108.78	31.9025
2109.02	29.9959
2109.26	34.74
2109.51	30.9425
2109.75	29.0499
2109.99	30.0048
2110.23	30.0043
2110.48	30.9535
2110.72	31.9026
2110.96	29.0517
2111.21	32.8508
2111.45	32.8496
2111.69	29.9968
2111.93	25.243
2112.18	27.139
2112.42	28.0861
2112.66	31.8837
2112.91	33.7854
2113.15	29.9886
2113.39	30.9412
2113.63	29.0474
2113.88	30.0028
2114.12	28.1038
2114.36	24.2995
2114.61	30.949
2114.85	30.9475
2115.09	32.8489
2115.33	29.9975
2115.58	29.9951
2115.82	33.7928
2116.06	29.9885
2116.31	28.0849
2116.55	29.9784
2116.79	30.9216
2117.03	29.9682
2117.28	29.9659
2117.52	32.8125
2117.76	31.8634
2118	28.0612
2118.25	31.8535
2118.49	29.949
2118.73	28.0424
2118.97	30.8795
2119.22	29.9233
2119.46	33.7093
2119.7	29.9091
2119.94	28.9544
2120.19	30.8437
2120.43	28.9433
2120.67	31.7835
2120.91	28.9409
2121.16	30.8401
2121.4	28.9465
2121.64	28.9519
2121.88	33.6994
2122.13	26.118
2122.37	32.7632
2122.61	28.024
2122.85	28.9764
2123.1	31.8268
2123.34	28.0325
2123.58	31.8313
2123.82	28.9835
2124.07	24.2337
2124.31	28.9763
2124.55	28.9706
2124.79	28.0135
2125.03	31.7955
2125.28	30.8317
2125.52	29.8699
2125.76	29.859
2126	31.743
2126.25	30.7864
2126.49	30.7776
2126.73	31.7165
2126.97	31.7091
2127.21	28.8641
2127.46	29.8029
2127.7	30.7449
2127.94	28.8516
2128.18	29.7944
2128.43	26.0091
2128.67	27.8971
2128.91	33.5679
2129.15	30.7314
2129.39	30.7293
2129.64	34.5066
2129.88	31.6681
2130.12	31.6659
2130.36	30.7184
2130.6	29.7708
2130.85	28.8228
2131.09	26.9295
2131.33	28.8148
2131.57	29.7543
2131.81	33.5264
2132.06	31.6323
2132.3	28.7959
2132.54	27.8477
2132.78	28.7853
2133.02	31.6103
2133.27	31.6065
2133.51	29.7179
2133.75	27.831
2133.99	30.6622
2134.23	27.8305
2134.48	30.6621
2134.72	27.8308
2134.96	29.7167
2135.2	34.4336
2135.44	30.6569
2135.68	34.4291
2135.93	28.7635
2136.17	28.7577
2136.41	32.5207
2136.65	29.6817
2136.89	27.7912
2137.14	34.3906
2137.38	31.5628
2137.62	25.9058
2137.86	24.9647
2138.1	28.7415
2138.34	27.7954
2138.59	29.6723
2138.83	31.5504
2139.07	31.5552
2139.31	29.6782
2139.55	32.514
2139.79	30.6115
2140.03	31.5417
2140.28	29.6508
2140.52	32.4719
2140.76	33.409
2141	29.6368
2141.24	27.75
2141.49	27.7469
2141.73	26.8046
2141.97	32.448
2142.21	29.6157
2142.45	33.3775
2142.69	28.6701
2142.93	25.8502
2143.18	30.5615
2143.42	32.4701
2143.66	27.7462
2143.9	29.5566
2144.14	30.4952
2144.38	28.6203
2144.62	30.5096
2144.87	27.6975
2145.11	28.6427
2145.35	31.4461
2145.59	23.9259
2145.83	29.5678
2146.07	32.3859
2146.31	32.3824
2146.55	31.4387
2146.8	31.4352
2147.04	33.3117
2147.28	28.6084
2147.52	32.3623
2147.76	33.2967
2148	26.7156
2148.24	29.53
2148.48	30.465
2148.73	31.3997
2148.97	28.5777
2149.21	27.6336
2149.45	30.4432
2149.69	27.6198
2149.93	33.2359
2150.17	28.5383
2150.42	26.6545
2150.66	32.2727
2150.9	25.7075
2151.14	33.2043
2151.38	27.582
2151.62	28.5232
2151.86	30.4004
2152.1	25.7153
2152.34	25.7161
2152.58	28.5328
2152.83	26.652
2153.07	28.5228
2153.31	24.7666
2153.55	27.5738
2153.79	31.3198
2154.03	32.2533
2154.27	23.8135
2154.51	27.5542
2154.75	24.7346
2154.99	24.7234
2155.24	26.5842
2155.48	29.3775
2155.72	27.4974
2155.96	27.4884
2156.2	32.153
2156.44	28.4088
2156.68	30.2734
2156.92	30.2712
2157.16	28.4013
2157.4	27.4663
2157.64	24.6648
2157.89	30.2733
2158.13	28.4089
2158.37	24.6737
2158.61	27.478
2158.85	28.4117
2159.09	30.2789
2159.33	30.2754
2159.57	25.5983
2159.81	33.0679
2160.05	25.5873
2160.29	27.448
2160.53	30.2414
2160.77	32.1008
2161.01	29.2939
2161.25	29.2898
2161.5	26.4879
2161.74	27.4176
2161.98	28.3471
2162.22	29.2781
2162.46	32.0758
2162.7	28.3434
2162.94	31.1407
2163.18	30.2043
2163.42	30.1994
2163.66	29.2626
2163.9	27.3938
2164.14	32.0519
2164.38	32.0473
2164.62	31.1075
2164.86	31.0985
2165.11	30.1609
2165.35	23.6391
2165.59	32.0269
2165.83	27.3672
2166.07	31.0942
2166.31	31.0936
2166.55	30.1573
2166.79	27.3582
2167.03	24.5587
2167.27	27.347
2167.51	29.2045
2167.75	26.404
2167.99	31.0488
2168.23	25.4515
2168.47	31.9483
2168.71	26.3644
2168.95	31.0112
2169.19	28.2229
2169.43	28.2257
2169.67	31.0206
2169.91	28.2374
2170.15	30.1073
2170.39	29.1869
2170.63	31.0549
2170.87	31.988
2171.11	31.0537
2171.35	32.9089
2171.59	30.1122
2171.83	31.0299
2172.07	27.2878
2172.31	27.277
2172.56	26.3416
2172.79	35.6286
2173.04	30.0482
2173.28	29.1174
2173.51	30.0451
2173.76	30.0438
2174	27.2576
2174.24	31.9065
2174.48	31.9085
2174.72	27.2621
2174.96	29.1204
2175.2	26.331
2175.44	28.1884
2175.68	26.327
2175.92	30.9708
2176.16	30.9689
2176.4	32.8248
2176.64	24.4591
2176.88	28.1703
2177.12	28.1677
2177.36	30.9536
2177.6	24.4509
2177.84	33.7401
2178.08	31.8806
2178.32	26.3069
2178.55	25.3747
2178.8	30.0103
2179.03	31.8604
2179.28	30.9302
2179.52	27.2168
2179.75	33.7158
2180	26.2872
2180.23	28.1432
2180.47	28.1421
2180.71	29.9973
2180.95	30.923
2181.19	28.135
2181.43	30.9184
2181.67	29.059
2181.91	27.1983
2182.15	27.1944
2182.39	29.0481
2182.63	29.0435
2182.87	29.9676
2183.11	28.1085
2183.35	26.2472
2183.59	29.0224
2183.83	28.0861
2184.07	29.0062
2184.31	29.9275
2184.55	29.9223
2184.79	27.1405
2185.03	30.8468
2185.27	29.9222
2185.51	28.07
2185.75	27.1445
2185.99	30.8546
2186.23	30.8589
2186.47	31.7908
2186.7	29.0132
2186.95	29.9481
2187.18	27.1722
2187.42	27.1792
2187.66	28.1146
2187.9	28.1198
2188.14	33.6933
2188.38	26.2592
2188.62	29.968
2188.86	26.2479
2189.1	29.026
2189.34	30.8741
2189.58	28.0818
2189.82	24.3622
2190.06	30.8446
2190.3	29.9127
2190.54	28.0567
2190.78	27.1294
2191.01	28.985
2191.25	27.1322
2191.49	28.0584
2191.73	30.8408
2191.97	30.8425
2192.21	29.917
2192.45	29.9188
2192.69	28.0652
2192.93	28.0669
2193.17	31.7818
2193.41	29.0025
2193.65	32.7189
2193.89	29.9403
2194.13	24.3796
2194.36	30.8947
2194.6	28.1153
2194.84	26.26
2195.08	30.9059
2195.32	30.9014
2195.56	29.0386
2195.8	27.1746
2196.04	32.7425
2196.28	30.8749
2196.52	27.1494
2196.76	28.9963
2197	32.7003
2197.23	26.1986
2197.47	28.0487
2197.71	28.9713
2197.95	27.1155
2198.19	26.1879
2198.43	26.1898
2198.67	29.9066
2198.91	30.8413
2199.15	26.2076
2199.38	24.3582
2199.62	28.0803
2199.86	29.0179
2200.1	30.8858
2200.34	31.8298
2200.58	25.3316
2200.82	29.9976
2201.06	29.0774
2201.3	27.2216
2201.54	28.1594
2201.77	33.7364
2202.01	29.979
2202.25	31.7726
2202.49	27.0904
2202.73	30.818
2202.97	30.87
2203.21	29.9628
2203.45	26.2337
2203.68	28.087
2203.92	26.2491
2204.16	28.1988
2204.4	29.0962
2204.64	30.0255
2204.88	27.232
2205.12	30.9405
2205.36	24.3947
2205.59	30.8874
2205.83	26.2203
2206.07	29.9344
2206.31	26.2153
2206.55	30.8701
2206.79	30.8703
2207.03	27.1395
2207.26	26.2106
2207.5	28.0733
2207.74	28.0776
2207.98	29.0127
2208.22	26.2268
2208.46	30.8847
2208.7	24.3743
2208.93	28.1018
2209.17	24.3803
2209.41	29.9695
2209.65	33.6957
2209.89	27.1759
2210.13	31.8307
2210.36	30.8997
2210.6	32.7657
2210.84	29.0432
2211.08	29.9788
2211.32	29.9827
2211.56	28.1223
2211.8	28.1262
2212.03	29.0638
2212.27	30.0018
2212.51	29.0727
2212.75	28.1411
2212.99	30.004
2213.23	28.1348
2213.46	29.0639
2213.7	24.3961
2213.94	29.9849
2214.18	29.0534
2214.42	34.6536
2214.66	33.734
2214.89	26.2796
2215.13	31.8821
2215.37	31.8841
2215.61	23.4831
2215.85	31.886
2216.08	28.1514
2216.32	26.2833
2216.56	26.2821
2216.8	28.1479
2217.04	29.0794
2217.28	29.0774
2217.51	30.9437
2217.75	25.3424
2217.99	32.812
2218.23	30.9438
2218.47	28.1416
2218.7	26.2746
2218.94	28.144
2219.18	30.0149
2219.42	24.4148
2219.66	30.9584
2219.9	28.1579
2220.13	32.8331
2220.37	26.2933
2220.61	27.2264
2220.85	30.0281
2221.09	26.2881
2221.32	29.088
2221.56	31.883
2221.8	30.9398
2222.04	27.1971
2222.27	28.1248
2222.51	28.1204
2222.75	29.0523
2222.99	24.3859
2223.23	29.9906
2223.46	26.2589
2223.7	28.1304
2223.94	28.1363
2224.18	27.2091
2224.42	29.0862
2224.65	27.2235
2224.89	31.9059
2225.13	28.17
2225.37	29.1109
2225.6	26.3094
2225.84	28.1885
2226.08	26.321
2226.32	27.2623
2226.56	26.3305
2226.79	30.0818
2227.03	27.2757
2227.27	25.4052
2227.51	26.346
2227.74	30.0992
2227.98	27.2871
2228.22	27.2856
2228.46	29.1581
2228.69	27.28
2228.93	26.3397
2229.17	27.2751
2229.41	26.3353
2229.64	26.3345
2229.88	29.151
2230.12	31.0335
2230.36	28.2258
2230.6	26.3534
2230.83	28.2346
2231.07	31.0556
2231.31	28.2447
2231.55	31.0678
2231.78	30.1351
2232.02	28.261
2232.26	24.5068
2232.5	29.2105
2232.73	31.0957
2232.97	28.2796
2233.21	28.2842
2233.45	26.4071
2233.68	28.2927
2233.92	24.5331
2234.16	29.2416
2234.39	24.5376
2234.63	30.183
2234.87	31.1209
2235.11	28.2932
2235.34	29.2283
2235.58	28.2767
2235.82	26.3881
2236.06	29.209
2236.29	25.4478
2236.53	32.0316
2236.77	27.33
2237	28.2709
2237.24	23.5685
2237.48	29.2183
2237.72	27.3415
2237.95	30.1754
2238.19	24.5361
2238.43	29.2555
2238.67	25.4929
2238.9	29.2696
2239.14	28.3346
2239.38	25.5139
2239.61	31.1755
2239.85	28.342
2240.09	30.2239
2240.33	29.2718
2240.56	29.2639
2240.8	30.2024
2241.04	27.3852
2241.27	28.3381
2241.51	30.2262
2241.75	32.1145
2241.99	30.2289
2242.22	29.2864
2242.46	28.3443
2242.7	29.2905
2242.93	29.2934
2243.17	29.2932
2243.41	29.2913
2243.64	26.4549
2243.88	29.2815
2244.12	26.4474
2244.36	29.2769
2244.59	27.3896
2244.83	27.393
2245.07	32.121
2245.3	28.355
2245.54	25.5297
2245.78	27.4251
2246.01	26.4844
2246.25	28.3802
2246.49	29.3309
2246.72	26.4974
2246.96	26.4992
2247.2	31.2332
2247.43	27.4519
2247.67	29.3467
2247.91	26.5079
2248.14	27.4532
2248.38	25.5581
2248.62	27.4485
2248.85	30.285
2249.09	26.4975
2249.33	27.4414
2249.56	29.3319
2249.8	32.1753
2250.04	30.2855
2250.27	25.552
2250.51	30.2798
2250.75	26.4885
2250.98	26.4823
2251.22	29.3126
2251.46	31.1977
2251.69	24.5742
2251.93	33.0809
2252.17	24.5722
2252.4	33.0842
2252.64	27.4142
2252.88	26.473
2253.11	24.5881
2253.35	28.3875
2253.59	28.3975
2253.82	25.5628
2254.06	25.568
2254.3	28.4154
2254.53	25.576
2254.77	29.3713
2255.01	29.3711
2255.24	29.3675
2255.48	30.3163
2255.72	29.3676
2255.95	25.575
2256.19	29.3684
2256.42	26.5273
2256.66	26.5315
2256.9	30.3304
2257.13	25.5898
2257.37	31.288
2257.61	25.5966
2257.84	26.5492
2258.08	27.5009
2258.32	23.7032
2258.55	26.5524
2258.79	29.4026
2259.02	30.3544
2259.26	29.408
2259.5	25.6112
2259.73	26.563
2259.97	28.4651
2260.2	28.4676
2260.44	29.4203
2260.68	28.4718
2260.91	29.4244
2261.15	25.6247
2261.39	28.4856
2261.62	28.4908
2261.86	25.637
2262.1	27.5408
2262.33	29.4455
2262.57	28.4956
2262.8	28.4988
2263.04	26.6
2263.28	28.5096
2263.51	25.6588
2263.75	25.6658
2263.98	26.6271
2264.22	26.6368
2264.46	30.4618
2264.69	27.6087
2264.93	27.6159
2265.16	30.4861
2265.4	29.5367
2265.64	28.586
2265.87	27.6309
2266.11	28.5866
2266.34	29.5388
2266.58	29.5315
2266.81	31.4334
2267.05	28.5613
2267.29	33.3259
2267.52	29.503
2267.76	25.6817
2267.99	27.5847
2268.23	29.4852
2268.47	27.5724
2268.7	27.57
2268.94	30.4307
2269.17	28.5268
2269.41	26.6243
2269.65	29.4929
2269.88	29.5005
2270.12	24.735
2270.35	26.6529
2270.59	26.6605
2270.82	27.6203
2271.06	30.4901
2271.3	28.5842
2271.53	29.5446
2271.77	29.5476
2272	29.551
2272.24	25.7296
2272.47	27.6448
2272.71	31.4713
2272.95	25.7317
2273.18	24.7755
2273.42	24.7762
2273.65	31.475
2273.89	28.6051
2274.12	25.7348
2274.36	29.5637
2274.6	31.4785
2274.83	27.6507
2275.07	29.566
2275.3	26.6953
2275.54	30.5256
2275.77	29.5694
2276.01	28.6102
2276.24	26.6985
2276.48	28.6197
2276.72	26.7099
2276.95	24.7985
2277.18	26.7196
2277.42	32.4771
2277.66	26.7328
2277.89	26.742
2278.13	25.7919
2278.36	30.6032
2278.6	26.7656
2278.83	27.7272
2279.07	30.6082
2279.3	26.7645
2279.54	30.6036
2279.78	31.5575
2280.01	26.7437
2280.24	30.5732
2280.48	27.6864
2280.72	29.5973
2280.95	31.5085
2281.19	27.6683
2281.42	26.7062
2281.66	24.785
2281.89	27.6572
2282.13	27.6594
2282.36	27.6607
2282.6	27.6639
2282.83	32.4633
2283.07	29.5926
2283.3	27.6798
2283.54	27.6869
2283.77	31.5375
2284.01	28.6698
2284.24	30.603
2284.48	28.6938
2284.71	30.6241
2284.95	22.9324
2285.19	27.7471
2285.42	27.7526
2285.65	28.7163
2285.89	26.7916
2286.12	32.5582
2286.36	26.7742
2286.59	28.6962
2286.83	28.6976
2287.06	26.7774
2287.3	29.6766
2287.54	28.7246
2287.77	23.9129
2288	28.7305
2288.24	28.7376
2288.47	30.6615
2288.71	26.8032
2288.94	29.6877
2289.18	31.6075
2289.41	31.5971
2289.65	30.6223
2289.88	29.649
2290.12	31.5591
2290.35	31.5539
2290.59	29.6273
2290.82	27.7039
2291.06	30.5879
2291.29	29.6301
2291.53	24.8282
2291.76	26.7599
2292	26.7652
2292.23	27.7316
2292.47	26.773
2292.7	30.6289
2292.94	27.746
2293.17	33.5315
2293.41	25.8285
2293.64	27.7589
2293.88	32.5802
2294.11	27.7621
2294.34	25.8316
2294.58	29.6825
2294.81	27.7501
2295.05	30.6341
2295.28	27.7393
2295.52	27.7347
2295.75	27.73
2295.99	29.651
2296.22	30.6094
2296.46	28.6765
2296.69	27.7019
2296.93	29.6237
2297.16	29.6254
2297.39	27.7042
2297.63	27.7086
2297.86	29.6395
2298.1	28.6841
2298.33	27.7298
2298.57	26.7716
2298.8	25.8109
2299.04	31.5986
2299.27	27.7494
2299.51	30.6477
2299.74	30.6524
2299.97	27.7608
2300.21	28.7242
2300.44	27.7589
2300.68	28.7221
2300.91	29.6894
2301.15	33.5535
2301.38	25.8366
2301.61	34.5253
2301.85	31.6312
2302.08	27.7701
2302.32	27.7684
2302.55	27.7651
2302.79	32.588
2303.02	25.8321
2303.25	31.6214
2303.49	27.7586
2303.72	25.8272
2303.96	31.6175
2304.19	32.585
2304.43	24.8669
2304.66	29.6977
2304.89	26.8034
2305.13	30.6696
2305.36	26.8108
2305.6	26.813
2305.83	31.6444
2306.07	25.8488
2306.3	23.9185
2306.53	26.8202
2306.77	24.8875
2307	28.7535
2307.24	29.7189
2307.47	32.6168
2307.7	24.8813
2307.94	23.9111
2308.17	25.841
2308.41	27.7702
2308.64	26.801
2308.87	28.7324
2309.11	28.7329
2309.34	32.6017
2309.58	25.8411
2309.81	25.8468
2310.04	27.7883
2310.28	31.6626
2310.51	31.6649
2310.75	27.7954
2310.98	24.8916
2311.21	27.7901
2311.45	31.6511
2311.68	28.7326
2311.92	27.7474
2312.15	26.7712
2312.38	28.6943
2312.62	30.6196
2312.85	29.6484
2313.08	30.6086
2313.32	25.783
2313.55	29.6452
2313.79	29.6535
2314.02	24.8358
2314.25	28.7063
2314.49	32.5791
2314.72	31.6218
2314.95	29.699
2315.19	24.8718
2315.42	26.8102
2315.66	28.7368
2315.89	31.6297
2316.12	26.7886
2316.36	29.6801
2316.59	30.6291
2316.82	26.7567
2317.06	25.7865
2317.29	29.6474
2317.52	33.5107
2317.76	31.5804
2317.99	31.5881
2318.23	27.7285
2318.46	30.6156
2318.69	28.6784
2318.93	30.6049
2319.16	29.6338
2319.39	29.6281
2319.63	30.5879
2319.86	28.6538
2320.09	31.5457
2320.33	26.7204
2320.56	33.475
2320.79	28.6492
2321.03	34.4415
2321.26	32.5155
2321.5	33.4855
2321.73	32.5255
2321.96	32.5318
2322.2	31.5743
2322.43	34.4825
2322.66	32.5575
2322.9	33.5268
2323.13	31.5911
2323.36	34.492
2323.6	35.4606
2323.83	35.4619
2324.06	37.3976
2324.3	37.398
2324.53	35.4617
2324.76	33.5254
2325	39.3165
2325.23	41.2363
2325.46	45.0849
2325.7	49.9026
2325.93	51.8233
2326.16	53.7431
2326.4	63.3838
2326.63	70.1247
2326.86	74.9329
2327.09	91.3146
2327.33	119.262
2327.56	144.304
2327.79	207.91
2328.03	280.168
2328.26	359.168
2328.49	369.788
2328.73	347.623
2328.96	286.907
2329.19	203.007
2329.43	159.609
2329.66	114.293
2329.89	93.0917
2330.13	76.7137
2330.36	70.9437
2330.59	60.3428
2330.82	54.5583
2331.06	49.7373
2331.29	41.0677
2331.52	43.959
2331.76	32.406
2331.99	34.3374
2332.22	29.5268
2332.46	30.4812
2332.69	34.327
2332.92	35.2842
2333.16	33.3527
2333.39	32.3846
2333.62	28.529
2333.85	29.4876
2334.09	34.2963
2334.32	33.3284
2334.55	33.3219
2334.79	29.4646
2335.02	28.4975
2335.25	33.3022
2335.48	31.3769
2335.72	31.3743
2335.95	32.3363
2336.18	28.4909
2336.41	32.3359
2336.65	28.4852
2336.88	30.4057
2337.11	32.3265
2337.34	32.3244
2337.58	27.5148
2337.81	30.397
2338.04	27.5096
2338.28	31.3518
2338.51	31.3496
2338.74	31.3472
2338.97	31.3454
2339.21	28.4622
2339.44	33.2682
2339.67	30.3836
2339.91	27.4982
2340.14	32.3007
2340.37	29.4129
2340.6	27.4854
2340.84	26.5191
2341.07	29.3937
2341.3	26.504
2341.53	26.4946
2341.77	24.5646
2342	28.3936
2342.23	26.4694
2342.46	32.2176
2342.7	25.5004
2342.93	32.2073
2343.16	30.2873
2343.39	29.3273
2343.63	32.2026
2343.86	29.3245
2344.09	31.2396
2344.32	28.3635
2344.56	28.3646
2344.79	30.2821
2345.02	30.2804
2345.25	27.4019
2345.49	27.3981
2345.72	31.2261
2345.95	35.0493
2346.18	30.2525
2346.41	27.3728
2346.65	27.3699
2346.88	28.3251
2347.11	29.2804
2347.34	30.2345
2347.58	25.4442
2347.81	28.315
2348.04	27.3574
2348.27	27.3583
2348.5	28.3183
2348.74	30.2351
2348.97	32.1495
2349.2	26.4001
2349.43	27.3523
2349.67	33.0819
2349.9	27.3271
2350.13	30.1809
2350.36	31.1175
2350.59	25.3646
2350.83	29.1451
2351.06	30.0337
2351.29	28.1745
2351.52	26.358
2351.75	28.2995
2351.99	32.0622
2352.22	31.0709
2352.45	28.2095
2352.68	30.1214
2352.91	30.102
2353.15	28.1673
2353.38	29.0989
2353.61	25.2947
2353.84	25.2916
2354.07	27.1908
2354.31	29.0952
2354.54	28.1408
2354.77	26.2417
2355	25.2942
2355.23	27.1983
2355.47	28.1485
2355.7	29.0979
2355.93	27.189
2356.16	30.0426
2356.39	30.0365
2356.63	28.1218
2356.86	29.0591
2357.09	24.2908
2357.32	27.1382
2357.55	27.1326
2357.79	27.1273
2358.02	29.9742
2358.25	26.1672
2358.48	29.0147
2358.71	28.0612
2358.94	29.0044
2359.18	29.9506
2359.41	27.0977
2359.64	28.9951
2359.87	29.9405
2360.1	29.9345
2360.33	28.0283
2360.57	29.9193
2360.8	29.9114
2361.03	27.0573
2361.26	28.9471
2361.49	28.9391
2361.72	27.0349
2361.96	24.1836
2362.19	28.9144
2362.42	28.9053
2362.65	28.8967
2362.88	26.0487
2363.11	26.0425
2363.34	27.9299
2363.58	30.7639
2363.81	26.9743
2364.04	29.8089
2364.27	26.9663
2364.5	31.6911
2364.73	31.6854
2364.97	24.1147
