#Acq. time (s)=	60
#Accumulations=	4
#Range (cm-¹)=	100...4000
#Windows=	1
#Auto scanning=	Off
#Autofocus=	Off
#Macrospot=	Off
#AutoExposure=	Off
#Spike filter=	Multiple accum.
#Delay time (s)=	2
#Binning=	1
#Readout mode=	Signal
#DeNoise=	Off
#ICS correction=	On
#Dark correction=	Off
#Inst. Process=	Off
#Detector Gain=	Best Dynamic
#Detector ADC=	50 kHz HS
#Detector temperature (°C)=	-60.09
#Instrument=	LabRAM HR Evol
#Detector=	SIN-EM FIVIS
#Objective=	x100_VIS_LWD
#Grating=	150 (500nm)
#ND Filter=	100%
#Laser=	633nm_Edge
#Hole=	30.0125
#Temperature=	40
#Range=	Visible
#StageXY=	75x50mm Scan+
#StageZ=	Z motor
#X (µm)=	0
#Y (µm)=	0
#Z (µm)=	470.9
#Full time(mm:ss)=	4:05
#Project=	21_08_11
#Sample=	BU20
#Site=	
#Title=	BU20-B-FF4-FI01-L_150 (500nm)_633nm_Edge_100%_x100_VIS_LWD_H30um_60sX4
#Remark=	
#Date=	13.08.2021 11:50
#Acquired=	13.08.2021 11:50:50
100.12	692.454
103.379	585.901
106.638	498.728
109.896	447.451
113.152	394.837
116.407	346.302
119.66	309.14
122.912	273.892
126.162	246.875
129.412	233.888
132.659	205.546
135.906	186.756
139.151	173.037
142.396	169.215
145.637	157.434
148.878	142.133
152.118	135.457
155.356	124.644
158.594	119.248
161.829	112.259
165.064	103.986
168.297	97.9358
171.529	98.9051
174.759	93.7894
177.989	83.5464
181.216	80.6475
184.441	79.9635
187.667	78.6362
190.89	76.0199
194.114	75.9601
197.334	76.225
200.553	70.1468
203.772	71.4211
206.989	76.8176
210.205	71.0772
213.419	72.3339
216.631	68.5072
219.844	71.9877
223.054	76.7338
226.262	71.9347
229.471	77.9056
232.677	87.056
235.881	107.932
239.086	122.455
242.288	140.45
245.488	135.062
248.689	105.904
251.887	91.6288
255.083	88.1149
258.28	83.6651
261.474	89.0234
264.667	84.2642
267.858	92.7895
271.05	94.3646
274.238	98.788
277.426	98.1568
280.613	107.63
283.798	130.048
286.982	154.978
290.164	160.926
293.346	142.543
296.526	123.549
299.704	102.363
302.881	90.3344
306.058	81.1493
309.233	71.0319
312.406	78.8721
315.577	76.6363
318.749	75.9764
321.918	85.714
325.086	91.677
328.253	119.648
331.418	143.853
334.584	148.24
337.746	117.415
340.908	102
344.068	86.9
347.227	79.6501
350.384	75.2356
353.542	76.7777
356.697	77.3729
359.851	81.1012
363.003	86.3911
366.154	95.7481
369.304	95.6998
372.452	96.279
375.601	97.1623
378.747	89.295
381.892	82.3713
385.035	72.9775
388.177	68.3021
391.318	63.9538
394.457	58.6758
397.596	59.0382
400.733	59.1149
403.868	58.5467
407.004	63.6384
410.137	57.0974
413.269	61.8684
416.4	64.1091
419.529	62.8996
422.657	63.8677
425.784	67.6437
428.91	69.1488
432.034	80.7135
435.157	86.9056
438.279	100.298
441.399	104.879
444.518	111.006
447.636	110.848
450.753	112.241
453.868	113.956
456.982	104.16
460.095	104.053
463.207	99.3134
466.317	92.1241
469.426	88.3531
472.534	75.6036
475.64	74.0525
478.746	65.3702
481.85	61.3361
484.952	62.5812
488.054	70.349
491.154	62.5898
494.253	57.3184
497.351	59.4969
500.447	54.5344
503.541	59.2122
506.635	62.9568
509.728	58.3103
512.819	62.6888
515.91	62.4036
518.999	60.8862
522.086	60.3136
525.173	60.3685
528.258	58.8719
531.342	58.6327
534.423	59.9672
537.505	54.7193
540.585	57.9192
543.664	59.2321
546.742	57.3888
549.819	57.7173
552.894	60.5784
555.966	58.0793
559.039	55.8662
562.111	61.8055
565.181	60.1867
568.25	58.2384
571.317	57.5358
574.383	55.257
577.449	53.6014
580.513	61.316
583.576	55.6258
586.636	59.9125
589.697	61.7178
592.756	65.4088
595.814	73.7588
598.871	75.9265
601.925	99.8865
604.979	117.062
608.032	112.175
611.084	101.074
614.133	96.1953
617.183	90.7197
620.231	98.0411
623.277	89.7454
626.322	92.7306
629.367	86.2332
632.41	100.753
635.451	94.1714
638.492	98.5528
641.532	98.1857
644.569	87.41
647.606	85.4678
650.642	82.5758
653.675	74.6495
656.709	84.8643
659.741	95.6766
662.771	99.2857
665.801	97.9184
668.829	90.3342
671.856	87.1713
674.882	79.1147
677.907	66.6781
680.929	62.0135
683.952	64.2151
686.972	60.5164
689.992	58.705
693.011	56.9003
696.028	47.9133
699.045	54.8409
702.059	50.8316
705.073	50.5675
708.086	52.8006
711.096	50.6323
714.107	52.797
717.115	47.4599
720.123	51.198
723.129	50.2511
726.135	51.1573
729.139	54.2389
732.141	47.9436
735.143	46.6524
738.143	52.2216
741.143	46.5697
744.14	47.4656
747.138	45.8798
750.133	50.8256
753.128	47.0858
756.12	48.6231
759.113	48.9524
762.103	48.6825
765.093	47.4966
768.081	47.5647
771.069	49.5061
774.054	51.7691
777.04	46.5114
780.023	46.2473
783.005	47.2272
785.987	46.6301
788.966	46.3426
791.946	49.5054
794.923	46.3726
797.9	47.6317
800.875	44.1617
803.848	45.0861
806.822	46.9443
809.793	44.7206
812.765	50.012
815.733	44.9503
818.701	48.0283
821.669	43.2841
824.634	50.0973
827.6	46.6048
830.563	52.1693
833.525	51.2255
836.487	49.6734
839.446	45.0268
842.404	49.7551
845.363	49.7935
848.319	51.0929
851.273	52.4015
854.228	51.5249
857.181	50.9644
860.132	46.6372
863.083	51.4188
866.032	45.8213
868.98	50.9296
871.927	47.5124
874.874	50.3912
877.818	49.4678
880.761	53.2838
883.704	51.716
886.645	51.0861
889.585	50.1311
892.523	53.9123
895.462	54.8412
898.398	54.1677
901.333	53.4759
904.267	47.7389
907.2	52.7159
910.133	52.0156
913.063	50.6925
915.992	51.8828
918.92	51.2197
921.849	49.9406
924.774	49.6244
927.699	50.2569
930.622	56.2488
933.545	55.6524
936.466	54.1545
939.387	56.1347
942.306	64.1134
945.224	67.3883
948.141	69.4242
951.056	74.9502
953.97	81.4405
956.884	86.3513
959.797	90.9378
962.708	91.0597
965.617	93.7065
968.526	99.5563
971.434	103.465
974.34	107.673
977.245	115.038
980.149	115.947
983.052	131.217
985.955	154.434
988.856	180.476
991.755	200.404
994.654	212.321
997.551	210.234
1000.45	190.364
1003.34	168.634
1006.24	144.739
1009.13	141.226
1012.02	141.292
1014.91	141.363
1017.8	147.786
1020.69	147.235
1023.57	167.767
1026.46	175.622
1029.35	184.147
1032.23	193.342
1035.11	173.446
1037.99	145.165
1040.87	113.581
1043.75	102.813
1046.63	97.1785
1049.51	89.8773
1052.38	88.0366
1055.26	80.36
1058.13	76.5365
1061	73.9829
1063.88	75.6199
1066.74	66.8575
1069.61	68.7912
1072.48	71.0461
1075.35	72.968
1078.21	75.8484
1081.08	72.2557
1083.94	87.0859
1086.8	90.5978
1089.67	97.0347
1092.53	91.5155
1095.38	86.9723
1098.24	93.3919
1101.1	105.941
1103.95	108.183
1106.81	102.753
1109.66	95.0111
1112.51	79.5896
1115.36	71.3119
1118.22	62.689
1121.06	66.0179
1123.91	60.2459
1126.76	55.7586
1129.6	58.7619
1132.45	54.2708
1135.29	60.8684
1138.13	57.6724
1140.98	64.2929
1143.81	71.8918
1146.65	70.9551
1149.49	72.9831
1152.33	69.7358
1155.16	80.2487
1158	88.7672
1160.83	83.808
1163.66	69.3044
1166.49	62.3657
1169.32	54.7853
1172.15	54.4059
1174.98	52.3923
1177.81	51.0315
1180.63	52.2921
1183.46	48.0238
1186.28	50.9444
1189.1	46.7141
1191.93	47.0448
1194.75	45.7727
1197.56	46.4538
1200.38	48.1391
1203.2	46.2538
1206.02	45.0211
1208.83	43.1394
1211.64	44.5328
1214.46	45.6156
1217.27	43.4073
1220.08	46.8184
1222.89	43.2835
1225.69	44.718
1228.5	43.1571
1231.31	46.2569
1234.11	45.6785
1236.92	41.7375
1239.72	44.4869
1242.52	46.8901
1245.32	53.659
1248.12	51.3344
1250.92	53.3681
1253.72	56.0779
1256.51	56.0674
1259.31	57.7269
1262.1	79.8833
1264.89	89.5772
1267.69	72.7242
1270.48	61.5876
1273.27	62.1942
1276.05	73.5158
1278.84	97.8528
1281.63	287.891
1284.41	560.388
1287.2	240.691
1289.98	85.178
1292.76	72.4742
1295.55	60.1318
1298.33	66.1229
1301.1	59.461
1303.88	52.4864
1306.66	54.8568
1309.43	49.238
1312.21	48.3094
1314.98	50.7285
1317.76	51.8171
1320.53	46.1959
1323.3	51.6671
1326.07	51.096
1328.84	47.1439
1331.6	48.5943
1334.37	50.0379
1337.13	51.8239
1339.9	49.5239
1342.66	50.2662
1345.42	51.3437
1348.18	45.5885
1350.94	49.7325
1353.7	49.773
1356.46	49.4626
1359.22	53.5961
1361.97	49.8443
1364.73	59.0987
1367.48	61.4908
1370.23	71.7562
1372.98	64.2073
1375.73	69.3329
1378.48	65.2114
1381.23	78.5442
1383.98	180.146
1386.72	707.928
1389.47	675.27
1392.21	173.909
1394.95	81.2424
1397.7	63.1688
1400.44	64.9238
1403.18	63.5976
1405.92	81.4895
1408.65	115.214
1411.39	96.0737
1414.13	60.0438
1416.86	53.2231
1419.59	52.9377
1422.32	47.1317
1425.06	47.884
1427.79	45.8671
1430.52	46.6217
1433.24	42.863
1435.97	40.4847
1438.7	41.2313
1441.42	42.323
1444.15	43.079
1446.87	41.0326
1449.59	36.5242
1452.31	36.5465
1455.03	34.8147
1457.75	39.0234
1460.47	33.4279
1463.19	35.5276
1465.9	34.1238
1468.62	33.7684
1471.33	34.4637
1474.04	34.8109
1476.75	32.3638
1479.46	36.5705
1482.17	35.878
1484.88	34.8395
1487.59	36.6068
1490.3	34.5253
1493	37.7069
1495.7	36.6875
1498.41	36.0175
1501.11	36.0556
1503.81	39.264
1506.51	35.0802
1509.21	30.5383
1511.91	31.2872
1514.61	34.5217
1517.3	32.8036
1520	34.9902
1522.69	36.1161
1525.39	31.1911
1528.08	34.4568
1530.77	35.5926
1533.46	36.7382
1536.15	31.057
1538.83	30.3806
1541.52	34.743
1544.21	33.6948
1546.89	36.595
1549.58	32.6337
1552.26	37.6752
1554.94	34.7703
1557.62	32.9444
1560.3	35.0874
1562.98	33.2725
1565.66	34.6937
1568.33	31.0821
1571.01	35.0157
1573.69	33.2033
1576.36	34.9849
1579.03	36.7785
1581.7	35.3436
1584.38	34.2707
1587.04	32.8411
1589.71	35.7217
1592.38	32.8625
1595.05	30.364
1597.71	32.1825
1600.38	34.7236
1603.04	33.3144
1605.7	35.1503
1608.37	36.2773
1611.03	34.5219
1613.68	34.5801
1616.34	35.0061
1619	32.5298
1621.66	33.685
1624.31	35.5734
1626.97	36.0059
1629.62	34.6085
1632.27	32.4691
1634.93	29.9464
1637.58	31.8249
1640.23	36.2561
1642.88	37.3889
1645.52	32.9954
1648.17	30.0667
1650.81	35.9905
1653.46	32.3164
1656.1	33.0669
1658.75	31.9656
1661.39	35.6666
1664.03	35.6717
1666.67	33.8248
1669.31	32.7168
1671.94	32.3474
1674.58	34.1961
1677.22	35.2996
1679.85	33.8205
1682.48	30.1146
1685.12	33.4247
1687.75	29.3486
1690.38	34.1357
1693.01	29.3327
1695.64	32.2861
1698.26	32.2989
1700.89	32.3309
1703.52	31.313
1706.14	34.3542
1708.77	30.3356
1711.39	32.1488
1714.01	35.8638
1716.63	35.1528
1719.25	32.9826
1721.87	35.2515
1724.49	33.0335
1727.1	34.5628
1729.72	33.8506
1732.34	33.5115
1734.95	32.7955
1737.56	36.2034
1740.18	31.7319
1742.79	35.5209
1745.4	35.1787
1748.01	34.4532
1750.61	30.7085
1753.22	31.4807
1755.83	32.2513
1758.43	32.2608
1761.04	34.53
1763.64	31.5161
1766.24	27.748
1768.84	33.4201
1771.44	33.0527
1774.04	27.7735
1776.64	30.055
1779.24	33.4788
1781.84	28.9613
1784.43	35.0471
1787.02	32.4242
1789.62	32.4608
1792.21	32.4965
1794.8	34.8169
1797.39	32.5728
1799.98	30.7106
1802.57	30.3703
1805.16	34.2386
1807.75	32.7498
1810.33	33.1685
1812.92	33.2041
1815.5	30.9341
1818.08	29.0453
1820.67	30.6156
1823.25	32.9636
1825.83	30.2991
1828.41	31.4933
1830.98	31.5318
1833.56	30.0197
1836.14	33.551
1838.71	32.8089
1841.29	31.674
1843.86	31.3133
1846.43	31.3401
1849	32.5337
1851.58	32.561
1854.14	29.8452
1856.71	34.1641
1859.28	29.8941
1861.85	32.6623
1864.41	29.1694
1866.98	32.7307
1869.54	32.7613
1872.1	31.2163
1874.67	32.8083
1877.23	32.8307
1879.79	31.2756
1882.35	32.0825
1884.9	27.3711
1887.46	28.9608
1890.02	33.2991
1892.57	32.118
1895.13	29.3597
1897.68	34.4881
1900.23	29.7688
1902.79	30.5817
1905.34	29.0316
1907.89	32.2229
1910.43	32.266
1912.98	26.7653
1915.53	30.7842
1918.07	33.6142
1920.62	31.6311
1923.16	32.8533
1925.71	31.291
1928.25	28.1297
1930.79	31.3519
1933.33	33.78
1935.87	29.4077
1938.41	26.6278
1940.94	28.2489
1943.48	29.8699
1946.02	32.2925
1948.55	29.4989
1951.08	29.5084
1953.62	36.3422
1956.15	30.726
1958.68	28.7218
1961.21	36.358
1963.74	30.3333
1966.27	25.5122
1968.79	28.7212
1971.32	34.7374
1973.85	30.7124
1976.37	31.5069
1978.89	28.2883
1981.42	33.0935
1983.94	27.0692
1986.46	30.6711
1988.98	29.8634
1991.5	28.255
1994.01	32.2587
1996.53	28.2492
1999.05	32.2564
2001.56	31.457
2004.08	31.061
2006.59	30.6689
2009.1	28.6731
2011.61	29.4882
2014.12	32.3092
2016.63	31.9212
2019.14	31.5271
2021.65	28.3236
2024.16	26.7308
2026.66	28.7587
2029.17	32.4019
2031.67	27.9985
2034.17	29.2356
2036.68	30.8777
2039.18	28.0796
2041.68	27.299
2044.18	28.5419
2046.68	29.789
2049.17	30.2282
2051.67	29.0422
2054.17	27.4338
2056.66	26.6488
2059.15	29.9369
2061.65	28.747
2064.14	30.4121
2066.63	29.2213
2069.12	32.5251
2071.61	30.5117
2074.1	29.3143
2076.59	30.1646
2079.07	27.729
2081.56	31.0438
2084.04	30.246
2086.53	28.6203
2089.01	30.6976
2091.49	31.9612
2093.97	31.5796
2096.46	31.2031
2098.94	27.1013
2101.41	27.9623
2103.89	33.8047
2106.37	32.6034
2108.84	30.9851
2111.32	31.4465
2113.79	32.7467
2116.26	32.7977
2118.74	30.338
2121.21	32.0609
2123.68	33.3679
2126.15	30.0539
2128.62	31.3589
2131.09	28.8719
2133.55	27.2201
2136.02	26.83
2138.48	31.5135
2140.95	29.8541
2143.41	31.1583
2145.87	28.6425
2148.33	30.7907
2150.79	31.2376
2153.25	33.8098
2155.71	27.8716
2158.17	30.0139
2160.63	28.3224
2163.08	30.461
2165.54	30.8929
2167.99	27.9131
2170.45	30.4766
2172.9	30.4886
2175.35	26.2344
2177.8	28.8026
2180.25	30.5114
2182.7	30.9393
2185.15	30.0811
2187.59	29.655
2190.04	28.8055
2192.49	29.2398
2194.93	32.2368
2197.38	29.2619
2199.82	27.5698
2202.26	29.3005
2204.7	31.4649
2207.14	28.4938
2209.58	30.6671
2212.02	31.9887
2214.46	30.7343
2216.89	29.0506
2219.33	31.6729
2221.76	28.2616
2224.2	27.0015
2226.63	31.7942
2229.06	30.5353
2231.49	31.4414
2233.92	25.8365
2236.35	28.4778
2238.78	28.949
2241.21	31.1642
2243.64	30.7678
2246.06	28.6226
2248.49	26.034
2250.91	31.762
2253.34	30.0461
2255.76	27.4481
2258.18	30.123
2260.6	32.8035
2263.02	28.4338
2265.44	28.4634
2267.86	25.8399
2270.27	24.0931
2272.69	28.5348
2275.11	32.0944
2277.52	30.3413
2279.94	29.0262
2282.35	29.4788
2284.76	31.258
2287.17	31.2611
2289.58	32.1532
2291.99	29.4955
2294.4	30.3858
2296.81	30.3921
2299.21	27.7408
2301.62	29.9727
2304.03	29.102
2306.43	26.012
2308.83	30.4855
2311.24	27.844
2313.64	27.8738
2316.04	27.0143
2318.44	27.0494
2320.84	29.3217
2323.24	30.7023
2325.63	30.7442
2328.03	36.1791
2330.43	37.1296
2332.82	31.3264
2335.21	27.7629
2337.61	31.8759
2340	32.3789
2342.39	31.9803
2344.78	27.4914
2347.17	26.6342
2349.56	28.504
2351.95	31.2949
2354.33	31.3448
2356.72	23.1402
2359.11	30.9714
2361.49	31.4564
2363.87	25.5145
2366.26	26.463
2368.64	28.7954
2371.02	26.9805
2373.4	27.4693
2375.78	27.9587
2378.16	26.1364
2380.54	30.3219
2382.91	29.8794
2385.29	29.8931
2387.66	28.5156
2390.04	32.2353
2392.41	27.6019
2394.78	34.102
2397.16	28.0697
2399.53	29.4612
2401.9	28.9979
2404.27	28.066
2406.64	26.6721
2409	28.5341
2411.37	28.556
2413.73	28.123
2416.1	29.1125
2418.46	30.6022
2420.83	26.4477
2423.19	27.4105
2425.55	28.8299
2427.91	30.2728
2430.27	29.8411
2432.63	27.9991
2434.99	25.2125
2437.35	25.2516
2439.7	29.0712
2442.06	28.1675
2444.41	26.787
2446.77	29.676
2449.12	28.2943
2451.47	27.8609
2453.83	27.901
2456.18	31.2847
2458.53	25.5908
2460.88	26.5857
2463.22	29.0232
2465.57	26.6619
2467.92	31.5086
2470.26	31.068
2472.61	30.1422
2474.95	28.7321
2477.3	29.7378
2479.64	27.3559
2481.98	28.844
2484.32	22.0831
2486.66	31.3367
2489	28.9378
2491.34	26.5327
2493.67	27.0467
2496.01	38.2973
2498.35	31.4984
2500.68	27.618
2503.02	28.6219
2505.35	29.6261
2507.68	31.6105
2510.01	25.2582
2512.34	26.7477
2514.67	30.6932
2517	28.7464
2519.33	33.6857
2521.66	25.839
2523.99	29.8001
2526.31	28.343
2528.64	29.8449
2530.96	29.3737
2533.28	30.3881
2535.61	25.9654
2537.93	29.4564
2540.25	26.5129
2542.57	30.5088
2544.89	29.0508
2547.21	29.0843
2549.53	29.1159
2551.84	30.1448
2554.16	30.1773
2556.47	28.7074
2558.79	27.7332
2561.1	28.2637
2563.42	26.7922
2565.73	29.3331
2568.04	30.3735
2570.35	28.9059
2572.66	31.9642
2574.97	28.9807
2577.27	31.0334
2579.58	28.0357
2581.89	23.0061
2584.19	30.6116
2586.5	31.138
2588.8	30.1414
2591.1	27.1076
2593.41	26.6161
2595.71	34.7511
2598.01	23.611
2600.31	29.7253
2602.61	30.7617
2604.91	26.2015
2607.2	29.2707
2609.5	29.2873
2611.8	30.8255
2614.09	30.3282
2616.38	27.7903
2618.68	29.8447
2620.97	23.7323
2623.26	29.8711
2625.55	28.3548
2627.84	26.8379
2630.13	28.9073
2632.42	26.8893
2634.71	25.3826
2637	28.4998
2639.28	28.032
2641.57	26.0142
2643.85	29.152
2646.14	27.134
2648.42	26.6579
2650.7	31.3646
2652.98	27.7797
2655.26	27.2886
2657.54	27.3132
2659.82	32.5432
2662.1	29.4415
2664.38	27.8964
2666.65	28.9555
2668.93	26.8923
2671.2	30.0521
2673.48	29.0433
2675.75	24.8962
2678.02	30.7298
2680.29	27.6521
2682.57	30.8824
2684.84	27.7779
2687.1	27.3111
2689.37	28.9659
2691.64	29.0208
2693.91	29.0753
2696.17	28.5559
2698.44	29.6559
2700.7	28.6193
2702.97	26.5069
2705.23	28.1401
2707.49	27.0938
2709.76	27.1174
2712.02	27.1404
2714.28	29.8556
2716.53	23.9687
2718.79	26.686
2721.05	29.4107
2723.31	28.8963
2725.56	26.2135
2727.82	31.6391
2730.07	30.5739
2732.33	27.8775
2734.58	25.1832
2736.83	31.1508
2739.08	25.7409
2741.33	29.5516
2743.58	34.4523
2745.83	25.2467
2748.08	30.1576
2750.33	31.8197
2752.57	30.7857
2754.82	27.551
2757.06	28.125
2759.31	27.0552
2761.55	26.5256
2763.79	29.2862
2766.04	27.6715
2768.28	28.249
2770.52	29.9192
2772.76	27.7523
2775	25.5842
2777.23	29.4753
2779.47	27.8608
2781.71	24.041
2783.94	32.9378
2786.18	30.7763
2788.41	29.7165
2790.65	27.5391
2792.88	27.5822
2795.11	27.6239
2797.34	28.219
2799.57	26.0182
2801.8	26.6094
2804.03	27.7605
2806.26	31.1573
2808.48	27.816
2810.71	27.8419
2812.94	32.9333
2815.16	26.7598
2817.38	27.9071
2819.61	25.1076
2821.83	26.8216
2824.05	26.8444
2826.27	26.3018
2828.49	29.7193
2830.71	30.3086
2832.93	34.2993
2835.15	30.9186
2837.37	28.6698
2839.58	29.2585
2841.8	28.1427
2844.01	29.8712
2846.23	31.0374
2848.44	28.7853
2850.65	29.955
2852.87	32.8455
2855.08	37.4622
2857.29	29.4923
2859.5	28.3816
2861.71	29.5687
2863.91	27.8873
2866.12	25.6279
2868.33	25.6682
2870.53	28.0188
2872.74	27.4829
2874.94	27.5257
2877.15	27.5694
2879.35	29.9406
2881.55	33.4863
2883.75	30.6289
2885.95	28.3472
2888.15	26.6401
2890.35	26.6853
2892.55	32.6042
2894.75	30.8927
2896.94	29.1823
2899.14	30.4188
2901.33	31.6571
2903.53	38.8187
2905.72	27.6003
2907.91	31.8027
2910.11	27.0861
2912.3	26.521
2914.49	28.9372
2916.68	28.371
2918.87	27.2097
2921.05	29.6385
2923.24	30.2751
2925.43	27.9158
2927.61	30.3612
2929.8	29.2015
2931.99	30.4517
2934.17	34.717
2936.35	31.1304
2938.53	29.3462
2940.72	28.1615
2942.9	32.432
2945.08	27.6059
2947.26	30.0523
2949.44	31.8962
2951.61	30.7041
2953.79	28.9008
2955.97	25.8769
2958.14	28.3317
2960.32	32.0105
2962.49	30.8147
2964.66	29.0068
2966.84	28.421
2969.01	29.6701
2971.18	31.5344
2973.35	30.3384
2975.52	31.594
2977.69	27.3252
2979.86	31.6532
2982.03	30.4559
2984.19	28.0281
2986.36	29.2965
2988.52	28.7176
2990.69	29.9936
2992.85	30.0369
2995.01	28.8379
2997.18	31.3658
2999.34	31.4148
3001.5	30.8424
3003.66	25.9013
3005.82	26.571
3007.98	30.9992
3010.14	33.5592
3012.29	26.0694
3014.45	31.7769
3016.6	26.7901
3018.76	31.2599
3020.91	33.2147
3023.07	28.201
3025.22	30.7829
3027.37	30.8247
3029.52	26.4098
3031.67	32.8135
3033.82	28.3839
3035.97	32.8801
3038.12	30.3503
3040.27	29.1076
3042.41	29.777
3044.56	33.6498
3046.71	29.1887
3048.85	33.0662
3051	30.5237
3053.14	29.9062
3055.28	33.1526
3057.42	30.606
3059.56	26.1186
3061.7	31.9507
3063.84	30.0406
3065.98	39.7664
3068.12	26.8576
3070.26	32.7107
3072.39	26.9046
3074.53	31.4716
3076.67	29.5523
3078.8	32.1806
3080.93	29.6075
3083.07	26.3783
3085.2	29.6685
3087.33	31.6613
3089.46	31.0501
3091.59	31.0947
3093.72	30.4867
3095.85	33.8207
3097.98	31.2448
3100.11	29.9776
3102.23	32.0085
3104.36	32.0661
3106.48	36.1004
3108.61	33.5141
3110.73	32.2503
3112.85	32.3151
3114.98	33.0445
3117.1	34.4477
3119.22	33.175
3121.34	34.5884
3123.46	33.3162
3125.58	30.6916
3127.7	28.7333
3129.81	33.5451
3131.93	30.9112
3134.05	35.0726
3136.16	35.1574
3138.27	37.9772
3140.39	34.6334
3142.5	32.6463
3144.61	32.7135
3146.73	36.9187
3148.84	31.4597
3150.95	31.515
3153.06	35.0315
3155.16	35.0848
3157.27	29.57
3159.38	34.4909
3161.49	37.3337
3163.59	37.3897
3165.7	36.0411
3167.8	33.2852
3169.91	38.939
3172.01	35.486
3174.11	34.8268
3176.21	35.5659
3178.31	34.8925
3180.41	38.4471
3182.51	37.7683
3184.61	36.3802
3186.71	35.6957
3188.81	35.7084
3190.9	34.3198
3193	35.7648
3195.1	37.9228
3197.19	34.4179
3199.28	36.5999
3201.38	37.3811
3203.47	38.872
3205.56	38.9434
3207.65	38.3068
3209.74	34.0783
3211.83	41.3368
3213.92	41.424
3216.01	38.628
3218.1	38.7094
3220.18	38.0608
3222.27	34.5051
3224.36	38.213
3226.44	40.4793
3228.52	36.1746
3230.61	36.9756
3232.69	39.2502
3234.77	34.1734
3236.85	34.9693
3238.93	33.5602
3241.01	35.1068
3243.09	38.1409
3245.17	37.4877
3247.25	33.8382
3249.33	33.158
3251.4	36.9355
3253.48	39.23
3255.55	34.0375
3257.63	33.3273
3259.7	35.6337
3261.77	37.195
3263.85	34.251
3265.92	28.2877
3267.99	34.4342
3270.06	36.7516
3272.13	34.5719
3274.2	36.143
3276.26	39.2208
3278.33	38.5011
3280.4	35.487
3282.47	33.2315
3284.53	35.5595
3286.59	37.8917
3288.66	38.695
3290.72	33.363
3292.79	34.1606
3294.85	34.1904
3296.91	36.5267
3298.97	37.33
3301.03	32.7501
3303.09	33.5514
3305.15	35.1292
3307.2	35.9366
3309.26	31.329
3311.32	35.2279
3313.37	36.8063
3315.43	32.9644
3317.48	36.0982
3319.54	34.5819
3321.59	32.285
3323.64	38.5574
3325.69	32.365
3327.74	28.5047
3329.79	35.5799
3331.84	35.6427
3333.89	33.3543
3335.94	31.84
3337.99	33.4718
3340.04	34.3039
3342.08	35.9233
3344.13	35.9596
3346.17	40.7433
3348.22	32.0633
3350.26	35.2647
3352.3	50.3652
3354.34	36.9126
3356.39	37.7499
3358.43	32.223
3360.47	31.4621
3362.51	37.0814
3364.54	34.7258
3366.58	33.1635
3368.62	37.1987
3370.66	33.235
3372.69	36.4727
3374.73	39.7132
3376.76	36.5315
3378.8	34.1471
3380.83	35.7789
3382.86	38.2162
3384.89	35.8254
3386.93	39.0695
3388.96	36.6741
3390.99	42.338
3393.02	39.9398
3395.04	36.7364
3397.07	41.6118
3399.1	35.1745
3401.13	34.3881
3403.15	40.8805
3405.18	37.6596
3407.2	40.1095
3409.23	39.3178
3411.25	37.7092
3413.27	34.4792
3415.29	38.5505
3417.31	42.6264
3419.34	36.1448
3421.36	37.7825
3423.37	36.982
3425.39	45.9397
3427.41	41.0815
3429.43	35.4067
3431.44	35.4288
3433.46	40.3428
3435.48	40.3735
3437.49	37.1419
3439.5	38.8093
3441.52	30.6665
3443.53	40.5199
3445.54	36.4692
3447.55	34.8755
3449.56	33.2756
3451.57	33.317
3453.58	36.659
3455.59	37.5398
3457.6	33.4709
3459.61	32.701
3461.61	37.7343
3463.62	36.1394
3465.63	31.2098
3467.63	37.9348
3469.63	34.6581
3471.64	30.5326
3473.64	35.5904
3475.64	33.9679
3477.64	34.8595
3479.64	34.9124
3481.64	34.1219
3483.64	36.7027
3485.64	32.5304
3487.64	35.1142
3489.64	28.3838
3491.63	32.6646
3493.63	31.8576
3495.63	31.0445
3497.62	33.6338
3499.62	31.1121
3501.61	37.9681
3503.6	35.4374
3505.59	32.9036
3507.59	33.78
3509.58	39.7842
3511.57	37.2298
3513.56	32.1052
3515.55	36.3972
3517.53	26.9845
3519.52	32.9906
3521.51	38.9996
3523.49	38.1539
3525.48	30.4491
3527.47	33.0358
3529.45	36.4744
3531.43	35.636
3533.42	32.2279
3535.4	33.1191
3537.38	34.0177
3539.36	32.3358
3541.34	35.8218
3543.32	35.8552
3545.3	35.8857
3547.28	30.7218
3549.26	33.3413
3551.24	33.3587
3553.21	29.8922
3555.19	29.9037
3557.16	33.3875
3559.14	30.8038
3561.11	40.375
3563.09	35.1913
3565.06	36.0898
3567.03	36.1245
3569	36.1695
3570.97	41.4388
3572.94	33.622
3574.91	38.9058
3576.88	40.7043
3578.85	43.3888
3580.82	33.795
3582.78	39.9991
3584.75	46.2221
3586.72	50.6994
3588.68	44.5925
3590.65	43.7731
3592.61	45.6077
3594.57	43.9
3596.54	50.1812
3598.5	38.6885
3600.46	41.4083
3602.42	38.7863
3604.38	34.3709
3606.34	38.8792
3608.3	37.132
3610.26	39.8562
3612.21	31.8275
3614.17	36.3508
3616.13	36.3837
3618.08	35.5205
3620.04	32.8495
3621.99	34.6692
3623.94	35.5825
3625.9	33.7915
3627.85	34.7041
3629.8	29.3035
3631.75	29.3071
3633.7	37.431
3635.65	33.8343
3637.6	34.7532
3639.55	28.4531
3641.5	26.6701
3643.44	29.4109
3645.39	33.0635
3647.34	26.7562
3649.28	30.386
3651.23	33.1258
3653.17	26.7885
3655.12	33.1597
3657.06	34.993
3659	34.0989
3660.94	34.1131
3662.88	29.5744
3664.82	29.5872
3666.76	29.6026
3668.7	28.7074
3670.64	26.8973
3672.58	36.0326
3674.52	32.4071
3676.45	39.7422
3678.39	34.2925
3680.32	33.4124
3682.26	27.9521
3684.19	27.0699
3686.13	33.5403
3688.06	32.6668
3689.99	30.87
3691.92	35.5287
3693.85	30.9546
3695.78	28.2157
3697.71	32.8871
3699.64	32.0031
3701.57	32.0476
3703.5	33.0149
3705.43	27.4737
3707.35	32.1755
3709.28	33.1542
3711.2	33.1993
3713.13	33.2446
3715.05	36.0972
3716.98	38.9536
3718.9	35.2362
3720.82	33.3908
3722.74	36.2476
3724.66	30.6261
3726.59	32.5382
3728.5	28.7908
3730.42	31.6504
3732.34	34.5188
3734.26	36.4449
3736.18	31.7422
3738.09	28.926
3740.01	30.8497
3741.93	33.7244
3743.84	29.9488
3745.75	34.729
3747.67	27.1362
3749.58	31.9172
3751.49	35.7477
3753.41	33.8574
3755.32	31.0088
3757.23	37.7001
3759.14	35.8013
3761.05	31.99
3762.96	33.9081
3764.86	31.0488
3766.77	28.1893
3768.68	34.8903
3770.58	34.9044
3772.49	33.9635
3774.4	33.9782
3776.3	33.0353
3778.2	32.0944
3780.11	34.9899
3782.01	44.6072
3783.91	33.122
3785.81	36.0306
3787.71	28.3648
3789.61	26.4592
3791.51	37.0682
3793.41	32.2803
3795.31	35.2038
3797.21	46.8244
3799.1	33.3415
3801	31.4415
3802.9	36.3173
3804.79	29.5712
3806.69	31.547
3808.58	34.4991
3810.48	27.7269
3812.37	35.5462
3814.26	33.6325
3816.15	35.6174
3818.04	36.6297
3819.93	31.776
3821.82	30.8264
3823.71	40.6473
3825.6	32.8358
3827.49	31.8814
3829.38	34.8544
3831.26	30.9569
3833.15	31.9702
3835.04	31.9993
3836.92	39.91
3838.8	26.1348
3840.69	37.0153
3842.57	32.1163
3844.46	36.0942
3846.34	38.0909
3848.22	34.1425
3850.1	32.1751
3851.98	33.1766
3853.86	39.1254
3855.74	34.1826
3857.62	34.1843
3859.49	36.1647
3861.37	36.17
3863.25	34.1962
3865.12	35.2141
3867	34.2593
3868.87	35.3
3870.75	30.3576
3872.62	33.3484
3874.5	37.3416
3876.37	28.3885
3878.24	37.3647
3880.11	27.4095
3881.98	28.4161
3883.85	35.4096
3885.72	33.4296
3887.59	35.4428
3889.46	34.4623
3891.33	31.4839
3893.19	34.5077
3895.06	34.5434
3896.93	34.5706
3898.79	37.6053
3900.66	32.6173
3902.52	37.6644
3904.38	30.6543
3906.25	32.6894
3908.11	30.6969
3909.97	30.72
3911.83	30.7472
3913.69	34.8083
3915.55	34.8407
3917.41	37.9088
3919.27	26.8186
3921.13	37.9981
3922.99	33.9866
3924.84	33.0101
3926.7	32.0297
3928.56	34.099
3930.41	36.1716
3932.27	32.1244
3934.12	31.1272
3935.97	35.2356
3937.83	32.1935
3939.68	30.1754
3941.53	38.3944
3943.38	30.2369
3945.23	31.2913
3947.08	36.4562
3948.93	34.433
3950.78	31.3735
3952.63	33.4547
3954.48	32.4466
3956.33	29.3757
3958.17	31.4539
3960.02	36.6248
3961.86	33.543
3963.71	36.6534
3965.55	31.5
3967.4	36.6711
3969.24	31.5088
3971.08	36.6795
3972.92	31.5188
3974.77	32.5582
3976.6	33.597
3978.45	28.4311
3980.29	33.6002
3982.12	33.5978
3983.96	34.6302
3985.8	34.63
3987.64	38.7625
3989.47	34.6287
3991.31	35.6671
3993.15	28.437
3994.98	38.7895
3996.82	33.6324
3998.65	32.6133
