#Acq. time (s)=	60
#Accumulations=	4
#Range (cm-¹)=	100...4000
#Windows=	1
#Auto scanning=	Off
#Autofocus=	Off
#Macrospot=	Off
#AutoExposure=	Off
#Spike filter=	Multiple accum.
#Delay time (s)=	2
#Binning=	1
#Readout mode=	Signal
#DeNoise=	Off
#ICS correction=	On
#Dark correction=	Off
#Inst. Process=	Off
#Detector Gain=	Best Dynamic
#Detector ADC=	50 kHz HS
#Detector temperature (°C)=	-60.09
#Instrument=	LabRAM HR Evol
#Detector=	SIN-EM FIVIS
#Objective=	x100_VIS_LWD
#Grating=	150 (500nm)
#ND Filter=	100%
#Laser=	633nm_Edge
#Hole=	30.0125
#Temperature=	40
#Range=	Visible
#StageXY=	75x50mm Scan+
#StageZ=	Z motor
#X (µm)=	0
#Y (µm)=	0
#Z (µm)=	450.4
#Full time(mm:ss)=	4:05
#Project=	21_08_11
#Sample=	BU20
#Site=	
#Title=	BU20-B-FF4-FI03-V_150 (500nm)_633nm_Edge_100%_x100_VIS_LWD_H30um_60sX4
#Remark=	
#Date=	13.08.2021 14:15
#Acquired=	13.08.2021 14:15:56
100.12	291.184
103.379	269.035
106.638	238.633
109.896	233.985
113.152	209.593
116.407	192.814
119.66	187.141
122.912	173.513
126.162	157.943
129.412	163.419
132.659	153.561
135.906	147.842
139.151	143.054
142.396	137.318
145.637	130.637
148.878	127.776
152.118	121.416
155.356	115.387
158.594	115.097
161.829	115.453
165.064	111.654
168.297	110.397
171.529	107.853
174.759	104.015
177.989	99.8404
181.216	111.31
184.441	101.67
187.667	101.605
190.89	100.244
194.114	100.165
197.334	101.686
200.553	100.051
203.772	102.28
206.989	101.31
210.205	101.289
213.419	96.8161
216.631	102.522
219.844	110.763
223.054	113.909
226.262	133.548
229.471	143.594
232.677	162.219
235.881	158.648
239.086	141.782
242.288	127.149
245.488	123.345
248.689	114.136
251.887	118.215
255.083	113.743
258.28	115.613
261.474	123.178
264.667	121.891
267.858	128.83
271.05	142.416
274.238	164.857
277.426	173.078
280.613	175.59
283.798	174.924
286.982	158.453
290.164	141.027
293.346	133.703
296.526	119.446
299.704	113.403
302.881	107.991
306.058	104.785
309.233	111.352
312.406	111.617
315.577	123.846
318.749	142.043
321.918	163.092
325.086	171.56
328.253	158.325
331.418	141.023
334.584	124.974
337.746	112.699
340.908	109.858
344.068	109.529
347.227	99.759
350.384	109.791
353.542	119.798
356.697	113.784
359.851	124.711
363.003	124.334
366.154	116.747
369.304	111.049
372.452	110.055
375.601	101.23
378.747	101.18
381.892	94.5628
385.035	97.668
388.177	89.8712
391.318	87.4087
394.457	96.8542
397.596	90.9846
400.733	93.6116
403.868	95.9035
407.004	92.5507
410.137	96.1061
413.269	102.169
416.4	106.008
419.529	106.094
422.657	109.6
425.784	117.154
428.91	130.579
432.034	133.893
435.157	139.08
438.279	140.794
441.399	144.699
444.518	135.743
447.636	135.863
450.753	131.598
453.868	131.104
456.982	128.448
460.095	118.051
463.207	111.436
466.317	102.377
469.426	102.018
472.534	103.237
475.64	96.0974
478.746	93.9405
481.85	93.9452
484.952	98.6081
488.054	97.3705
491.154	90.8562
494.253	93.0453
497.351	98.6436
500.447	93.9981
503.541	95.5788
506.635	92.803
509.728	100.294
512.819	96.911
515.91	88.5478
518.999	95.7673
522.086	90.86
525.173	95.3105
528.258	94.1638
531.342	97.0957
534.423	90.0291
537.505	95.7979
540.585	91.8232
543.664	91.9119
546.742	86.9479
549.819	91.6871
552.894	90.789
555.966	93.9658
559.039	91.1169
562.111	89.7988
565.181	90.9872
568.25	85.5524
571.317	93.9071
574.383	91.5733
577.449	90.4817
580.513	89.3997
583.576	93.3329
586.636	101.618
589.697	108.356
592.756	121.651
595.814	138.977
598.871	136.171
601.925	134.994
604.979	123.28
608.032	116.842
611.084	118.828
614.133	111.474
617.183	119.762
620.231	123.06
623.277	121.697
626.322	125.681
629.367	117.648
632.41	127.788
635.451	108.635
638.492	109.241
641.532	115.152
644.569	115.344
647.606	119.028
650.642	120.808
653.675	123.477
656.709	138.002
659.741	126.58
662.771	117.678
665.801	110.995
668.829	107.748
671.856	100.534
674.882	94.347
677.907	89.9921
680.929	88.7461
683.952	88.1598
686.972	82.6073
689.992	84.2424
693.011	82.1547
696.028	76.9423
699.045	76.4023
702.059	85.5535
705.073	78.7476
708.086	84.763
711.096	81.0431
714.107	83.5039
717.115	83.4856
720.123	81.8854
723.129	81.5602
726.135	78.3786
729.139	80.4987
732.141	80.1143
735.143	79.4184
738.143	81.2162
741.143	77.4085
744.14	78.5905
747.138	82.8948
750.133	71.3423
753.128	80.3412
756.12	76.8959
759.113	77.236
762.103	84.7666
765.093	76.7731
768.081	83.1212
771.069	77.3045
774.054	74.2911
777.04	75.9529
780.023	77.2879
783.005	76.4108
785.987	84.311
788.966	77.7613
791.946	74.651
794.923	79.0692
797.9	82.8445
800.875	79.6797
803.848	72.1064
806.822	76.1471
809.793	77.6727
812.765	76.3507
815.733	81.2864
818.701	78.0656
821.669	72.3485
824.634	79.1256
827.6	79.9608
830.563	80.512
833.525	82.9884
836.487	77.7023
839.446	76.8104
842.404	80.9494
845.363	81.3242
848.319	80.78
851.273	73.6749
854.228	78.7751
857.181	82.6407
860.132	76.4725
863.083	79.4083
866.032	80.1479
868.98	79.3114
871.927	71.821
874.874	77.5613
877.818	84.8697
880.761	79.2142
883.704	82.714
886.645	80.8204
889.585	84.2898
892.523	78.576
895.462	78.8639
898.398	76.9087
901.333	79.9772
904.267	84.2914
907.2	78.2083
910.133	83.1306
913.063	79.8838
915.992	84.7993
918.92	84.1131
921.849	85.3216
924.774	81.5593
927.699	84.7008
930.622	91.0322
933.545	87.633
936.466	92.769
939.387	96.7026
942.306	100.345
945.224	109.052
948.141	117.499
951.056	110.445
953.97	120.176
956.884	117.838
959.797	127.568
962.708	126.144
965.617	129.465
968.526	132.795
971.434	143.764
974.34	158.55
977.245	172.637
980.149	188.873
983.052	216.245
985.955	226.939
988.856	222.922
991.755	209.014
994.654	191.296
997.551	176.176
1000.45	169.69
1003.34	161.323
1006.24	162.851
1009.13	164.101
1012.02	172.443
1014.91	182.706
1017.8	194.874
1020.69	204.218
1023.57	200.587
1026.46	184.235
1029.35	170.731
1032.23	145.686
1035.11	136.931
1037.99	123.35
1040.87	115.83
1043.75	107.318
1046.63	110.716
1049.51	99.8816
1052.38	101.929
1055.26	92.9718
1058.13	91.0995
1061	95.0284
1063.88	93.7557
1066.74	95.3488
1069.61	94.3653
1072.48	101.471
1075.35	102.738
1078.21	106.252
1081.08	110.404
1083.94	114.23
1086.8	105.132
1089.67	117.055
1092.53	119.6
1095.38	122.794
1098.24	121.458
1101.1	118.196
1103.95	105.603
1106.81	93.0749
1109.66	88.5587
1112.51	82.8183
1115.36	80.044
1118.22	81.1555
1121.06	87.7535
1123.91	75.5104
1126.76	85.0197
1129.6	85.4571
1132.45	82.9544
1135.29	85.9991
1138.13	88.0606
1140.98	89.1593
1143.81	85.6478
1146.65	98.1572
1149.49	100.208
1152.33	106.819
1155.16	93.0491
1158	84.173
1160.83	79.8718
1163.66	72.5812
1166.49	73.1692
1169.32	74.4098
1172.15	73.0313
1174.98	75.5689
1177.81	72.5528
1180.63	70.5374
1183.46	70.4891
1186.28	65.593
1189.1	75.0355
1191.93	68.5324
1194.75	67.2745
1197.56	68.6213
1200.38	65.1102
1203.2	67.5011
1206.02	66.9586
1208.83	64.7911
1211.64	65.5668
1214.46	66.3649
1217.27	69.4847
1220.08	67.0016
1222.89	65.8374
1225.69	64.0017
1228.5	65.1523
1231.31	65.294
1234.11	69.7727
1236.92	65.2044
1239.72	69.6682
1242.52	66.7218
1245.32	70.48
1248.12	72.2048
1250.92	74.5806
1253.72	84.3695
1256.51	85.0271
1259.31	83.9818
1262.1	73.829
1264.89	75.1239
1267.69	77.091
1270.48	103.541
1273.27	209.382
1276.05	307.628
1278.84	226.316
1281.63	117.796
1284.41	80.2938
1287.2	67.8871
1289.98	69.5093
1292.76	75.4731
1295.55	68.7935
1298.33	66.7892
1301.1	68.7883
1303.88	71.1482
1306.66	65.528
1309.43	64.5936
1312.21	66.3628
1314.98	66.8009
1317.76	70.9341
1320.53	64.3383
1323.3	64.4576
1326.07	65.9358
1328.84	64.0413
1331.6	65.8648
1334.37	63.6075
1337.13	64.3976
1339.9	65.1809
1342.66	62.8753
1345.42	68.0603
1348.18	63.6873
1350.94	62.721
1353.7	67.2192
1356.46	66.2354
1359.22	72.4318
1361.97	75.8798
1364.73	72.4601
1367.48	72.453
1370.23	76.8939
1372.98	87.1507
1375.73	172.048
1378.48	413.005
1381.23	415.993
1383.98	224.627
1386.72	96.9788
1389.47	73.358
1392.21	71.9919
1394.95	76.1113
1397.7	81.9996
1400.44	93.3601
1403.18	94.1107
1405.92	78.0584
1408.65	71.6012
1411.39	63.0752
1414.13	64.517
1416.86	60.8018
1419.59	56.7312
1422.32	57.8356
1425.06	57.9103
1427.79	59.3676
1430.52	56.3273
1433.24	58.8281
1435.97	53.3425
1438.7	62.8038
1441.42	54.1665
1444.15	56.6829
1446.87	59.8901
1449.59	57.495
1452.31	56.481
1455.03	59.6573
1457.75	53.0229
1460.47	56.8799
1463.19	51.9788
1465.9	57.5729
1468.62	56.8639
1471.33	55.8067
1474.04	57.2018
1476.75	56.8554
1479.46	49.8689
1482.17	53.3795
1484.88	56.5486
1487.59	55.8735
1490.3	53.4528
1493	54.5434
1495.7	51.0816
1498.41	57.4523
1501.11	52.2366
1503.81	52.9976
1506.51	55.529
1509.21	53.4862
1511.91	58.1553
1514.61	51.163
1517.3	57.2733
1520	54.1726
1522.69	54.6189
1525.39	54.718
1528.08	50.1676
1530.77	53.4783
1533.46	54.3009
1536.15	55.1126
1538.83	54.4694
1541.52	50.2243
1544.21	53.5153
1546.89	50.2956
1549.58	52.4664
1552.26	54.2595
1554.94	54.5876
1557.62	55.2674
1560.3	54.1606
1562.98	57.3726
1565.66	56.9839
1568.33	53.3605
1571.01	50.8177
1573.69	54.0226
1576.36	54.3611
1579.03	50.7722
1581.7	56.1551
1584.38	52.9312
1587.04	53.6585
1589.71	49.7232
1592.38	51.8976
1595.05	53.721
1597.71	58.0723
1600.38	49.1167
1603.04	50.9621
1605.7	52.0945
1608.37	57.2135
1611.03	52.9577
1613.68	49.426
1616.34	52.0556
1619	53.974
1621.66	52.6215
1624.31	52.7216
1626.97	50.2621
1629.62	52.5536
1632.27	46.7775
1634.93	50.1556
1637.58	55.7396
1640.23	50.2432
1642.88	53.9652
1645.52	50.6913
1648.17	55.8908
1650.81	50.3866
1653.46	51.1522
1656.1	50.4316
1658.75	48.9647
1661.39	52.6683
1664.03	54.5241
1666.67	49.351
1669.31	50.0919
1671.94	50.0923
1674.58	51.9411
1677.22	48.9759
1679.85	48.2359
1682.48	48.9593
1685.12	47.4594
1687.75	46.6994
1690.38	49.6352
1693.01	46.674
1695.64	48.1524
1698.26	45.5875
1700.89	50.4362
1703.52	49.1003
1706.14	51.067
1708.77	47.0853
1711.39	48.1303
1714.01	46.6415
1716.63	47.4283
1719.25	51.2442
1721.87	50.9188
1724.49	51.6965
1727.1	47.6407
1729.72	49.1862
1732.34	48.1142
1734.95	50.0365
1737.56	47.0832
1740.18	48.6305
1742.79	52.0597
1745.4	52.1096
1748.01	52.1505
1750.61	48.7944
1753.22	45.8072
1755.83	48.4713
1758.43	49.2401
1761.04	43.2096
1763.64	50.7655
1766.24	45.4916
1768.84	46.2594
1771.44	48.1625
1774.04	47.4228
1776.64	45.9331
1779.24	48.9887
1781.84	46.376
1784.43	49.066
1787.02	48.7312
1789.62	44.9895
1792.21	51.1203
1794.8	49.2763
1797.39	49.3355
1799.98	47.115
1802.57	47.561
1805.16	46.8629
1807.75	45.7731
1810.33	46.9727
1812.92	55.852
1815.5	46.305
1818.08	44.0489
1820.67	44.8643
1823.25	49.9273
1825.83	46.896
1828.41	43.0859
1830.98	46.6207
1833.56	45.5138
1836.14	44.7993
1838.71	51.8342
1841.29	44.1104
1843.86	44.9278
1846.43	46.9128
1849	42.2743
1851.58	47.7691
1854.14	49.742
1856.71	50.1724
1859.28	45.9158
1861.85	43.2237
1864.41	45.6138
1866.98	46.8422
1869.54	46.1012
1872.1	46.53
1874.67	42.6311
1877.23	42.267
1879.79	45.0448
1882.35	46.6476
1884.9	47.4563
1887.46	41.1756
1890.02	45.1213
1892.57	41.9702
1895.13	41.5765
1897.68	41.1886
1900.23	43.9633
1902.79	45.9712
1905.34	42.8561
1907.89	50.0147
1910.43	40.58
1912.98	41.8331
1915.53	44.2895
1918.07	46.7417
1920.62	49.1377
1923.16	47.9857
1925.71	42.8507
1928.25	44.0897
1930.79	45.3305
1933.33	46.1726
1935.87	49.4129
1938.41	44.2461
1940.94	47.8829
1943.48	41.4971
1946.02	42.7224
1948.55	46.7568
1951.08	40.7497
1953.62	55.216
1956.15	45.9885
1958.68	41.1746
1961.21	49.6156
1963.74	45.1986
1966.27	46.0023
1968.79	41.5754
1971.32	45.1788
1973.85	44.7638
1976.37	44.7518
1978.89	46.3447
1981.42	43.5229
1983.94	40.303
1986.46	41.4962
1988.98	41.8889
1991.5	42.2824
1994.01	44.6813
1996.53	41.0715
1999.05	42.6746
2001.56	44.2803
2004.08	43.4854
2006.59	42.295
2009.1	42.3078
2011.61	43.9314
2014.12	44.3499
2016.63	45.5731
2019.14	43.9772
2021.65	43.1885
2024.16	46.0253
2026.66	40.423
2029.17	44.0747
2031.67	42.5013
2034.17	41.333
2036.68	43.7939
2039.18	44.2405
2041.68	41.8584
2044.18	47.165
2046.68	39.9213
2049.17	43.2121
2051.67	44.0711
2054.17	42.0652
2056.66	44.1434
2059.15	42.9706
2061.65	41.3876
2064.14	41.0257
2066.63	41.0733
2069.12	37.8437
2071.61	44.4365
2074.1	40.3841
2076.59	44.1183
2079.07	40.053
2081.56	43.3792
2084.04	40.9452
2086.53	42.6216
2089.01	43.0591
2091.49	41.8589
2093.97	39.4229
2096.46	44.4282
2098.94	38.6865
2101.41	41.6328
2103.89	42.5151
2106.37	35.0954
2108.84	41.7986
2111.32	39.7767
2113.79	44.4271
2116.26	41.9894
2118.74	37.4518
2121.21	37.9283
2123.68	41.7624
2126.15	43.925
2128.62	43.1448
2131.09	38.1446
2133.55	41.5687
2136.02	43.3083
2138.48	44.2035
2140.95	40.8642
2143.41	40.9085
2145.87	40.5238
2148.33	41.4082
2150.79	41.4376
2153.25	50.3957
2155.71	41.9137
2158.17	48.3203
2160.63	42.3771
2163.08	39.4076
2165.54	41.1196
2167.99	41.9761
2170.45	42.8377
2172.9	41.5754
2175.35	40.3114
2177.8	40.7504
2180.25	41.1798
2182.7	40.3277
2185.15	43.735
2187.59	42.4558
2190.04	42.0347
2192.49	38.2038
2194.93	41.6302
2197.38	41.6502
2199.82	42.5302
2202.26	42.9883
2204.7	38.3143
2207.14	40.9197
2209.58	42.2477
2212.02	41.8643
2214.46	41.4806
2216.89	39.3797
2219.33	38.5677
2221.76	40.3429
2224.2	40.3943
2226.63	38.7154
2229.06	42.2296
2231.49	41.4159
2233.92	42.7713
2236.35	38.4776
2238.78	37.2202
2241.21	35.5228
2243.64	39.9326
2246.06	39.9843
2248.49	36.5351
2250.91	39.6477
2253.34	37.0642
2255.76	37.9881
2258.18	38.0386
2260.6	38.5276
2263.02	41.218
2265.44	40.3782
2267.86	39.9746
2270.27	36.9132
2272.69	39.1524
2275.11	41.3908
2277.52	37.4284
2279.94	40.9912
2282.35	40.5611
2284.76	36.5786
2287.17	37.9124
2289.58	36.5881
2291.99	37.4793
2294.4	38.3704
2296.81	40.5967
2299.21	37.0617
2301.62	36.1893
2304.03	41.0982
2306.43	37.573
2308.83	41.1666
2311.24	40.7636
2313.64	41.6992
2316.04	39.0703
2318.44	42.2508
2320.84	41.4085
2323.24	45.045
2325.63	40.6182
2328.03	45.1677
2330.43	34.8793
2332.82	38.0875
2335.21	35.8887
2337.61	39.5622
2340	36.9074
2342.39	37.4237
2344.78	38.397
2347.17	36.6505
2349.56	37.6253
2351.95	42.2596
2354.33	37.2934
2356.72	38.2615
2359.11	40.6069
2361.49	40.1815
2363.87	38.3867
2366.26	35.6675
2368.64	35.7063
2371.02	42.2003
2373.4	37.1644
2375.78	38.1255
2378.16	40.0142
2380.54	38.1917
2382.91	39.1443
2385.29	39.6257
2387.66	39.6436
2390.04	40.5841
2392.41	40.1271
2394.78	44.7733
2397.16	39.2047
2399.53	40.5961
2401.9	38.7412
2404.27	37.344
2406.64	36.877
2409	38.7415
2411.37	37.3782
2413.73	40.209
2416.1	38.4285
2418.46	39.4791
2420.83	37.6822
2423.19	34.4388
2425.55	37.7367
2427.91	37.313
2430.27	37.83
2432.63	38.8222
2434.99	38.4078
2437.35	35.1635
2439.7	41.8341
2442.06	37.1622
2444.41	41.0102
2446.77	38.6976
2449.12	34.4763
2451.47	35.9572
2453.83	35.532
2456.18	39.882
2458.53	35.6358
2460.88	36.6451
2463.22	32.861
2465.57	34.8286
2467.92	40.6485
2470.26	35.8848
2472.61	35.9295
2474.95	34.0439
2477.3	37.9581
2479.64	35.1027
2481.98	35.146
2484.32	36.158
2486.66	37.6527
2489	37.2057
2491.34	34.8089
2493.67	40.2046
2496.01	55.8604
2498.35	39.8002
2500.68	36.4167
2503.02	34.4931
2505.35	34.523
2507.68	38.4717
2510.01	37.029
2512.34	36.0726
2514.67	33.1486
2517	37.5915
2519.33	34.1775
2521.66	34.6981
2523.99	35.7109
2526.31	34.751
2528.64	38.231
2530.96	38.7536
2533.28	36.8116
2535.61	36.3516
2537.93	33.912
2540.25	37.911
2542.57	35.9656
2544.89	35.5065
2547.21	30.5758
2549.53	34.5906
2551.84	38.6152
2554.16	34.6665
2556.47	34.6985
2558.79	39.7259
2561.1	37.7683
2563.42	36.808
2565.73	34.3473
2568.04	39.4103
2570.35	32.9276
2572.66	39.0115
2574.97	36.0368
2577.27	34.0611
2579.58	38.1386
2581.89	37.1637
2584.19	38.2013
2586.5	34.1758
2588.8	35.7137
2591.1	41.8014
2593.41	37.7694
2595.71	36.273
2598.01	34.274
2600.31	37.3472
2602.61	32.7956
2604.91	36.3768
2607.2	36.9065
2609.5	35.3994
2611.8	34.9016
2614.09	38.9934
2616.38	36.4589
2618.68	35.4566
2620.97	35.9813
2623.26	34.4667
2625.55	34.4856
2627.84	35.5283
2630.13	36.5818
2632.42	32.5232
2634.71	36.6638
2637	33.1214
2639.28	35.2329
2641.57	37.8623
2643.85	35.3436
2646.14	35.9203
2648.42	36.4928
2650.7	35.512
2652.98	38.6838
2655.26	32.4865
2657.54	33.5563
2659.82	36.7087
2662.1	38.3
2664.38	33.6321
2666.65	35.7379
2668.93	32.1141
2671.2	33.7107
2673.48	35.8462
2675.75	32.7581
2678.02	38.0839
2680.29	33.4459
2682.57	34.5777
2684.84	34.6563
2687.1	34.2051
2689.37	33.2178
2691.64	33.2808
2693.91	37.0777
2696.17	36.0285
2698.44	34.4649
2700.7	37.1784
2702.97	32.3974
2705.23	36.1802
2707.49	33.532
2709.76	34.6351
2712.02	37.3516
2714.28	36.3108
2716.53	34.7412
2718.79	35.3117
2721.05	35.3469
2723.31	32.137
2725.56	34.3208
2727.82	36.5066
2730.07	34.9029
2732.33	36.5384
2734.58	31.6821
2736.83	36.5683
2739.08	32.2438
2741.33	36.6006
2743.58	33.9097
2745.83	38.8203
2748.08	35.048
2750.33	30.7319
2752.57	30.2408
2754.82	31.9155
2757.06	33.5861
2759.31	35.8004
2761.55	35.8232
2763.79	34.7603
2766.04	35.3428
2768.28	36.4769
2770.52	33.762
2772.76	33.7974
2775	34.3873
2777.23	30.0263
2779.47	40.5499
2781.71	36.7523
2783.94	31.2771
2786.18	33.549
2788.41	32.4937
2790.65	33.1025
2792.88	31.4827
2795.11	35.9948
2797.34	33.8069
2799.57	32.7326
2801.8	35.5726
2804.03	33.9295
2806.26	36.7712
2808.48	36.2451
2810.71	35.1539
2812.94	32.9333
2815.16	32.9568
2817.38	32.4173
2819.61	36.9561
2821.83	33.5976
2824.05	34.1913
2826.27	35.9175
2828.49	33.1158
2830.71	32.5747
2832.93	37.7009
2835.15	37.7264
2837.37	34.347
2839.58	32.0991
2841.8	33.2596
2844.01	34.423
2846.23	35.0239
2848.44	31.0653
2850.65	38.5136
2852.87	31.703
2855.08	43.1817
2857.29	31.783
2859.5	35.8353
2861.71	36.4585
2863.91	34.2122
2866.12	30.8111
2868.33	33.1668
2870.53	32.6405
2872.74	33.8474
2874.94	37.9565
2877.15	33.9539
2879.35	33.4288
2881.55	34.651
2883.75	32.3792
2885.95	33.6075
2888.15	33.666
2890.35	30.7907
2892.55	34.9541
2894.75	35.0118
2896.94	30.9509
2899.14	32.7814
2901.33	35.2074
2903.53	44.1526
2905.72	33.5359
2907.91	32.9916
2910.11	34.825
2912.3	33.6727
2914.49	36.0969
2916.68	34.9411
2918.87	33.7878
2921.05	33.2311
2923.24	32.6732
2925.43	33.9191
2927.61	35.7721
2929.8	34.0183
2931.99	34.0697
2934.17	43.1698
2936.35	37.1751
2938.53	37.2122
2940.72	35.429
2942.9	36.6754
2945.08	33.6731
2947.26	31.8736
2949.44	33.1113
2951.61	33.7441
2953.79	33.1599
2955.97	33.1833
2958.14	31.9875
2960.32	33.8397
2962.49	35.6962
2964.66	35.7242
2966.84	35.1443
2969.01	33.9524
2971.18	38.27
2973.35	32.79
2975.52	32.8209
2977.69	34.6938
2979.86	34.7263
2982.03	35.9934
2984.19	28.6441
2986.36	36.081
2988.52	33.6583
2990.69	33.0857
2992.85	36.2301
2995.01	36.9001
2997.18	31.9869
2999.34	40.1238
3001.5	39.5655
3003.66	36.5114
3005.82	31.5726
3007.98	35.383
3010.14	35.4411
3012.29	32.9794
3014.45	32.4061
3016.6	33.724
3018.76	33.7859
3020.91	33.8474
3023.07	33.9045
3025.22	33.3217
3027.37	37.8158
3029.52	35.9554
3031.67	34.725
3033.82	35.4001
3035.97	36.0723
3038.12	34.184
3040.27	34.8651
3042.41	34.9
3044.56	34.9317
3046.71	32.3963
3048.85	34.3503
3051	34.3793
3053.14	32.4787
3055.28	33.1526
3057.42	36.4051
3059.56	34.5024
3061.7	35.1781
3063.84	35.2089
3065.98	40.413
3068.12	35.2708
3070.26	36.5971
3072.39	29.4978
3074.53	33.4183
3076.67	37.3464
3078.8	40.6321
3080.93	35.4639
3083.07	32.8914
3085.2	33.5808
3087.33	34.2726
3089.46	38.8943
3091.59	38.2955
3093.72	31.7979
3095.85	31.8506
3097.98	39.796
3100.11	37.8838
3102.23	36.6283
3104.36	37.3553
3106.48	35.438
3108.61	38.1596
3110.73	38.2349
3112.85	38.978
3114.98	42.3904
3117.1	37.1233
3119.22	37.1962
3121.34	40.6329
3123.46	36.6815
3125.58	38.1116
3127.7	40.2266
3129.81	34.9005
3131.93	38.3842
3134.05	33.0295
3136.16	39.2534
3138.27	32.503
3140.39	35.3192
3142.5	38.1446
3144.61	37.5344
3146.73	41.7491
3148.84	38.3739
3150.95	42.5972
3153.06	37.8063
3155.16	44.8113
3157.27	38.6149
3159.38	36.5813
3161.49	42.9163
3163.59	36.6908
3165.7	36.0411
3167.8	39.5919
3169.91	43.1486
3172.01	39.7021
3174.11	36.9375
3176.21	41.2001
3178.31	40.5317
3180.41	41.2689
3182.51	46.9456
3184.61	43.4443
3186.71	45.5916
3188.81	39.951
3190.9	45.6417
3193	42.847
3195.1	39.3405
3197.19	47.1915
3199.28	38.7319
3201.38	46.6374
3203.47	40.2985
3205.56	38.9434
3207.65	46.8989
3209.74	39.8178
3211.83	37.7423
3213.92	44.3057
3216.01	42.9601
3218.1	41.6036
3220.18	40.2357
3222.27	39.5901
3224.36	46.2195
3226.44	41.2086
3228.52	43.4826
3230.61	42.1009
3232.69	39.9839
3234.77	42.9923
3236.85	41.5951
3238.93	47.5744
3241.01	39.5414
3243.09	39.6221
3245.17	42.684
3247.25	42.7626
3249.33	41.3544
3251.4	43.6511
3253.48	40.7245
3255.55	37.0298
3257.63	43.0634
3259.7	40.1348
3261.77	40.2006
3263.85	45.5426
3265.92	41.8658
3267.99	38.2181
3270.06	36.7516
3272.13	44.4495
3274.2	40.7084
3276.26	43.0287
3278.33	40.0259
3280.4	40.8292
3282.47	36.2873
3284.53	42.442
3286.59	39.4227
3288.66	39.4613
3290.72	40.2657
3292.79	37.2312
3294.85	41.8737
3296.91	38.8336
3298.97	41.1785
3301.03	40.456
3303.09	41.2644
3305.15	38.9895
3307.2	41.3464
3309.26	38.291
3311.32	40.6476
3313.37	40.6806
3315.43	40.7207
3317.48	36.0982
3319.54	33.8048
3321.59	41.6204
3323.64	45.5679
3325.69	38.6041
3327.74	44.9046
3329.79	37.1438
3331.84	42.693
3333.89	41.9871
3335.94	42.0602
3337.99	38.9848
3340.04	39.8241
3342.08	41.45
3344.13	47.0241
3346.17	40.7433
3348.22	38.3968
3350.26	40.0195
3352.3	64.642
3354.34	41.6755
3356.39	38.5447
3358.43	41.7706
3360.47	43.4098
3362.51	40.2712
3364.54	41.1122
3366.58	44.3512
3368.62	38.7986
3370.66	41.2434
3372.69	46.0918
3374.73	44.5269
3376.76	41.3488
3378.8	47.0024
3380.83	42.2111
3382.86	43.0435
3384.89	47.0963
3386.93	42.2917
3388.96	42.3162
3390.99	44.7573
3393.02	44.781
3395.04	44.8103
3397.07	41.6118
3399.1	44.8778
3401.13	44.0977
3403.15	44.1186
3405.18	44.9485
3407.2	42.5403
3409.23	45.8033
3411.25	45.8188
3413.27	43.4033
3415.29	47.478
3417.31	51.5576
3419.34	45.8917
3421.36	45.9078
3423.37	39.4204
3425.39	55.6968
3427.41	48.4029
3429.43	42.7322
3431.44	45.2022
3433.46	48.4929
3435.48	48.5298
3437.49	43.6724
3439.5	42.0775
3441.52	49.4753
3443.53	41.3385
3445.54	42.206
3447.55	43.0815
3449.56	42.3134
3451.57	43.1888
3453.58	36.659
3455.59	46.6153
3457.6	44.2147
3459.61	39.324
3461.61	41.0516
3463.62	37.801
3465.63	37.8679
3467.63	42.1035
3469.63	40.5041
3471.64	42.2437
3473.64	43.1272
3475.64	43.1937
3477.64	40.7394
3479.64	45.0075
3481.64	45.0746
3483.64	45.1401
3485.64	37.6001
3487.64	43.5754
3489.64	36.8566
3491.63	48.7849
3493.63	31.8576
3495.63	39.5498
3497.62	39.5942
3499.62	40.4883
3501.61	43.9406
3503.6	34.5835
3505.59	40.5953
3507.59	38.9111
3509.58	41.4953
3511.57	48.3559
3513.56	38.9543
3515.55	39.8228
3517.53	44.1175
3519.52	40.7027
3521.51	44.9996
3523.49	43.2982
3525.48	39.0263
3527.47	39.0422
3529.45	39.0491
3531.43	44.223
3533.42	38.2438
3535.4	37.4202
3537.38	37.4625
3539.36	40.0964
3541.34	37.5481
3543.32	38.4472
3545.3	38.4799
3547.28	38.5104
3549.26	37.6713
3551.24	42.8898
3553.21	37.6902
3555.19	39.4382
3557.16	36.8564
3559.14	42.084
3561.11	43.8481
3563.09	42.1427
3565.06	42.1772
3567.03	31.7721
3569	43.1419
3570.97	48.418
3572.94	45.8481
3574.91	38.9058
3576.88	43.3304
3578.85	46.0184
3580.82	44.3285
3582.78	45.2737
3584.75	48.8634
3586.72	48.9359
3588.68	51.6566
3590.65	37.583
3592.61	40.2942
3594.57	42.1263
3596.54	43.9641
3598.5	41.3567
3600.46	36.9558
3602.42	40.5696
3604.38	38.8346
3606.34	37.0916
3608.3	35.3425
3610.26	31.7954
3612.21	31.8275
3614.17	41.7361
3616.13	35.4853
3618.08	39.1175
3620.04	36.4495
3621.99	33.7687
3623.94	37.3841
3625.9	36.4949
3627.85	38.3097
3629.8	36.5167
3631.75	33.8159
3633.7	39.2349
3635.65	35.6388
3637.6	36.5586
3639.55	38.3891
3641.5	35.7108
3643.44	33.0307
3645.39	33.0635
3647.34	34.9191
3649.28	39.4564
3651.23	33.1258
3653.17	34.0532
3655.12	38.6107
3657.06	34.993
3659	32.2803
3660.94	35.0228
3662.88	36.8543
3664.82	34.139
3666.76	31.4243
3668.7	35.9981
3670.64	32.3679
3672.58	35.1203
3674.52	36.9714
3676.45	37.0014
3678.39	33.3781
3680.32	33.4124
3682.26	37.1167
3684.19	33.4933
3686.13	31.7025
3688.06	30.8265
3689.99	32.7129
3691.92	34.6059
3693.85	32.8026
3695.78	31.9161
3697.71	32.8871
3699.64	37.5689
3701.57	31.1187
3703.5	33.0149
3705.43	32.1303
3707.35	34.9734
3709.28	36.8899
3711.2	35.0697
3713.13	36.054
3715.05	37.9724
3716.98	35.199
3718.9	32.4173
3720.82	33.3908
3722.74	36.2476
3724.66	37.2225
3726.59	32.5382
3728.5	36.3425
3730.42	28.8161
3732.34	35.4645
3734.26	34.5516
3736.18	35.5323
3738.09	32.7196
3740.01	31.7989
3741.93	35.6244
3743.84	34.7026
3745.75	33.7775
3747.67	34.7534
3749.58	37.6337
3751.49	30.9813
3753.41	35.7649
3755.32	33.8711
3757.23	32.9279
3759.14	31.0278
3761.05	39.6294
3762.96	31.9978
3764.86	35.8256
3766.77	36.7895
3768.68	32.9785
3770.58	36.817
3772.49	34.9202
3774.4	35.8924
3776.3	33.9928
3778.2	36.8847
3780.11	36.9071
3782.01	45.5665
3783.91	33.122
3785.81	31.2265
3787.71	33.1723
3789.61	31.2699
3791.51	35.1426
3793.41	32.2803
3795.31	32.3103
3797.21	50.6862
3799.1	34.3079
3801	31.4415
3802.9	31.475
3804.79	35.3885
3806.69	35.4298
3808.58	31.5837
3810.48	35.5098
3812.37	30.6769
3814.26	31.6828
3816.15	38.5448
3818.04	35.6529
3819.93	33.7315
3821.82	36.6981
3823.71	34.7705
3825.6	37.7367
3827.49	37.7672
3829.38	35.8363
3831.26	37.8362
3833.15	32.9539
3835.04	32.9839
3836.92	41.8808
3838.8	30.0797
3840.69	38.0023
3842.57	32.1163
3844.46	31.1497
3846.34	37.1015
3848.22	35.1322
3850.1	31.1851
3851.98	34.1669
3853.86	41.1065
3855.74	31.2102
3857.62	33.1935
3859.49	31.2107
3861.37	43.1067
3863.25	33.205
3865.12	36.2061
3867	35.2523
3868.87	30.3282
3870.75	35.3343
3872.62	36.3348
3874.5	33.3585
3876.37	37.3533
3878.24	29.3936
3880.11	30.3997
3881.98	33.4014
3883.85	32.4172
3885.72	36.4233
3887.59	32.4476
3889.46	32.4645
3891.33	31.4839
3893.19	39.5088
3895.06	29.5371
3896.93	31.5645
3898.79	33.5941
3900.66	29.6065
3902.52	29.6294
3904.38	37.6897
3906.25	32.6894
3908.11	34.7227
3909.97	34.7488
3911.83	35.7877
3913.69	32.7905
3915.55	34.8407
3917.41	38.9197
3919.27	34.9148
3921.13	34.9582
3922.99	39.0592
3924.84	30.9787
3926.7	34.0633
3928.56	37.1527
3930.41	37.1905
3932.27	39.2631
3934.12	39.2917
3935.97	34.2143
3937.83	36.2816
3939.68	34.267
3941.53	35.3229
3943.38	35.3618
3945.23	35.3951
3947.08	30.2946
3948.93	33.4052
3950.78	32.4021
3952.63	31.396
3954.48	35.5368
3956.33	36.5908
3958.17	29.3914
3960.02	37.6565
3961.86	33.543
3963.71	36.6534
3965.55	36.6639
3967.4	33.5721
3969.24	31.5088
3971.08	32.5466
3972.92	36.6858
3974.77	36.6926
3976.6	34.6307
3978.45	30.4988
3980.29	34.6341
3982.12	37.7329
3983.96	34.6302
3985.8	35.6637
3987.64	35.6615
3989.47	32.5613
3991.31	33.5995
3993.15	33.6074
3994.98	34.652
3996.82	29.493
3998.65	36.7547
