#Acq. time (s)=	60
#Accumulations=	2
#Range (cm-¹)=	1200...2360
#Windows=	3
#Auto scanning=	Off
#Autofocus=	Off
#Macrospot=	Off
#AutoExposure=	Off
#Spike filter=	Multiple accum.
#Delay time (s)=	2
#Binning=	1
#Readout mode=	Signal
#DeNoise=	Off
#ICS correction=	On
#Dark correction=	Off
#Inst. Process=	Off
#Detector Gain=	Best Dynamic
#Detector ADC=	50 kHz HS
#Detector temperature (°C)=	-60.09
#Instrument=	LabRAM HR Evol
#Detector=	SIN-EM FIVIS
#Objective=	x100_VIS_LWD
#Grating=	1800 (450-850nm)
#ND Filter=	100%
#Laser=	532nm_Edge
#Hole=	30.0125
#Temperature=	0
#Range=	Visible
#StageXY=	75x50mm Scan+
#StageZ=	Z motor
#X (µm)=	0
#Y (µm)=	0
#Z (µm)=	-19.4
#Full time(mm:ss)=	6:25
#Project=	21_08_11
#Sample=	BU20
#Site=	
#Title=	BU20-J-FF1-FI03-V_1800 (450-850nm)_532nm_Edge_100%_x100_VIS_LWD_H30um_60sX2
#Remark=	
#Date=	11.08.2021 17:05
#Acquired=	11.08.2021 17:05:31
1201.69	34.9324
1201.97	32.7945
1202.25	37.1428
1202.52	36.0966
1202.8	33.9181
1203.08	31.7445
1203.36	32.7989
1203.63	34.9392
1203.91	34.9342
1204.19	34.9417
1204.47	34.9361
1204.75	35.9987
1205.02	35.9836
1205.3	38.1149
1205.58	33.8038
1205.86	35.9332
1206.14	34.8442
1206.41	36.9711
1206.69	40.1695
1206.97	36.9456
1207.25	36.9369
1207.52	34.7893
1207.8	40.1339
1208.08	34.7729
1208.36	32.6238
1208.63	46.517
1208.91	34.7488
1209.19	35.8162
1209.47	39.0206
1209.74	39.0136
1210.02	34.7251
1210.3	40.051
1210.58	42.1729
1210.86	38.9558
1211.13	41.0774
1211.41	38.9288
1211.69	35.7153
1211.96	38.9022
1212.24	35.6946
1212.52	36.7491
1212.8	32.4812
1213.08	33.5415
1213.35	35.6639
1213.63	34.5995
1213.91	35.6655
1214.19	36.7308
1214.46	33.5367
1214.74	37.7941
1215.02	33.534
1215.29	36.7255
1215.57	33.5242
1215.85	37.7685
1216.13	34.562
1216.41	37.7366
1216.68	32.4114
1216.96	33.4647
1217.24	35.5787
1217.51	31.3231
1217.79	31.3162
1218.07	34.493
1218.35	33.4273
1218.62	30.2419
1218.9	25.9949
1219.18	36.6014
1219.45	33.4118
1219.73	32.3495
1220.01	34.4715
1220.29	34.4695
1220.56	35.5275
1220.84	36.5811
1221.12	36.5752
1221.4	34.4457
1221.67	37.6111
1221.95	35.4763
1222.23	38.6342
1222.5	37.5572
1222.78	38.5981
1223.06	36.4668
1223.33	37.5112
1223.61	35.3848
1223.89	39.5994
1224.16	37.4803
1224.44	38.53
1224.72	41.695
1225	42.7541
1225.27	37.4807
1225.55	41.7089
1225.83	41.7083
1226.1	43.8169
1226.38	39.587
1226.66	46.9683
1226.93	38.5074
1227.21	42.69
1227.49	43.7143
1227.76	47.9001
1228.04	49.9617
1228.32	55.1766
1228.6	55.1652
1228.87	55.2757
1229.15	56.4549
1229.43	59.5949
1229.7	50.0536
1229.98	65.8294
1230.26	67.9411
1230.53	68.9677
1230.81	73.0352
1231.08	76.1848
1231.36	71.9817
1231.64	73.031
1231.91	87.7312
1232.19	81.4249
1232.47	91.9271
1232.74	96.1193
1233.02	87.7117
1233.3	86.6651
1233.57	89.8247
1233.85	98.2383
1234.13	94.0484
1234.4	83.5557
1234.68	91.9712
1234.96	90.9277
1235.23	76.2208
1235.51	77.2797
1235.79	73.0745
1236.06	75.1686
1236.34	66.7479
1236.62	63.5824
1236.89	65.6626
1237.17	66.6893
1237.44	64.5657
1237.72	51.949
1238	58.2244
1238.27	56.1091
1238.55	49.8075
1238.83	52.9457
1239.1	52.9398
1239.38	51.8877
1239.66	50.8376
1239.93	43.4997
1240.21	43.5007
1240.48	47.6958
1240.76	49.7947
1241.04	45.599
1241.31	49.7827
1241.59	48.7282
1241.86	43.4881
1242.14	43.4913
1242.42	38.2553
1242.69	43.5031
1242.97	39.3103
1243.25	31.9719
1243.52	42.4573
1243.8	44.5546
1244.07	47.6964
1244.35	44.5477
1244.63	50.8273
1244.9	43.4801
1245.18	51.8455
1245.46	44.498
1245.73	46.5835
1246.01	50.767
1246.28	49.7192
1246.56	53.906
1246.83	52.8553
1247.11	51.8066
1247.39	65.4073
1247.66	57.0172
1247.94	57.0025
1248.21	49.6779
1248.49	57.001
1248.77	59.0974
1249.04	60.1413
1249.32	58.0466
1249.59	54.9092
1249.87	64.3121
1250.15	63.2499
1250.42	65.3257
1250.7	68.4477
1250.97	62.1665
1251.25	63.2004
1251.52	63.189
1251.8	67.3544
1252.07	64.2097
1252.35	67.328
1252.63	61.053
1252.9	57.9153
1253.18	61.045
1253.45	64.1838
1253.73	60.0203
1254	55.8568
1254.28	53.7747
1254.56	58.9964
1254.83	55.8676
1255.11	51.6913
1255.38	53.7774
1255.66	47.5135
1255.93	54.8271
1256.21	46.4792
1256.48	48.5715
1256.76	45.4364
1257.03	41.2526
1257.31	46.47
1257.59	49.599
1257.86	54.8154
1258.14	52.7228
1258.41	51.6652
1258.69	55.8365
1258.96	47.4934
1259.24	44.364
1259.51	38.1227
1259.79	44.3774
1260.07	41.2363
1260.34	46.4384
1260.61	44.3397
1260.89	41.2026
1261.17	50.5892
1261.44	45.4112
1261.72	47.5553
1261.99	50.7577
1262.27	48.5784
1262.54	59.9991
1262.82	55.775
1263.09	65.2249
1263.37	79.8976
1263.64	90.4163
1263.92	98.8678
1264.19	97.7523
1264.47	93.5417
1264.74	84.1334
1265.02	75.7707
1265.29	54.8561
1265.57	50.6755
1265.84	47.5437
1266.12	43.3694
1266.39	41.2867
1266.67	41.2959
1266.94	35.0324
1267.22	37.1345
1267.49	38.1927
1267.77	44.4894
1268.04	34.0355
1268.32	37.1849
1268.59	39.2864
1268.87	33.005
1269.14	33.0048
1269.42	38.2356
1269.69	37.1774
1269.97	34.0276
1270.24	39.2536
1270.52	34.0133
1270.79	31.9174
1271.07	34.0065
1271.34	39.2392
1271.62	30.8746
1271.89	28.7894
1272.17	37.1779
1272.44	35.0935
1272.72	31.9591
1272.99	31.9677
1273.27	37.2181
1273.54	30.9359
1273.82	41.4304
1274.09	34.0907
1274.36	30.9431
1274.64	38.2853
1274.92	31.9947
1275.19	36.1964
1275.46	33.0546
1275.74	35.1614
1276.01	36.218
1276.29	32.025
1276.56	37.2804
1276.84	28.8858
1277.11	35.1969
1277.39	32.0526
1277.66	35.2126
1277.93	29.9624
1278.21	35.229
1278.48	38.3906
1278.76	40.5018
1279.03	36.2927
1279.31	42.6014
1279.58	42.5961
1279.86	41.5418
1280.13	46.8037
1280.41	48.9106
1280.68	54.1822
1280.95	58.4105
1281.23	68.9474
1281.5	68.9444
1281.78	87.8976
1282.05	110.022
1282.33	136.327
1282.6	179.422
1282.87	247.586
1283.15	375.664
1283.42	531.22
1283.7	818.06
1283.97	1120.4
1284.25	1370.32
1284.52	1225.05
1284.79	801.03
1285.07	444.833
1285.34	267.94
1285.62	173.229
1285.89	115.319
1286.17	101.604
1286.44	74.2282
1286.71	57.3795
1286.99	55.2667
1287.26	55.2567
1287.53	48.9354
1287.81	48.9343
1288.08	44.7262
1288.36	37.3615
1288.63	43.6823
1288.91	40.5319
1289.18	39.4863
1289.45	38.4412
1289.73	41.6088
1290	37.397
1290.27	36.3393
1290.55	34.2305
1290.82	34.2299
1291.1	34.2296
1291.37	36.335
1291.65	31.0687
1291.92	35.2837
1292.19	32.1235
1292.47	31.0672
1292.74	36.3338
1293.01	32.1295
1293.29	31.0895
1293.56	35.3195
1293.84	30.0545
1294.11	41.6538
1294.38	34.2709
1294.66	33.2195
1294.93	33.2328
1295.2	29.0279
1295.48	33.2728
1295.75	29.0625
1296.03	30.1239
1296.3	28.0108
1296.57	30.1227
1296.85	32.2312
1297.12	32.225
1297.39	31.1615
1297.67	30.0976
1297.94	30.0983
1298.21	26.93
1298.49	32.2052
1298.76	27.9776
1299.04	31.1401
1299.31	32.1943
1299.58	30.0875
1299.86	31.1472
1300.13	26.925
1300.4	30.0917
1300.68	30.0906
1300.95	27.9799
1301.22	26.928
1301.5	29.0448
1301.77	36.4417
1302.04	27.9926
1302.32	31.1615
1302.59	31.1599
1302.86	26.9321
1303.14	25.8718
1303.41	27.982
1303.68	31.1502
1303.96	27.9827
1304.23	25.8706
1304.5	29.0355
1304.78	26.9195
1305.05	25.8582
1305.32	30.0734
1305.6	29.0112
1305.87	26.8957
1306.14	30.0567
1306.42	24.7831
1306.69	27.9493
1306.96	33.2242
1307.24	27.9503
1307.51	29.0046
1307.78	31.1162
1308.06	27.95
1308.33	29.0057
1308.6	26.9004
1308.88	32.1796
1309.15	30.074
1309.42	26.9116
1309.69	27.9666
1309.97	24.7988
1310.24	29.0197
1310.51	31.1315
1310.79	39.5762
1311.06	24.8023
1311.33	26.9147
1311.61	24.8081
1311.88	25.868
1312.15	27.982
1312.43	24.8143
1312.7	27.9774
1312.97	27.9758
1313.24	29.0295
1313.52	25.8606
1313.79	30.0823
1314.06	25.8615
1314.34	29.031
1314.61	30.0904
1314.88	30.0941
1315.15	25.8737
1315.43	24.821
1315.7	29.0457
1315.97	24.8194
1316.24	29.0427
1316.52	23.7615
1316.79	27.9857
1317.06	25.8765
1317.33	27.992
1317.61	26.9377
1317.88	27.9953
1318.15	26.9397
1318.43	24.827
1318.7	27.9959
1318.97	26.9384
1319.24	25.8811
1319.52	26.9389
1319.79	23.7702
1320.06	27.995
1320.33	24.8226
1320.61	31.1539
1320.88	30.0897
1321.15	26.9139
1321.43	30.0746
1321.7	26.9013
1321.97	26.8973
1322.24	31.1122
1322.52	27.9445
1322.79	30.0467
1323.06	27.941
1323.33	24.7792
1323.61	25.8345
1323.88	26.8879
1324.15	26.8887
1324.42	28.996
1324.69	26.8906
1324.97	27.9393
1325.24	25.8195
1325.51	26.8596
1325.78	29.9956
1326.06	24.7252
1326.33	24.7217
1326.6	24.7273
1326.87	23.6925
1327.15	28.9678
1327.42	28.9778
1327.69	28.9889
1327.96	23.7278
1328.23	29.0104
1328.51	21.6301
1328.78	29.0101
1329.05	24.794
1329.32	24.7932
1329.6	25.8464
1329.87	24.7885
1330.14	24.7843
1330.41	23.7243
1330.68	27.9341
1330.96	22.6553
1331.23	25.805
1331.5	28.9542
1331.77	25.7885
1332.04	25.781
1332.32	23.6685
1332.59	25.7631
1332.86	24.7035
1333.13	25.7468
1333.4	28.8913
1333.68	26.7827
1333.95	27.8256
1334.22	21.5202
1334.49	26.7633
1334.76	25.7088
1335.04	24.6548
1335.31	27.7974
1335.58	24.6464
1335.85	28.8372
1336.12	24.6394
1336.4	31.9749
1336.67	26.7306
1336.94	28.8247
1337.21	24.6296
1337.48	31.9594
1337.75	29.856
1338.03	18.3299
1338.3	28.7997
1338.57	28.7959
1338.84	28.7948
1339.11	28.7955
1339.38	25.6557
1339.66	23.5621
1339.93	27.7517
1340.2	29.8474
1340.47	23.5636
1340.74	21.4682
1341.01	20.4197
1341.29	23.5588
1341.56	24.6022
1341.83	24.5972
1342.1	20.4053
1342.37	24.5845
1342.64	20.3965
1342.92	25.6243
1343.19	28.7608
1343.46	24.5771
1343.73	23.5316
1344	24.5777
1344.27	24.576
1344.54	25.6179
1344.82	21.4309
1345.09	21.4246
1345.36	30.8222
1345.63	28.7236
1345.9	22.4462
1346.17	22.4381
1346.44	23.4748
1346.72	27.6396
1346.99	29.7172
1347.26	22.4138
1347.53	26.5802
1347.8	26.5777
1348.07	25.5335
1348.34	25.53
1348.61	25.5255
1348.89	25.5206
1349.16	24.4744
1349.43	21.3462
1349.7	23.4246
1349.97	26.5431
1350.24	30.6997
1350.51	24.4496
1350.79	27.5659
1351.06	27.5593
1351.33	24.4367
1351.6	23.3962
1351.87	23.3983
1352.14	26.5233
1352.41	21.3291
1352.68	24.4538
1352.95	26.5545
1353.23	29.71
1353.5	25.5233
1353.77	27.5665
1354.04	27.5337
1354.31	25.4558
1354.58	28.5768
1354.85	26.4908
1355.12	24.4059
1355.39	25.4512
1355.66	31.6919
1355.94	25.4509
1356.21	26.4871
1356.48	28.562
1356.75	26.4824
1357.02	28.5559
1357.29	28.5516
1357.56	26.4707
1357.83	29.5796
1358.1	27.4991
1358.37	23.344
1358.64	25.4138
1358.92	28.5214
1359.19	28.5178
1359.46	21.2542
1359.73	25.3935
1360	25.3866
1360.27	28.489
1360.54	28.4863
1360.81	29.5215
1361.08	27.4491
1361.35	28.4833
1361.62	32.6231
1361.89	31.5838
1362.16	25.3682
1362.43	27.4376
1362.7	26.4034
1362.98	26.4074
1363.25	24.3398
1363.52	30.5578
1363.79	28.4869
1364.06	30.5567
1364.33	26.4109
1364.6	29.5133
1364.87	32.613
1365.14	34.6756
1365.41	32.598
1365.68	32.5908
1365.95	30.5145
1366.22	27.4038
1366.49	28.4284
1366.76	29.4563
1367.03	30.4868
1367.3	32.5563
1367.57	30.4923
1367.85	32.5616
1368.12	31.5299
1368.38	30.4979
1368.66	33.6021
1368.93	48.0804
1369.2	69.7886
1369.47	78.0506
1369.74	59.4358
1370.01	37.7203
1370.28	35.6478
1370.55	29.4432
1370.82	27.37
1371.09	33.5562
1371.36	30.4471
1371.63	32.4989
1371.9	28.3621
1372.17	27.3231
1372.44	25.2563
1372.71	33.4986
1372.98	33.4944
1373.25	31.4299
1373.52	26.2752
1373.79	28.334
1374.06	32.4532
1374.33	33.481
1374.6	32.4468
1374.87	32.4472
1375.14	34.5115
1375.41	29.3603
1375.68	34.5136
1375.95	34.5062
1376.22	35.5278
1376.49	29.34
1376.76	30.3558
1377.03	34.4738
1377.3	34.4817
1377.57	33.4649
1377.84	35.5408
1378.11	32.4698
1378.38	36.6011
1378.65	33.5078
1378.92	37.6271
1379.19	38.6529
1379.46	35.5543
1379.73	38.6333
1380	38.5997
1380.27	40.6402
1380.54	40.619
1380.81	32.4007
1381.08	40.6209
1381.35	44.7143
1381.62	41.6094
1381.89	45.6993
1382.16	42.6036
1382.43	39.5076
1382.7	41.5489
1382.97	53.8424
1383.24	57.935
1383.51	49.7226
1383.78	58.9513
1384.05	66.1322
1384.32	72.2968
1384.59	77.4419
1384.86	97.9983
1385.13	106.235
1385.39	127.823
1385.66	150.426
1385.93	195.65
1386.2	256.273
1386.47	430.896
1386.74	715.109
1387.01	1333.67
1387.28	2267.29
1387.55	2866.86
1387.82	2185.41
1388.09	1078.36
1388.36	499.068
1388.63	281.835
1388.9	199.697
1389.17	135.042
1389.44	111.394
1389.71	89.7729
1389.98	78.4362
1390.25	73.3223
1390.51	54.8367
1390.78	55.8551
1391.05	52.7778
1391.32	53.7912
1391.59	45.5827
1391.86	46.5962
1392.13	41.4685
1392.4	44.5341
1392.67	45.5525
1392.94	40.4302
1393.21	43.4969
1393.48	43.4934
1393.75	43.4903
1394.02	37.3483
1394.28	40.4162
1394.55	36.3258
1394.82	39.4027
1395.09	38.3841
1395.36	37.3631
1395.63	40.4334
1395.9	36.3362
1396.17	36.3322
1396.44	33.2577
1396.71	34.2753
1396.98	34.2688
1397.25	37.3335
1397.51	35.287
1397.78	34.2661
1398.05	33.2469
1398.32	37.3419
1398.59	34.2747
1398.86	36.3263
1399.13	35.3074
1399.4	35.311
1399.66	27.1233
1399.93	40.4335
1400.2	35.3236
1400.47	35.3288
1400.74	37.3767
1401.01	29.1872
1401.28	29.1878
1401.55	38.4154
1401.82	36.3856
1402.09	29.2286
1402.35	35.3989
1402.62	32.3318
1402.89	36.4443
1403.16	28.2328
1403.43	28.2284
1403.7	32.3174
1403.97	31.2929
1404.24	40.525
1404.51	35.3915
1404.77	37.4371
1405.04	35.3793
1405.31	35.3732
1405.58	43.5685
1405.85	37.4136
1406.12	43.5598
1406.39	44.5863
1406.65	43.5643
1406.92	51.7694
1407.19	56.8988
1407.46	68.1803
1407.73	73.3111
1408	86.6455
1408.27	116.391
1408.53	142.041
1408.8	169.746
1409.07	172.837
1409.34	132.842
1409.61	104.124
1409.88	80.5154
1410.15	65.1135
1410.41	48.6915
1410.68	46.6301
1410.95	44.5727
1411.22	36.3703
1411.49	36.3679
1411.76	36.3722
1412.02	31.2573
1412.29	33.3225
1412.56	29.2579
1412.83	31.3384
1413.1	34.404
1413.36	33.3214
1413.63	26.1474
1413.9	30.2689
1414.17	27.2077
1414.44	30.2851
1414.71	32.3399
1414.97	27.2068
1415.24	29.2608
1415.51	29.2632
1415.78	31.3198
1416.05	28.242
1416.32	27.2179
1416.58	31.3301
1416.85	29.2793
1417.12	31.3377
1417.39	31.34
1417.66	26.203
1417.92	28.2591
1418.19	33.3996
1418.46	24.1504
1418.73	27.2349
1419	31.3433
1419.26	29.283
1419.53	28.2498
1419.8	28.2449
1420.07	29.2663
1420.34	29.2601
1420.61	28.2281
1420.87	27.1986
1421.14	29.2523
1421.41	26.1788
1421.68	28.2427
1421.94	29.2782
1422.21	27.2377
1422.48	28.2868
1422.75	27.2851
1423.02	29.31
1423.28	23.0605
1423.55	27.1802
1423.82	28.1796
1424.09	29.1935
1424.36	28.1846
1424.62	28.1932
1424.89	29.2387
1425.16	29.2228
1425.43	27.1865
1425.69	29.2363
1425.96	32.3095
1426.23	26.1487
1426.5	28.1923
1426.77	31.2589
1427.03	28.1742
1427.3	26.1153
1427.57	27.1348
1427.84	27.1327
1428.1	29.1806
1428.37	23.0387
1428.64	30.2088
1428.91	22.0191
1429.17	27.144
1429.44	26.125
1429.71	29.2062
1429.98	27.1631
1430.24	32.2969
1430.51	24.1048
1430.78	26.1663
1431.05	24.119
1431.31	23.0937
1431.58	28.2217
1431.85	23.0851
1432.12	25.1329
1432.38	29.2292
1432.65	25.1176
1432.92	23.0579
1433.19	25.0975
1433.45	27.1389
1433.72	25.0876
1433.99	28.1687
1434.26	28.1781
1434.52	25.1054
1434.79	25.1059
1435.06	24.0809
1435.32	25.1047
1435.59	28.1773
1435.86	24.0773
1436.13	22.0264
1436.4	23.0488
1436.66	26.1198
1436.93	23.046
1437.2	23.0442
1437.46	25.0909
1437.73	25.0918
1438	23.0468
1438.26	32.2691
1438.53	25.0994
1438.8	22.0272
1439.07	22.0303
1439.33	24.0848
1439.6	25.1167
1439.87	24.0954
1440.13	24.0973
1440.4	22.0471
1440.67	27.1758
1440.94	25.1237
1441.2	25.1201
1441.47	26.1428
1441.74	26.147
1442	23.0723
1442.27	22.0509
1442.54	23.075
1442.8	25.1222
1443.07	22.0429
1443.34	24.0909
1443.61	24.0898
1443.87	21.0153
1444.14	19.9955
1444.41	24.103
1444.67	27.1893
1444.94	21.0327
1445.21	24.1086
1445.47	24.1066
1445.74	23.079
1446.01	21.0261
1446.27	27.1781
1446.54	21.0231
1446.81	18.9704
1447.07	25.1199
1447.34	22.0417
1447.61	24.0913
1447.87	23.0697
1448.14	23.0754
1448.41	25.1288
1448.68	22.0519
1448.94	25.1272
1449.21	22.0479
1449.48	24.0951
1449.74	25.1161
1450.01	22.0389
1450.27	23.0623
1450.54	22.0356
1450.81	18.9595
1451.07	21.0071
1451.34	25.1037
1451.61	22.0281
1451.87	21.0025
1452.14	18.9538
1452.41	22.0282
1452.67	22.0308
1452.94	24.0829
1453.21	24.0837
1453.47	24.0822
1453.74	25.1054
1454.01	23.056
1454.27	19.9821
1454.54	22.0313
1454.81	24.0791
1455.07	26.1279
1455.34	19.9839
1455.6	25.111
1455.87	19.9867
1456.14	22.0353
1456.4	18.9576
1456.67	23.0525
1456.94	21.0019
1457.2	23.0495
1457.47	19.9752
1457.74	22.0242
1458	23.049
1458.27	22.026
1458.53	18.9537
1458.8	21.0034
1459.07	17.9305
1459.33	22.0283
1459.6	19.978
1459.86	21.0011
1460.13	22.024
1460.4	18.949
1460.66	22.0191
1460.93	18.9443
1461.2	17.9179
1461.46	20.9862
1461.73	23.0297
1461.99	25.0719
1462.26	21.9973
1462.53	19.9467
1462.79	23.01
1463.06	23.005
1463.32	25.0475
1463.59	20.9632
1463.86	19.9504
1464.12	22.0046
1464.39	20.9898
1464.65	23.0342
1464.92	20.9431
1465.18	21.9449
1465.45	20.9182
1465.72	21.9465
1465.98	20.9262
1466.25	21.9378
1466.52	22.9521
1466.78	20.9151
1467.05	22.9543
1467.31	18.8723
1467.58	21.9316
1467.84	20.9112
1468.11	20.9108
1468.38	20.9099
1468.64	20.9081
1468.91	20.9056
1469.17	20.9022
1469.44	20.8973
1469.71	20.8932
1469.97	17.8331
1470.24	19.869
1470.5	20.8861
1470.77	16.8091
1471.03	23.9355
1471.3	18.8401
1471.56	20.8752
1471.83	22.9109
1472.1	21.8921
1472.36	16.8005
1472.63	19.854
1472.89	19.8514
1473.16	21.8841
1473.42	21.8815
1473.69	19.8444
1473.95	16.7912
1474.22	19.8455
1474.48	21.8829
1474.75	18.8298
1475.02	21.8829
1475.28	22.899
1475.55	20.861
1475.81	20.8587
1476.08	17.8048
1476.34	20.8542
1476.61	19.8336
1476.88	17.7976
1477.14	18.8139
1477.41	21.8643
1477.67	21.8624
1477.94	20.8418
1478.2	19.822
1478.47	20.8356
1478.73	20.8322
1479	17.7804
1479.26	22.8558
1479.53	18.7886
1479.79	18.7826
1480.06	18.777
1480.32	21.8173
1480.59	20.8002
1480.85	19.7826
1481.12	21.8125
1481.38	19.7863
1481.65	18.775
1481.91	19.7939
1482.18	20.8124
1482.44	20.8131
1482.71	21.8305
1482.97	16.755
1483.24	20.8171
1483.51	21.8321
1483.77	19.7947
1484.04	21.8138
1484.3	20.7792
1484.57	24.8012
1484.83	22.7627
1485.1	19.7117
1485.36	16.71
1485.62	19.7602
1485.89	19.7686
1486.15	24.8154
1486.42	21.7828
1486.69	19.7611
1486.95	21.7829
1487.22	17.726
1487.48	20.7616
1487.75	22.7837
1488.01	20.7542
1488.28	17.7128
1488.54	18.7213
1488.8	21.7546
1489.07	20.7409
1489.33	19.7277
1489.6	18.7158
1489.86	23.7741
1490.13	19.7255
1490.39	19.7218
1490.66	20.7289
1490.92	19.7156
1491.19	21.7367
1491.45	20.7254
1491.72	18.7043
1491.98	22.748
1492.25	18.703
1492.51	20.7241
1492.78	22.7462
1493.04	17.6903
1493.3	18.7003
1493.57	20.722
1493.83	19.7123
1494.1	19.7144
1494.36	18.7031
1494.63	18.7007
1494.89	22.738
1495.16	18.6889
1495.42	24.7426
1495.69	18.6796
1495.95	17.6674
1496.22	22.7127
1496.48	21.6997
1496.74	17.6624
1497.01	21.6996
1497.27	20.689
1497.54	17.6609
1497.8	19.6794
1498.07	23.7167
1498.33	18.6712
1498.59	20.6906
1498.86	20.6918
1499.12	20.6936
1499.39	21.7052
1499.65	22.7158
1499.92	18.6774
1500.18	16.6577
1500.45	21.705
1500.71	23.7223
1500.97	17.6617
1501.24	18.6696
1501.5	21.6965
1501.77	22.7049
1502.03	20.6853
1502.29	20.6812
1502.56	21.6851
1502.82	17.6492
1503.09	20.6704
1503.35	16.6366
1503.62	20.6719
1503.88	21.6814
1504.14	18.6565
1504.41	18.6559
1504.67	18.6542
1504.94	21.6762
1505.2	20.6633
1505.47	20.6546
1505.73	19.6455
1505.99	22.6672
1506.26	21.6597
1506.52	19.6484
1506.78	19.6491
1507.05	19.6501
1507.31	18.6426
1507.58	19.6491
1507.84	18.6401
1508.1	26.7011
1508.37	20.6564
1508.63	21.6645
1508.9	18.6414
1509.16	21.664
1509.42	18.6425
1509.69	21.6689
1509.95	17.634
1510.22	15.6159
1510.48	21.6559
1510.74	19.6363
1511.01	19.6292
1511.27	20.6253
1511.53	20.6144
1511.8	19.5994
1512.06	21.5996
1512.33	20.5895
1512.59	16.5683
1512.85	16.5649
1513.12	16.563
1513.38	19.5772
1513.64	17.5769
1513.91	19.5889
1514.17	19.587
1514.44	20.5875
1514.7	18.5737
1514.96	19.5731
1515.23	21.5742
1515.49	19.5614
1515.75	19.5567
1516.02	19.5547
1516.28	19.5532
1516.54	21.5571
1516.81	18.5485
1517.07	17.5461
1517.33	17.5471
1517.6	19.5557
1517.86	21.5632
1518.13	18.5557
1518.39	18.5568
1518.65	20.5647
1518.92	18.5599
1519.18	18.5609
1519.44	18.5608
1519.71	19.5626
1519.97	20.5643
1520.23	21.5682
1520.5	18.5604
1520.76	16.5554
1521.02	16.5562
1521.29	20.5693
1521.55	19.5644
1521.81	17.556
1522.08	19.5601
1522.34	17.5521
1522.6	21.5608
1522.87	17.5447
1523.13	16.536
1523.39	19.537
1523.66	17.5293
1523.92	17.5262
1524.18	17.5234
1524.45	17.5245
1524.71	18.5271
1524.97	21.5323
1525.24	18.5301
1525.5	16.5298
1525.76	19.5401
1526.03	18.5421
1526.29	18.5441
1526.55	14.5345
1526.81	19.5441
1527.08	19.5426
1527.34	17.5369
1527.6	16.5335
1527.87	18.5355
1528.13	18.5335
1528.39	16.5283
1528.66	18.5307
1528.92	19.532
1529.18	18.5294
1529.44	19.5281
1529.71	14.5199
1529.97	19.5281
1530.23	18.5301
1530.5	17.5321
1530.76	19.539
1531.02	17.5359
1531.28	19.5389
1531.55	18.5374
1531.81	18.5351
1532.07	20.5404
1532.34	16.5365
1532.6	16.5422
1532.86	21.5621
1533.13	17.5535
1533.39	18.5583
1533.65	18.5584
1533.91	15.5482
1534.18	17.5532
1534.44	18.5544
1534.7	18.5528
1534.96	18.5502
1535.23	17.5391
1535.49	18.5352
1535.75	14.5245
1536.01	20.5279
1536.28	18.5184
1536.54	18.5119
1536.8	19.5098
1537.06	17.5044
1537.33	20.5054
1537.59	17.5018
1537.85	17.496
1538.11	18.4937
1538.38	19.4907
1538.64	20.4944
1538.9	18.5046
1539.17	20.5203
1539.43	21.5328
1539.69	16.532
1539.95	17.542
1540.22	19.5525
1540.48	17.5509
1540.74	17.5431
1541	17.5426
1541.27	15.5337
1541.53	20.5396
1541.79	18.5311
1542.05	26.538
1542.32	17.521
1542.58	16.5162
1542.84	18.5139
1543.1	19.5088
1543.36	18.5007
1543.63	18.5014
1543.89	18.502
1544.15	18.5053
1544.41	17.5107
1544.67	15.5122
1544.94	16.5201
1545.2	16.524
1545.46	15.5246
1545.72	16.5287
1545.99	17.5291
1546.25	17.5296
1546.51	16.5299
1546.77	16.5317
1547.04	18.5385
1547.3	16.5325
1547.56	18.5245
1547.82	17.5236
1548.08	20.5259
1548.35	18.5341
1548.61	16.5164
1548.87	17.4969
1549.13	16.4905
1549.39	14.4987
1549.66	17.5136
1549.92	17.5424
1550.18	15.5526
1550.44	17.5851
1550.71	15.5616
1550.97	16.568
1551.23	18.5743
1551.49	21.5757
1551.75	19.5765
1552.01	18.5829
1552.28	19.5846
1552.54	18.5781
1552.8	20.5687
1553.06	16.5523
1553.32	17.5544
1553.58	18.5542
1553.85	16.5438
1554.11	15.5364
1554.37	16.532
1554.63	15.5279
1554.89	19.5336
1555.16	20.5349
1555.42	18.5325
1555.68	18.5339
1555.94	17.5287
1556.2	16.5271
1556.46	18.5315
1556.73	16.5292
1556.99	15.5279
1557.25	19.5344
1557.51	16.5269
1557.77	17.5225
1558.04	18.5198
1558.3	16.512
1558.56	15.5065
1558.82	16.5024
1559.08	17.4986
1559.34	18.4952
1559.61	19.4921
1559.87	17.491
1560.13	14.4914
1560.39	17.4883
1560.65	16.4887
1560.91	14.4907
1561.17	18.4913
1561.44	16.4962
1561.7	14.5017
1561.96	16.5025
1562.22	15.5018
1562.48	13.5004
1562.74	11.5009
1563	16.5
1563.27	19.498
1563.53	16.5032
1563.79	19.5117
1564.05	15.5119
1564.31	18.514
1564.57	16.5062
1564.83	15.4819
1565.09	15.445
1565.36	15.4146
1565.62	14.4751
1565.88	15.4993
1566.14	19.4933
1566.4	19.4777
1566.66	13.4931
1566.92	19.5095
1567.18	17.5076
1567.45	16.4949
1567.71	14.496
1567.97	17.4977
1568.23	15.4994
1568.49	19.4984
1568.75	18.4919
1569.01	15.4893
1569.27	19.4861
1569.54	14.4909
1569.8	16.4901
1570.06	16.4904
1570.32	16.4902
1570.58	18.4883
1570.84	15.489
1571.1	16.4859
1571.36	14.4848
1571.62	15.4832
1571.89	14.4828
1572.15	18.4744
1572.41	19.4701
1572.67	15.4741
1572.93	15.4716
1573.19	20.4592
1573.45	18.4629
1573.71	16.4696
1573.97	14.4765
1574.23	17.4758
1574.49	16.4813
1574.76	15.4862
1575.02	15.4894
1575.28	16.4899
1575.54	17.4881
1575.8	17.4878
1576.06	15.488
1576.32	13.4857
1576.58	14.4792
1576.84	19.465
1577.1	16.4646
1577.36	14.4643
1577.62	16.4543
1577.88	17.4478
1578.14	15.4526
1578.41	15.4524
1578.67	16.4492
1578.93	14.4554
1579.19	14.4559
1579.45	16.4523
1579.71	14.4593
1579.97	13.4625
1580.23	16.4538
1580.49	15.455
1580.75	13.4586
1581.01	16.4474
1581.27	16.4443
1581.53	15.4441
1581.79	16.4391
1582.05	16.438
1582.31	16.4367
1582.57	16.4356
1582.84	14.4429
1583.1	16.4349
1583.36	13.4452
1583.62	14.4408
1583.88	16.4341
1584.14	15.4392
1584.4	18.4283
1584.66	15.44
1584.92	16.4351
1585.18	15.4387
1585.44	16.4337
1585.7	12.447
1585.96	18.4168
1586.22	17.4181
1586.48	14.4301
1586.74	15.4236
1587	16.4171
1587.26	15.4213
1587.52	14.4262
1587.78	17.4122
1588.04	15.4238
1588.3	16.4214
1588.56	14.4327
1588.82	16.4255
1589.08	15.4316
1589.34	17.4236
1589.6	16.4277
1589.87	19.4159
1590.13	16.4307
1590.39	12.449
1590.65	17.428
1590.91	13.4445
1591.17	15.4353
1591.43	16.4299
1591.69	17.4222
1591.95	17.4165
1592.21	15.422
1592.47	14.4255
1592.73	17.4039
1592.99	15.409
1593.25	15.4022
1593.51	17.3847
1593.77	15.3954
1594.03	15.395
1594.29	13.4098
1594.55	14.4062
1594.81	18.3827
1595.07	15.4039
1595.33	17.3818
1595.59	16.3881
1595.85	16.3881
1596.11	13.4085
1596.37	15.3954
1596.63	18.3763
1596.89	13.4108
1597.15	16.3928
1597.41	17.3861
1597.66	18.3781
1597.92	17.382
1598.18	16.3843
1598.44	14.3947
1598.7	17.3696
1598.96	20.3438
1599.22	14.3871
1599.48	17.3607
1599.74	18.3499
1600	13.388
1600.26	15.3679
1600.52	19.3279
1600.78	17.3399
1601.04	18.3246
1601.3	15.3487
1601.56	10.3953
1601.82	13.3629
1602.08	15.3394
1602.34	13.3568
1602.6	15.3322
1602.86	18.2961
1603.12	17.3048
1603.38	16.3144
1603.64	17.3025
1603.9	17.3027
1604.16	18.2921
1604.41	16.3147
1604.67	16.315
1604.93	16.3005
1605.19	14.3696
1605.45	15.3041
1605.71	12.4766
1605.97	16.2898
1606.23	16.1509
1606.49	15.9276
1606.75	13.1619
1607.01	16.0169
1607.27	14.3155
1607.53	19.7226
1607.79	16.7889
1608.05	18.6109
1608.31	16.1891
1608.56	17.8641
1608.82	14.4005
1609.08	16.1736
1609.34	14.4796
1609.6	12.123
1609.86	17.7769
1610.12	15.6491
1610.38	14.6685
1610.64	14.9659
1610.9	14.5446
1611.16	16.046
1611.42	15.1633
1611.68	16.3744
1611.93	14.8457
1612.19	16.2074
1612.45	14.6261
1612.71	16.5386
1612.97	14.4394
1613.23	15.7107
1613.49	12.2676
1613.75	16.2023
1614.01	14.6099
1614.27	14.6712
1614.53	15.6597
1614.78	13.8017
1615.04	16.482
1615.3	14.7815
1615.56	13.3173
1615.82	15.4544
1616.08	14.4349
1616.34	15.5189
1616.6	15.374
1616.86	14.2048
1617.12	14.5407
1617.37	15.7953
1617.63	15.2
1617.89	15.2711
1618.15	15.3342
1618.41	15.5989
1618.67	13.9845
1618.93	16.2681
1619.19	14.7733
1619.44	14.3688
1619.7	15.9137
1619.96	14.3377
1620.22	13.9282
1620.48	14.8951
1620.74	14.9242
1621	15.8493
1621.26	12.9543
1621.51	14.6828
1621.77	13.6427
1622.03	15.5779
1622.29	14.6344
1622.55	14.6038
1622.81	15.541
1623.07	15.6634
1623.33	14.7084
1623.58	13.6533
1623.84	12.41
1624.1	15.0216
1624.36	14.2152
1624.62	12.023
1624.88	14.6582
1625.14	13.8445
1625.39	12.3994
1625.65	13.1756
1625.91	13.4758
1626.17	14.4366
1626.43	13.8051
1626.69	14.0848
1626.94	13.5195
1627.2	13.5513
1627.46	14.3914
1627.72	14.0798
1627.98	15.0992
1628.24	14.1264
1628.5	14.7472
1628.75	13.3285
1629.01	14.3453
1629.27	14.1759
1629.53	13.9947
1629.79	15.5053
1630.05	13.9376
1630.3	14.0607
1630.41	15.2666
1630.67	14.282
1630.94	15.2685
1631.2	14.286
1631.46	13.3033
1631.72	14.2901
1631.98	14.2909
1632.24	14.2966
1632.5	17.2581
1632.77	13.307
1633.03	17.2435
1633.29	14.2876
1633.55	14.29
1633.81	15.2774
1634.07	13.3067
1634.33	14.2925
1634.59	12.3209
1634.86	14.2916
1635.12	16.2617
1635.38	14.2894
1635.64	15.2732
1635.9	15.2713
1636.16	9.35864
1636.42	17.2371
1636.68	13.2949
1636.95	16.247
1637.21	15.2615
1637.47	15.2606
1637.73	13.2902
1637.99	13.2889
1638.25	15.2573
1638.51	14.2731
1638.77	15.2574
1639.04	17.2261
1639.3	18.2103
1639.56	13.2883
1639.82	14.2722
1640.08	14.2742
1640.34	14.2767
1640.6	16.2476
1640.86	12.3087
1641.12	16.2458
1641.38	13.2909
1641.65	16.2434
1641.91	12.3051
1642.17	14.2733
1642.43	14.2728
1642.69	12.3038
1642.95	16.2409
1643.21	14.2715
1643.47	14.2702
1643.73	14.2685
1644	14.2658
1644.26	12.2974
1644.52	15.2484
1644.78	14.2673
1645.04	17.2204
1645.3	10.3333
1645.56	11.3167
1645.82	15.2512
1646.08	15.2494
1646.34	13.2805
1646.6	18.1985
1646.86	13.278
1647.12	15.244
1647.39	15.2425
1647.65	14.2597
1647.91	15.2444
1648.17	22.1334
1648.43	15.2508
1648.69	15.2619
1648.95	14.2746
1649.21	15.2582
1649.47	16.2404
1649.73	15.2578
1649.99	15.2642
1650.25	17.2362
1650.51	15.2698
1650.77	17.2431
1651.03	15.2741
1651.29	15.2745
1651.55	17.2454
1651.82	16.2602
1652.08	18.2317
1652.34	14.2875
1652.6	14.2862
1652.86	13.3007
1653.12	13.301
1653.38	17.2433
1653.64	14.2888
1653.9	11.3331
1654.16	15.2759
1654.42	17.2486
1654.68	16.2657
1654.94	17.2558
1655.2	11.3433
1655.46	15.2939
1655.72	14.3101
1655.98	13.325
1656.24	17.2744
1656.5	14.3133
1656.76	15.2997
1657.02	13.3242
1657.28	16.2837
1657.54	13.3222
1657.8	14.3077
1658.06	13.3194
1658.33	13.3175
1658.59	14.3019
1658.85	14.2998
1659.11	15.2837
1659.37	16.2669
1659.63	17.2513
1659.89	13.3096
1660.15	15.2836
1660.41	14.3
1660.67	16.2755
1660.93	14.3057
1661.19	14.3078
1661.45	15.297
1661.71	14.3018
1661.97	14.309
1662.23	18.2859
1662.49	13.3468
1662.75	14.3303
1663.01	14.3312
1663.27	14.3088
1663.53	12.331
1663.79	13.3265
1664.05	13.3279
1664.31	15.3074
1664.57	13.3388
1664.83	15.3103
1665.09	13.3107
1665.35	14.3188
1665.61	15.3267
1665.87	16.3135
1666.13	9.39557
1666.39	14.2773
1666.65	15.2849
1666.91	14.313
1667.17	10.3623
1667.43	15.2954
1667.69	12.3329
1667.95	14.3044
1668.21	15.2937
1668.46	13.3298
1668.72	16.2968
1668.99	17.2853
1669.25	13.3348
1669.5	17.2866
1669.76	13.3321
1670.02	14.324
1670.28	15.322
1670.54	13.345
1670.8	15.3203
1671.06	14.3313
1671.32	16.3073
1671.58	13.3441
1671.84	12.3562
1672.1	16.3107
1672.36	14.3333
1672.62	15.3221
1672.88	13.3456
1673.14	14.3349
1673.4	17.3023
1673.66	15.3268
1673.92	11.3732
1674.18	17.3091
1674.44	14.344
1674.7	14.3471
1674.96	13.3593
1675.22	11.3809
1675.47	14.3496
1675.73	13.36
1675.99	14.3505
1676.25	13.3614
1676.51	13.3616
1676.77	15.3407
1677.03	15.3396
1677.29	11.3798
1677.55	15.3354
1677.81	15.3322
1678.07	12.3621
1678.33	14.3377
1678.59	15.3246
1678.85	15.3229
1679.11	14.3332
1679.37	15.3201
1679.63	14.3304
1679.88	13.341
1680.14	13.3396
1680.4	13.3383
1680.66	15.3133
1680.92	14.3249
1681.18	13.3368
1681.44	14.3247
1681.7	14.3248
1681.96	14.325
1682.22	14.325
1682.48	11.3608
1682.73	14.3242
1682.99	11.3605
1683.25	14.324
1683.51	14.3234
1683.77	13.3342
1684.03	14.3202
1684.29	12.3442
1684.55	18.2686
1684.81	8.39346
1685.07	13.3306
1685.33	13.3307
1685.58	15.3058
1685.84	12.344
1686.1	15.3088
1686.36	14.3235
1686.62	12.3488
1686.88	15.3122
1687.14	17.2863
1687.4	14.3213
1687.66	13.3322
1687.92	14.3184
1688.17	16.2914
1688.43	14.314
1688.69	15.2983
1688.95	14.3088
1689.21	12.333
1689.47	16.276
1689.73	14.3002
1689.99	15.2889
1690.25	13.3183
1690.5	13.3198
1690.76	16.281
1691.02	15.2949
1691.28	14.3104
1691.54	13.3241
1691.8	14.3107
1692.06	13.3227
1692.31	21.2135
1692.57	12.331
1692.83	14.3004
1693.09	13.3104
1693.35	13.3065
1693.61	14.2899
1693.87	13.3015
1694.13	14.284
1694.39	16.2526
1694.64	11.328
1694.9	14.2841
1695.16	12.3146
1695.42	14.2859
1695.68	13.3018
1695.94	14.2893
1696.19	15.2756
1696.45	13.3039
1696.71	12.3168
1696.97	14.2843
1697.23	13.2956
1697.49	14.277
1697.74	12.3054
1698	14.2718
1698.26	12.3014
1698.52	13.284
1698.78	16.2352
1699.04	13.2835
1699.3	16.2362
1699.55	15.2523
1699.81	12.2996
1700.07	16.233
1700.33	12.2974
1700.59	14.2642
1700.85	15.2469
1701.1	13.278
1701.36	13.2756
1701.62	13.2731
1701.88	14.2536
1702.14	13.268
1702.4	12.2836
1702.65	16.2137
1702.91	11.3
1703.17	13.2641
1703.43	17.1928
1703.69	15.2281
1703.94	14.2472
1704.2	14.2486
1704.46	12.2832
1704.72	15.2303
1704.98	15.2298
1705.24	14.2474
1705.49	16.2114
1705.75	16.2084
1706.01	15.2227
1706.27	13.2553
1706.53	13.2519
1706.78	15.2117
1707.04	15.208
1707.3	12.2609
1707.56	14.2182
1707.82	14.2137
1708.07	17.1485
1708.33	14.2037
1708.59	15.1789
1708.85	12.2387
1709.11	13.2163
1709.36	10.2789
1709.62	14.1947
1709.88	16.153
1710.14	11.2586
1710.4	12.2393
1710.65	13.2201
1710.91	14.2007
1711.17	13.2225
1711.43	16.1618
1711.68	11.2639
1711.94	14.1999
1712.2	15.1736
1712.46	13.2103
1712.72	14.1823
1712.97	17.111
1713.23	15.1487
1713.49	16.1218
1713.75	11.2347
1714.01	16.1174
1714.26	13.186
1714.52	13.1854
1714.78	14.1623
1715.04	14.1669
1715.29	13.1909
1715.55	15.1444
1715.81	14.1659
1716.07	14.1634
1716.32	11.2303
1716.58	13.1793
1716.84	14.1501
1717.1	16.0944
1717.35	14.1362
1717.61	12.1818
1717.87	12.1769
1718.13	15.0952
1718.38	15.0924
1718.64	15.0912
1718.9	13.1443
1719.16	14.1174
1719.41	16.0637
1719.67	14.1188
1719.93	13.1446
1720.19	13.1427
1720.44	14.1132
1720.7	12.1629
1720.96	13.1338
1721.22	14.1035
1721.47	14.1002
1721.73	13.1244
1721.99	16.0368
1722.25	17.0044
1722.5	14.0862
1722.76	15.0546
1723.02	12.139
1723.27	14.0801
1723.53	14.08
1723.79	14.0786
1724.05	14.0777
1724.3	14.0746
1724.56	12.1295
1724.82	16.0045
1725.08	13.0899
1725.33	14.0547
1725.59	13.0829
1725.85	15.0205
1726.11	14.0521
1726.36	11.1434
1726.62	11.1409
1726.88	13.075
1727.13	15.9822
1727.39	15.9846
1727.65	13.0767
1727.9	14.0418
1728.16	12.0956
1728.42	14.9761
1728.68	11.0982
1728.93	13.0273
1729.19	12.0694
1729.45	14.0071
1729.7	14.0068
1729.96	14.0001
1730.22	13.0319
1730.47	14.0034
1730.73	14.9793
1730.99	12.0807
1731.25	14.0137
1731.5	14.0132
1731.76	15.9448
1732.02	14.977
1732.27	14.009
1732.53	14.9725
1732.79	14.9687
1733.04	13.0328
1733.3	12.0622
1733.56	14.9517
1733.81	16.8758
1734.07	12.0503
1734.33	14.9375
1734.59	13.9692
1734.84	12.0387
1735.1	12.9986
1735.36	15.8841
1735.61	13.9571
1735.87	14.9183
1736.13	15.8789
1736.38	12.9901
1736.64	15.8746
1736.9	13.9483
1737.15	13.9466
1737.41	13.9446
1737.67	12.0188
1737.92	14.9002
1738.18	12.9749
1738.44	13.933
1738.69	13.9294
1738.95	15.8457
1739.21	11.9991
1739.46	11.0342
1739.72	15.8252
1739.98	12.9432
1740.23	14.8565
1740.49	11.0201
1740.74	13.8917
1741	14.8466
1741.26	13.886
1741.51	14.8416
1741.77	15.7979
1742.03	12.925
1742.28	13.8809
1742.54	14.8367
1742.8	14.8362
1743.05	13.8788
1743.31	12.9196
1743.57	11.9597
1743.82	13.8715
1744.08	12.9128
1744.33	11.9562
1744.59	12.9128
1744.85	15.7827
1745.1	14.8259
1745.36	15.7812
1745.62	11.9535
1745.87	13.8629
1746.13	16.7264
1746.38	14.8103
1746.64	12.8966
1746.9	12.8926
1747.15	12.8901
1747.41	13.8417
1747.67	13.8411
1747.92	11.9319
1748.18	12.8868
1748.44	11.9329
1748.69	13.8434
1748.95	11.9356
1749.2	12.8928
1749.46	12.8956
1749.72	12.8987
1749.97	13.8574
1750.23	14.8157
1750.48	14.8167
1750.74	13.8623
1751	10.0379
1751.25	13.8591
1751.51	11.9438
1751.76	14.8061
1752.02	13.8479
1752.28	12.8901
1752.53	13.8418
1752.79	12.8844
1753.04	14.7906
1753.3	11.9259
1753.56	14.7854
1753.81	12.8747
1754.07	13.8257
1754.32	12.8703
1754.58	15.7284
1754.84	13.8203
1755.09	16.6773
1755.35	14.7686
1755.6	11.9074
1755.86	14.7614
1756.12	18.5654
1756.37	13.8006
1756.63	11.8934
1756.88	12.842
1757.14	14.7428
1757.39	10.9377
1757.65	13.7934
1757.9	15.6993
1758.16	12.8457
1758.42	12.846
1758.67	13.7977
1758.93	11.895
1759.18	14.7502
1759.44	14.7496
1759.69	16.6515
1759.95	11.8929
1760.21	15.697
1760.46	12.8413
1760.72	12.839
1760.97	13.7874
1761.23	12.8346
1761.48	14.7345
1761.74	13.7828
1762	13.7838
1762.25	13.786
1762.51	14.7379
1762.76	11.8852
1763.02	11.8851
1763.27	12.8366
1763.53	15.6906
1763.78	13.7904
1764.04	12.8438
1764.29	13.7988
1764.55	13.8009
1764.81	18.5621
1765.06	13.8038
1765.32	13.8046
1765.57	14.7571
1765.83	13.8049
1766.08	13.8042
1766.34	12.851
1766.59	12.8508
1766.85	13.802
1767.1	12.8489
1767.36	14.75
1767.61	13.7969
1767.87	12.8434
1768.12	15.6977
1768.38	13.792
1768.64	15.6857
1768.89	14.7277
1769.15	13.7698
1769.4	14.7179
1769.66	12.8197
1769.91	14.7247
1770.17	13.7758
1770.42	13.7762
1770.68	12.8276
1770.93	13.7835
1771.19	13.7875
1771.44	13.7879
1771.7	13.7894
1771.95	17.5969
1772.21	14.7463
1772.46	17.6029
1772.72	16.6534
1772.97	15.7037
1773.23	14.7535
1773.48	13.803
1773.74	14.756
1773.99	16.6609
1774.25	13.8059
1774.5	13.8078
1774.76	14.7616
1775.01	13.8131
1775.27	15.7253
1775.52	14.7752
1775.78	13.8232
1776.03	16.6833
1776.29	15.7288
1776.54	12.8671
1776.8	15.7241
1777.05	13.8164
1777.31	15.7192
1777.56	16.6689
1777.82	15.7136
1778.07	14.7584
1778.33	16.6589
1778.58	16.6543
1778.84	14.7475
1779.09	15.6974
1779.35	15.6991
1779.6	16.6542
1779.85	15.7037
1780.11	13.8014
1780.36	15.7066
1780.62	14.7557
1780.87	15.7082
1781.13	12.8531
1781.38	12.8545
1781.64	13.8089
1781.89	15.7167
1782.15	12.8618
1782.4	14.7693
1782.66	13.8181
1782.91	14.773
1783.17	14.775
1783.42	14.7771
1783.68	16.6866
1783.93	16.6903
1784.18	13.8322
1784.44	15.7422
1784.69	17.6512
1784.95	17.6509
1785.2	13.8335
1785.46	18.6016
1785.71	16.693
1785.97	14.7859
1786.22	12.8797
1786.47	16.699
1786.73	14.7942
1786.98	17.6632
1787.24	17.6719
1787.49	15.7713
1787.75	19.6078
1788	18.662
1788.25	21.5396
1788.51	17.7137
1788.76	19.6352
1789.02	16.7675
1789.27	14.8541
1789.53	17.7314
1789.78	17.7341
1790.04	16.7769
1790.29	13.9006
1790.54	16.7761
1790.8	15.8087
1791.05	15.8039
1791.31	16.7598
1791.56	17.7168
1791.82	15.8022
1792.07	18.6758
1792.32	21.5515
1792.58	13.8903
1792.83	20.5978
1793.09	16.765
1793.34	14.8509
1793.59	15.8101
1793.85	16.7695
1794.1	18.6835
1794.36	17.7238
1794.61	15.8184
1794.86	17.7481
1795.12	17.7553
1795.37	18.7186
1795.63	16.8018
1795.88	15.8448
1796.14	20.6503
1796.39	16.8119
1796.64	19.6981
1796.9	19.7017
1797.15	20.666
1797.4	17.7847
1797.66	18.7481
1797.91	19.7113
1798.17	15.866
1798.42	18.7504
1798.67	17.7875
1798.93	15.8626
1799.18	17.7822
1799.44	16.8175
1799.69	16.8149
1799.94	14.8912
1800.2	17.7716
1800.45	19.6913
1800.7	15.8484
1800.96	17.7691
1801.21	19.6905
1801.47	16.8099
1801.72	19.6932
1801.97	16.8132
1802.23	15.8549
1802.48	15.8579
1802.73	18.7452
1802.99	16.8265
1803.24	17.7907
1803.5	16.8301
1803.75	14.9075
1804	18.7581
1804.26	15.8754
1804.51	16.8408
1804.76	17.8076
1805.02	18.7751
1805.27	17.8166
1805.53	15.8938
1805.78	18.7868
1806.03	16.8626
1806.29	17.8285
1806.54	15.9022
1806.79	17.8301
1807.05	18.7941
1807.3	16.8667
1807.55	17.8308
1807.81	16.8674
1808.06	19.7596
1808.31	15.9047
1808.57	14.9414
1808.82	20.7261
1809.07	17.8348
1809.33	15.9075
1809.58	18.8006
1809.83	15.9087
1810.09	17.837
1810.34	19.7642
1810.59	18.7994
1810.85	14.943
1811.1	15.9068
1811.35	19.763
1811.61	17.8354
1811.86	16.8727
1812.11	19.7676
1812.37	16.8776
1812.62	13.9869
1812.87	15.9176
1813.13	16.884
1813.38	15.922
1813.63	17.8566
1813.89	18.8268
1814.14	15.9359
1814.39	16.9061
1814.65	16.9094
1814.9	19.8107
1815.15	14.9799
1815.4	17.8802
1815.66	17.8813
1815.91	19.8152
1816.16	17.8843
1816.42	16.9171
1816.67	16.9169
1816.92	19.8105
1817.18	18.8347
1817.43	17.8666
1817.68	18.8345
1817.94	17.8727
1818.19	15.9455
1818.44	19.8107
1818.7	17.8783
1818.95	17.8801
1819.2	14.0161
1819.45	15.9509
1819.71	17.8863
1819.96	19.8226
1820.21	15.9571
1820.46	18.86
1820.72	19.8295
1820.97	19.8327
1821.22	17.9007
1821.48	19.8387
1821.73	18.8731
1821.98	18.8748
1822.24	17.9079
1822.49	18.8771
1822.74	16.9418
1822.99	17.9087
1823.25	18.8751
1823.5	17.9052
1823.75	18.874
1824.01	19.8439
1824.26	16.9414
1824.51	19.8475
1824.76	16.9449
1825.02	15.9784
1825.27	19.853
1825.52	17.9162
1825.77	21.7899
1826.03	14.043
1826.28	18.8858
1826.53	17.918
1826.78	15.9823
1827.04	17.9215
1827.29	16.9548
1827.54	17.9253
1827.8	17.9245
1828.05	19.8617
1828.3	19.8589
1828.55	25.6677
1828.81	17.9179
1829.06	19.8546
1829.31	15.0113
1829.56	17.9156
1829.82	15.9764
1830.07	19.8477
1830.32	17.9095
1830.57	19.8472
1830.83	21.7866
1831.08	18.8843
1831.33	18.8871
1831.58	17.9207
1831.83	20.8297
1832.09	23.7399
1832.34	18.8992
1832.59	18.901
1832.84	16.9624
1833.1	20.8405
1833.35	18.9039
1833.6	19.874
1833.85	17.9356
1834.11	18.8973
1834.36	15.0125
1834.61	21.7822
1834.86	16.9345
1835.11	16.9303
1835.37	17.8937
1835.62	15.9594
1835.87	17.9058
1836.12	17.9798
1836.37	16.9802
1836.63	17.9314
1836.88	16.9557
1837.13	17.9107
1837.38	18.8659
1837.64	17.8806
1837.89	16.9074
1838.14	18.8478
1838.39	17.9118
1838.64	15.0136
1838.9	18.8938
1839.15	18.896
1839.4	16.961
1839.65	15.9904
1839.91	17.9108
1840.16	18.8672
1840.41	17.8896
1840.66	17.8809
1840.91	17.8726
1841.16	15.9336
1841.42	16.8927
1841.67	14.9568
1841.92	18.8104
1842.17	14.9495
1842.42	15.9158
1842.68	16.8798
1842.93	16.8812
1843.18	18.8102
1843.43	16.8803
1843.68	14.9501
1843.94	18.8091
1844.19	17.8462
1844.44	16.8807
1844.69	15.9147
1844.94	18.8089
1845.19	18.8121
1845.45	16.89
1845.7	16.8972
1845.95	18.8383
1846.2	19.8083
1846.45	18.8248
1846.7	16.8679
1846.96	17.8114
1847.21	18.7706
1847.46	19.7376
1847.71	18.7845
1847.96	20.7122
1848.21	18.7776
1848.47	17.8123
1848.72	15.8857
1848.97	16.8445
1849.22	15.8772
1849.47	14.9105
1849.72	17.7902
1849.98	17.7844
1850.23	18.7403
1850.48	16.8143
1850.73	17.7714
1850.98	17.7684
1851.23	16.8057
1851.48	17.7647
1851.74	17.7642
1851.99	17.7643
1852.24	16.8041
1852.49	18.7245
1852.74	16.8033
1852.99	13.9217
1853.24	16.7998
1853.5	17.7556
1853.75	16.7908
1854	17.7442
1854.25	19.6581
1854.5	14.8618
1854.75	17.7347
1855.01	17.7284
1855.26	17.7234
1855.51	18.6792
1855.76	16.762
1856.01	19.635
1856.26	18.6775
1856.51	18.6771
1856.76	17.7184
1857.02	19.6316
1857.27	17.7144
1857.52	16.7547
1857.77	17.709
1858.02	18.6622
1858.27	18.6579
1858.52	14.8272
1858.77	17.6925
1859.02	18.6441
1859.28	16.73
1859.53	15.7746
1859.78	17.6863
1860.03	20.557
1860.28	19.6054
1860.53	15.7822
1860.78	18.6547
1861.03	16.7449
1861.28	17.704
1861.53	17.7042
1861.79	18.6596
1862.04	18.656
1862.29	16.7388
1862.54	14.8222
1862.79	17.6869
1863.04	18.6387
1863.29	18.6348
1863.54	15.7651
1863.79	17.6728
1864.04	15.7595
1864.3	14.8017
1864.55	17.6626
1864.8	16.7032
1865.05	19.5605
1865.3	17.646
1865.55	14.7785
1865.8	19.5375
1866.05	16.6712
1866.3	19.521
1866.55	19.5128
1866.8	20.4565
1867.05	16.6446
1867.3	15.6896
1867.56	20.4414
1867.81	17.5874
1868.06	17.5866
1868.31	18.5382
1868.56	16.6377
1868.81	17.5878
1869.06	19.488
1869.31	18.5363
1869.56	15.6837
1869.81	19.4849
1870.06	19.484
1870.31	16.6321
1870.56	17.5822
1870.82	19.4826
1871.07	18.5305
1871.32	18.5281
1871.57	17.5749
1871.82	15.6734
1872.07	19.4707
1872.32	15.6683
1872.57	17.5642
1872.82	18.5118
1873.07	15.6633
1873.32	18.5092
1873.57	13.761
1873.82	20.4002
1874.07	18.4982
1874.32	17.5451
1874.57	16.5924
1874.82	16.5878
1875.07	19.4255
1875.32	16.5758
1875.58	16.5669
1875.83	18.4545
1876.08	17.5031
1876.33	16.5536
1876.58	16.5498
1876.83	15.595
1877.08	16.5274
1877.33	20.2923
1877.58	18.4396
1877.83	16.5885
1878.08	20.3454
1878.33	18.4499
1878.58	17.5075
1878.83	18.4706
1879.08	18.4736
1879.33	17.5199
1879.58	13.7289
1879.83	15.622
1880.08	16.5692
1880.33	15.624
1880.58	18.461
1880.83	15.6184
1881.08	18.4496
1881.33	13.712
1881.58	18.4308
1881.83	15.5867
1882.08	19.3532
1882.33	16.5118
1882.58	19.3341
1882.83	17.4812
1883.08	17.5316
1883.33	16.5168
1883.58	17.4336
1883.83	16.4967
1884.08	17.4425
1884.33	16.4963
1884.58	16.5037
1884.83	18.3968
1885.08	18.3994
1885.33	17.4606
1885.58	20.3001
1885.83	13.6936
1886.08	15.5833
1886.33	18.4124
1886.58	15.5745
1886.83	16.5146
1887.08	17.4542
1887.33	16.5066
1887.58	17.4452
1887.83	16.4968
1888.08	20.2598
1888.33	13.6591
1888.58	15.538
1888.83	16.4754
1889.08	16.474
1889.33	17.4143
1889.58	15.5318
1889.83	17.4172
1890.08	15.5383
1890.33	17.4246
1890.58	17.4252
1890.83	18.3656
1891.08	17.423
1891.33	20.2476
1891.58	20.2462
1891.83	16.4791
1892.07	17.4193
1892.33	18.3579
1892.58	18.3534
1892.82	15.5225
1893.07	16.4542
1893.32	18.3271
1893.57	19.2705
1893.82	14.5679
1894.07	13.6243
1894.32	17.3802
1894.57	17.3798
1894.82	16.4412
1895.07	18.3219
1895.32	16.4446
1895.57	16.4467
1895.82	17.389
1896.07	17.3923
1896.32	17.3956
1896.57	19.2793
1896.82	19.2817
1897.07	16.4613
1897.32	15.5211
1897.56	18.3427
1897.81	17.4007
1898.06	19.2791
1898.31	19.2754
1898.56	16.4505
1898.81	16.4465
1899.06	13.6252
1899.31	15.503
1899.56	14.5612
1899.81	19.2568
1900.06	15.4993
1900.31	17.3791
1900.56	17.3813
1900.81	14.5657
1901.05	19.2682
1901.31	15.5118
1901.55	16.4552
1901.8	19.2816
1902.05	16.4621
1902.3	18.3425
1902.55	18.3411
1902.8	17.3984
1903.05	16.4562
1903.3	18.3356
1903.55	16.4541
1903.8	16.4535
1904.04	18.3334
1904.29	17.3926
1904.54	15.5114
1904.79	14.5711
1905.04	17.391
1905.29	17.3895
1905.54	15.5028
1905.79	18.3177
1906.04	16.437
1906.29	17.3742
1906.54	17.3727
1906.78	17.3717
1907.03	15.4948
1907.28	14.5563
1907.53	13.6202
1907.78	17.38
1908.03	16.4414
1908.28	17.3822
1908.53	18.3242
1908.77	14.568
1909.02	19.2717
1909.27	17.3964
1909.52	16.4613
1909.77	17.408
1910.02	18.3556
1910.27	19.3023
1910.52	15.5392
1910.77	14.5994
1911.01	17.4265
1911.26	15.5429
1911.51	14.6006
1911.76	14.5992
1912.01	19.3079
1912.26	13.6567
1912.51	14.5987
1912.76	15.5406
1913	18.3673
1913.25	15.545
1913.5	18.3775
1913.75	14.6123
1914	16.5009
1914.25	15.5616
1914.5	17.4516
1914.74	16.5114
1914.99	17.457
1915.24	16.5139
1915.49	14.6258
1915.74	16.5115
1915.99	17.4546
1916.24	14.6209
1916.49	16.5042
1916.73	19.3305
1916.98	14.6138
1917.23	14.6126
1917.48	15.5547
1917.73	16.4987
1917.98	17.4447
1918.23	16.5059
1918.47	18.3976
1918.72	17.4597
1918.97	15.5773
1919.22	12.7511
1919.47	15.5892
1919.71	16.5363
1919.96	15.5912
1920.21	16.5334
1920.46	16.537
1920.71	14.6512
1920.96	17.4914
1921.21	14.6565
1921.45	12.7674
1921.7	13.7139
1921.95	12.7678
1922.2	11.8207
1922.45	16.5462
1922.69	16.5442
1922.94	17.4882
1923.19	19.3773
1923.44	16.54
1923.69	11.8124
1923.94	13.6999
1924.18	16.533
1924.43	12.754
1924.68	15.5894
1924.93	16.537
1925.18	15.5959
1925.42	14.6555
1925.67	15.6052
1925.92	14.6633
1926.17	17.5065
1926.42	13.7255
1926.66	23.1954
1926.91	13.7299
1927.16	15.6259
1927.41	15.6279
1927.66	13.7352
1927.9	15.6313
1928.15	12.7903
1928.4	17.5301
1928.65	12.794
1928.9	12.7964
1929.15	15.6441
1929.39	14.7006
1929.64	12.8071
1929.89	13.7599
1930.14	14.7125
1930.39	15.6653
1930.63	16.6153
1930.88	14.7165
1931.13	13.7656
1931.38	14.713
1931.62	12.8129
1931.87	14.709
1932.12	14.707
1932.37	14.7051
1932.61	16.6018
1932.86	13.7545
1933.11	10.9104
1933.36	16.6091
1933.61	15.6687
1933.85	13.7797
1934.1	11.8899
1934.35	13.8036
1934.6	16.6712
1934.84	14.7744
1935.09	16.6881
1935.34	15.7351
1935.59	20.4908
1935.83	16.6784
1936.08	13.8181
1936.33	11.9103
1936.58	14.7655
1936.83	16.6669
1937.07	10.9503
1937.32	13.8042
1937.57	13.8016
1937.82	14.7513
1938.06	16.6567
1938.31	16.662
1938.56	12.8549
1938.81	14.7619
1939.05	11.9066
1939.3	14.7663
1939.55	13.8155
1939.8	13.8169
1940.04	15.7268
1940.29	15.7328
1940.54	10.0179
1940.79	14.7919
1941.03	16.6995
1941.28	13.8339
1941.53	13.8277
1941.78	13.8235
1942.02	11.9246
1942.27	15.7533
1942.52	15.7552
1942.76	13.844
1943.01	14.7921
1943.26	16.6939
1943.51	12.8779
1943.75	13.8397
1944	12.8876
1944.25	12.8905
1944.5	13.8487
1944.74	13.8522
1944.99	14.8113
1945.24	14.8148
1945.49	12.906
1945.73	11.9521
1945.98	14.8228
1946.23	14.8242
1946.47	13.8683
1946.72	12.9113
1946.97	14.8227
1947.21	13.8654
1947.46	13.8653
1947.71	14.8214
1947.96	14.821
1948.2	13.8643
1948.45	13.8658
1948.7	11.9556
1948.94	12.9148
1949.19	12.9178
1949.44	13.8783
1949.69	12.9254
1949.93	14.8469
1950.18	13.8949
1950.43	11.0242
1950.67	13.9057
1950.92	13.9113
1951.17	12.9566
1951.41	12.0001
1951.66	12.0023
1951.91	11.0439
1952.15	13.9262
1952.4	12.9663
1952.65	13.9298
1952.9	13.9307
1953.14	12.0054
1953.39	14.8796
1953.64	15.8299
1953.88	13.9035
1954.13	12.9382
1954.38	11.9758
1954.62	13.8906
1954.87	13.8909
1955.12	13.8935
1955.36	13.8981
1955.61	15.8237
1955.86	12.9538
1956.1	13.9176
1956.35	13.9214
1956.6	14.8845
1956.84	12.9669
1957.09	13.9303
1957.34	13.9328
1957.58	14.8956
1957.83	14.8971
1958.08	12.9758
1958.32	12.9758
1958.57	15.8574
1958.82	12.0114
1959.06	14.893
1959.31	13.9311
1959.56	12.9684
1959.8	12.0059
1960.05	12.0041
1960.3	16.8028
1960.54	13.9198
1960.79	12.9576
1961.04	12.9559
1961.28	12.9554
1961.53	12.956
1961.78	14.8762
1962.02	13.917
1962.27	11.998
1962.51	15.8381
1962.76	12.959
1963.01	11.9996
1963.25	12.0001
1963.5	13.9213
1963.75	12.0026
1963.99	11.0431
1964.24	12.0029
1964.48	17.7637
1964.73	14.8831
1964.98	15.8431
1965.22	14.8838
1965.47	13.9255
1965.72	11.0467
1965.96	16.814
1966.21	12.9734
1966.46	13.9366
1966.7	13.9375
1966.95	10.0925
1967.19	13.938
1967.44	12.0165
1967.69	14.9009
1967.93	12.9788
1968.18	14.9009
1968.43	13.9379
1968.67	14.8961
1968.92	10.0882
1969.16	13.9268
1969.41	12.0022
1969.66	12.9594
1969.9	11.9972
1970.15	11.036
1970.39	12.9529
1970.64	10.0732
1970.89	13.9092
1971.13	12.9488
1971.38	15.8256
1971.62	14.8683
1971.87	15.8289
1972.12	15.8295
1972.36	13.9103
1972.61	12.9495
1972.85	11.988
1973.1	14.8618
1973.35	12.9421
1973.59	13.8992
1973.84	13.8983
1974.08	11.9811
1974.33	13.8984
1974.58	11.0235
1974.82	14.8593
1975.07	13.9027
1975.31	12.9459
1975.56	13.9066
1975.8	13.9079
1976.05	12.9495
1976.3	12.9499
1976.54	15.8276
1976.79	13.9085
1977.03	11.03
1977.28	13.9057
1977.53	15.8211
1977.77	11.0251
1978.02	14.8582
1978.26	15.8153
1978.51	13.8977
1978.75	13.898
1979	11.9815
1979.24	12.9401
1979.49	11.9822
1979.74	12.9407
1979.98	12.9389
1980.23	14.853
1980.47	15.809
1980.72	13.8918
1980.96	12.9317
1981.21	11.015
1981.45	12.9299
1981.7	12.9296
1981.95	13.8866
1982.19	13.8839
1982.44	15.7963
1982.68	14.8351
1982.93	13.8739
1983.17	12.9149
1983.42	11.9575
1983.66	12.9131
1983.91	13.8682
1984.16	12.9105
1984.4	12.9094
1984.65	13.8628
1984.89	13.8593
1985.14	13.8492
1985.38	12.8893
1985.63	12.8811
1985.87	13.8165
1986.12	14.7136
1986.36	11.9529
1986.61	14.673
1986.85	15.6439
1987.1	12.0618
1987.35	10.2566
1987.59	15.3256
1987.84	14.4768
1988.08	12.8355
1988.33	14.3419
1988.57	12.9143
1988.82	14.3898
1989.06	13.3666
1989.31	13.7363
1989.55	13.697
1989.8	13.5902
1990.04	12.614
1990.29	13.0003
1990.53	13.8037
1990.78	15.6618
1991.02	12.0674
1991.27	13.2785
1991.51	13.7988
1991.76	13.3616
1992	11.7293
1992.25	11.7186
1992.49	13.2594
1992.74	13.3098
1992.98	13.6544
1993.23	13.9224
1993.47	12.6639
1993.72	13.6787
1993.96	12.5078
1994.21	11.9453
1994.45	12.8867
1994.7	12.5559
1994.94	12.9213
1995.19	12.1796
1995.43	11.3715
1995.68	13.5112
1995.92	11.3586
1996.17	13.8768
1996.41	12.7946
1996.66	11.4136
1996.9	12.6866
1997.15	13.7965
1997.39	12.3751
1997.64	12.8221
1997.88	13.7326
1998.13	13.2761
1998.37	12.8188
1998.62	13.2946
1998.86	12.3614
1999.11	13.173
1999.35	14.0877
1999.6	11.8671
1999.84	13.4217
2000.08	12.7834
2000.33	12.3015
2000.57	11.7275
2000.82	12.4615
2001.06	12.5471
2001.31	12.0442
2001.55	12.6913
2001.8	13.1267
2002.04	12.6307
2002.29	14.5362
2002.53	12.7127
2002.78	11.2556
2003.02	13.8748
2003.26	13.4866
2003.51	11.3439
2003.76	11.8372
2004	14.1817
2004.24	13.2666
2004.49	12.4977
2004.73	13.8418
2004.98	13.3105
2005.22	13.4403
2005.47	13.7422
2005.71	13.2616
2005.96	12.9187
2006.2	13.0431
2006.44	12.9829
2006.69	13.1005
2006.93	13.1351
2007.18	12.0413
2007.42	11.6129
2007.67	12.2557
2007.91	13.2972
2008.15	11.8943
2008.4	12.2563
2008.64	14.3679
2008.89	13.9365
2009.13	12.3127
2009.38	12.3704
2009.62	11.7791
2009.86	12.474
2010.11	12.6767
2010.27	10.8316
2010.52	12.7149
2010.77	11.7728
2011.01	11.7725
2011.26	12.714
2011.51	10.8298
2011.75	16.4795
2012	11.7702
2012.25	11.7691
2012.5	13.6492
2012.74	13.6439
2012.99	11.7565
2013.24	14.5737
2013.48	15.5081
2013.73	12.6827
2013.98	12.6757
2014.23	11.7318
2014.47	12.669
2014.72	12.6698
2014.97	11.733
2015.21	10.7962
2015.46	16.431
2015.71	12.6732
2015.96	12.6788
2016.2	11.7473
2016.45	11.7486
2016.7	12.6877
2016.94	11.7459
2017.19	11.743
2017.44	12.6785
2017.69	12.6734
2017.93	10.7914
2018.18	11.7255
2018.43	9.84575
2018.67	11.7164
2018.92	11.7122
2019.17	10.7734
2019.41	14.5185
2019.66	13.5811
2019.91	12.6442
2020.15	11.707
2020.4	12.6431
2020.65	11.7075
2020.89	12.6448
2021.14	12.6448
2021.39	11.7076
2021.64	12.6429
2021.88	14.5138
2022.13	8.89384
2022.38	10.7635
2022.62	13.5675
2022.87	12.6292
2023.12	13.5617
2023.36	13.5587
2023.61	11.686
2023.86	10.749
2024.1	11.6797
2024.35	11.6756
2024.6	12.6054
2024.84	14.4683
2025.09	12.5977
2025.34	12.5943
2025.58	11.6571
2025.83	11.6591
2026.08	20.9949
2026.32	14.4729
2026.57	13.5499
2026.82	14.4969
2027.06	12.6323
2027.31	13.5652
2027.56	13.5559
2027.8	13.5406
2028.05	13.5113
2028.3	14.4841
2028.54	15.4653
2028.79	13.5683
2029.04	15.4494
2029.28	14.4885
2029.53	16.3396
2029.78	15.3905
2030.02	12.5901
2030.27	13.5142
2030.52	8.86061
2030.76	16.3304
2031.01	12.5961
2031.25	15.3954
2031.5	12.597
2031.75	13.5342
2031.99	11.6714
2032.24	11.6758
2032.49	13.5484
2032.73	13.5519
2032.98	12.62
2033.23	13.5591
2033.47	13.5597
2033.72	14.4874
2033.97	12.6084
2034.21	10.7301
2034.46	12.5945
2034.7	13.5329
2034.95	11.6707
2035.2	12.6121
2035.44	10.7514
2035.69	13.5628
2035.93	12.6254
2036.18	14.489
2036.43	12.6207
2036.67	12.6233
2036.92	11.6881
2037.17	13.5575
2037.41	12.6212
2037.66	13.5544
2037.9	12.6178
2038.15	12.6158
2038.4	12.6138
2038.64	13.546
2038.89	14.4776
2039.13	10.7397
2039.38	11.6708
2039.63	12.6008
2039.87	11.6643
2040.12	11.6612
2040.36	12.5911
2040.61	10.7235
2040.86	11.654
2041.1	14.4501
2041.35	12.5847
2041.6	13.5149
2041.84	13.5134
2042.09	11.6468
2042.33	12.578
2042.58	14.4413
2042.82	10.7157
2043.07	9.78679
2043.32	11.6559
2043.56	12.5936
2043.81	13.5281
2044.05	10.7285
2044.3	14.4564
2044.55	11.6528
2044.79	12.573
2045.04	10.7271
2045.28	10.7282
2045.53	11.6804
2045.77	12.6353
2046.02	12.6205
2046.27	11.6747
2046.51	15.3995
2046.76	12.6013
2047	11.6638
2047.25	12.5861
2047.49	12.5843
2047.74	11.6529
2047.99	13.5181
2048.23	13.5191
2048.48	11.6563
2048.72	12.5915
2048.97	12.5944
2049.21	13.5314
2049.46	11.6695
2049.71	13.5402
2049.95	11.676
2050.2	12.6119
2050.44	13.5467
2050.69	15.4141
2050.93	12.6088
2051.18	11.6715
2051.42	12.6053
2051.67	12.6058
2051.92	13.5416
2052.16	13.5424
2052.41	9.8078
2052.65	13.5464
2052.9	13.5493
2053.14	13.5532
2053.39	11.6891
2053.63	12.6267
2053.88	10.7574
2054.12	9.8223
2054.37	9.82207
2054.61	11.6924
2054.86	13.5619
2055.11	14.494
2055.35	12.6225
2055.6	10.7519
2055.84	13.5555
2056.09	9.81502
2056.33	9.81446
2056.58	11.6839
2056.82	11.6846
2057.07	12.6204
2057.31	11.6872
2057.56	13.5592
2057.8	12.6262
2058.05	12.6295
2058.29	13.5681
2058.54	15.4429
2058.78	12.637
2059.03	14.5101
2059.28	11.7024
2059.52	13.5749
2059.77	11.701
2060.01	12.6351
2060.26	8.8907
2060.5	14.5078
2060.75	12.6377
2060.99	12.6389
2061.24	14.512
2061.48	12.6398
2061.73	13.5767
2061.97	11.705
2062.22	10.7698
2062.46	11.7082
2062.71	11.7104
2062.95	12.6493
2063.2	14.5253
2063.44	12.6525
2063.69	12.6537
2063.93	12.6548
2064.18	11.7189
2064.42	11.7207
2064.67	10.7858
2064.91	12.6656
2065.16	11.7307
2065.4	14.5496
2065.65	13.6137
2065.89	12.6766
2066.14	13.6161
2066.38	12.6787
2066.63	12.6801
2066.87	11.7419
2067.11	9.86465
2067.36	13.625
2067.61	12.6871
2067.85	19.2677
2068.1	13.6292
2068.34	11.7514
2068.58	12.6913
2068.83	13.6293
2069.07	12.6855
2069.32	13.619
2069.56	12.6782
2069.81	10.8012
2070.05	13.6253
2070.3	11.752
2070.54	14.5803
2070.79	12.6971
2071.03	13.6334
2071.28	12.7104
2071.52	11.7721
2071.77	11.771
2072.01	13.6535
2072.25	14.5948
2072.5	12.7104
2072.74	12.7106
2072.99	14.5927
2073.23	14.5936
2073.48	13.6526
2073.72	14.5951
2073.97	9.88825
2074.21	10.8322
2074.45	12.7196
2074.7	13.6668
2074.94	10.8443
2075.19	11.7936
2075.43	12.7415
2075.68	12.7438
2075.92	11.8001
2076.17	12.7446
2076.41	10.8552
2076.66	14.6279
2076.9	14.6242
2077.14	10.8455
2077.39	12.7306
2077.63	15.5617
2077.88	14.6217
2078.12	13.6796
2078.37	11.794
2078.61	14.6268
2078.85	12.743
2079.1	14.6375
2079.34	8.97319
2079.59	12.7537
2079.83	11.8109
2080.08	10.8674
2080.32	14.6474
2080.56	14.646
2080.81	13.7002
2081.05	13.6999
2081.3	14.6445
2081.54	14.6442
2081.78	12.7557
2082.03	11.8118
2082.27	12.7575
2082.52	12.7577
2082.76	16.5375
2083.01	13.702
2083.25	11.8117
2083.49	14.6466
2083.74	14.6468
2083.98	13.7018
2084.23	13.7021
2084.47	10.8675
2084.71	11.8126
2084.96	13.7027
2085.2	12.7578
2085.45	11.8139
2085.69	10.8718
2085.93	11.821
2086.18	14.6613
2086.42	13.7169
2086.67	12.7726
2086.91	12.7748
2087.15	13.7223
2087.4	13.7224
2087.64	12.7763
2087.89	11.8303
2088.13	11.8309
2088.37	12.7782
2088.62	12.7788
2088.86	12.7811
2089.11	14.6771
2089.35	12.7869
2089.59	12.7879
2089.84	10.894
2090.08	12.7897
2090.32	12.791
2090.57	9.0021
2090.81	13.7417
2091.06	12.7954
2091.3	14.6951
2091.54	9.95778
2091.79	10.9098
2092.03	14.7093
2092.27	13.7653
2092.52	12.8194
2092.76	14.7224
2093	13.7762
2093.25	11.879
2093.49	13.7826
2093.73	14.7359
2093.98	12.8352
2094.22	11.8844
2094.47	13.7852
2094.71	12.8335
2094.95	12.8313
2095.2	12.829
2095.44	10.9269
2095.68	11.8758
2095.93	13.775
2096.17	16.6244
2096.42	12.8239
2096.66	14.7217
2096.9	14.7188
2097.15	13.7666
2097.39	11.8668
2097.63	12.8155
2097.88	11.8656
2098.12	14.7114
2098.36	11.8641
2098.61	13.762
2098.85	14.7102
2099.09	13.7606
2099.34	12.8115
2099.58	11.8626
2099.82	12.8121
2100.07	12.8129
2100.31	9.96681
2100.55	12.8177
2100.8	12.8202
2101.04	13.7715
2101.28	11.8728
2101.53	9.97311
2101.77	9.97295
2102.01	11.8726
2102.26	11.8718
2102.5	14.7186
2102.74	14.7157
2102.99	11.8663
2103.23	14.7138
2103.47	12.8146
2103.72	11.8657
2103.96	13.7656
2104.2	13.7678
2104.44	12.8202
2104.69	12.8221
2104.93	11.8746
2105.17	14.7279
2105.42	11.8796
2105.66	13.7819
2105.9	13.7833
2106.15	9.98155
2106.39	12.8341
2106.63	12.8354
2106.88	13.7865
2107.12	10.9328
2107.36	15.6831
2107.6	11.878
2107.85	12.8247
2108.09	12.8212
2108.33	14.7178
2108.58	12.8178
2108.82	11.869
2109.06	14.7218
2109.31	14.7244
2109.55	11.8747
2109.79	11.8748
2110.03	13.7747
2110.28	14.7247
2110.52	11.8749
2110.76	13.7747
2111.01	12.8238
2111.25	11.8722
2111.49	12.8208
2111.73	13.7697
2111.98	12.8201
2112.22	11.8718
2112.46	12.8229
2112.71	9.97465
2112.95	13.7782
2113.19	10.9297
2113.43	12.8317
2113.68	14.7317
2113.92	13.7801
2114.16	12.8296
2114.4	13.7807
2114.65	12.8306
2114.89	15.6809
2115.13	13.779
2115.38	14.7282
2115.62	12.8267
2115.86	13.7739
2116.1	10.9221
2116.35	12.8205
2116.59	12.8199
2116.83	14.7186
2117.07	12.8201
2117.32	13.7681
2117.56	10.9178
2117.8	11.8652
2118.04	11.862
2118.29	12.8071
2118.53	13.7528
2118.77	13.7498
2119.01	12.7989
2119.26	14.692
2119.5	10.8985
2119.74	10.897
2119.99	13.7391
2120.23	12.7921
2120.47	9.95119
2120.71	12.7956
2120.95	11.8506
2121.2	11.8536
2121.44	14.7018
2121.68	12.8075
2121.92	13.7588
2122.17	13.761
2122.41	13.7629
2122.65	14.7138
2122.89	12.8163
2123.14	13.7661
2123.38	12.8157
2123.62	12.8142
2123.86	13.761
2124.1	13.7573
2124.35	15.6485
2124.59	14.693
2124.83	16.5817
2125.07	11.84
2125.32	13.7302
2125.56	13.7262
2125.8	14.669
2126.04	14.6659
2126.28	13.7168
2126.53	11.8223
2126.77	14.6567
2127.01	14.6555
2127.25	11.8184
2127.5	12.763
2127.74	11.8164
2127.98	14.6515
2128.22	17.4874
2128.46	13.7064
2128.71	14.6511
2128.95	15.5951
2129.19	13.7039
2129.43	11.8132
2129.67	10.8676
2129.92	16.5367
2130.16	11.811
2130.4	14.6442
2130.64	13.6977
2130.88	13.6957
2131.13	12.7492
2131.37	12.7474
2131.61	14.6346
2131.85	15.5769
2132.09	12.7421
2132.34	12.7399
2132.58	15.5696
2132.82	10.8515
2133.06	13.6829
2133.3	12.7398
2133.54	15.571
2133.79	13.6843
2134.03	13.6847
2134.27	11.7969
2134.51	13.684
2134.75	11.7962
2135	12.7393
2135.24	14.6251
2135.48	15.5658
2135.72	14.6178
2135.96	12.7279
2136.2	14.6115
2136.45	13.6697
2136.69	12.7274
2136.93	13.6705
2137.17	13.6722
2137.41	13.6753
2137.65	14.6168
2137.9	14.6126
2138.14	14.6096
2138.38	10.8418
2138.62	11.7884
2138.86	13.6777
2139.1	14.6126
2139.35	14.6077
2139.59	13.6629
2139.83	12.7187
2140.07	13.6592
2140.31	11.7739
2140.55	13.6567
2140.8	16.4809
2141.04	14.5977
2141.28	12.7113
2141.52	16.474
2141.76	14.5901
2142	13.6489
2142.24	13.6519
2142.49	13.654
2142.73	12.7237
2142.97	17.427
2143.21	15.5013
2143.45	12.6859
2143.69	15.5075
2143.93	16.4536
2144.18	13.6376
2144.42	13.6403
2144.66	12.6914
2144.9	14.5738
2145.14	14.5744
2145.38	14.5735
2145.62	16.4526
2145.87	12.6909
2146.11	14.5699
2146.35	10.809
2146.59	14.5672
2146.83	16.4445
2147.07	13.6237
2147.31	15.5009
2147.55	14.5599
2147.79	15.4975
2148.04	16.4348
2148.28	12.6766
2148.52	17.3689
2148.76	14.5493
2149	12.6688
2149.24	17.3538
2149.48	13.5985
2149.72	13.5948
2149.97	13.5921
2150.21	15.4654
2150.45	16.4025
2150.69	16.4041
2150.93	14.5317
2151.17	14.5334
2151.41	17.3489
2151.65	15.4746
2151.89	14.5385
2152.14	16.412
2152.38	15.472
2152.62	16.4067
2152.86	15.4667
2153.1	12.6535
2153.34	14.5267
2153.58	13.5871
2153.82	20.1413
2154.06	15.4518
2154.3	14.5092
2154.55	16.3747
2154.78	16.3674
2155.03	16.3622
2155.27	14.4879
2155.51	14.4842
2155.75	14.4815
2155.99	18.2169
2156.23	16.3478
2156.47	18.2157
2156.71	14.4793
2156.95	16.3489
2157.19	14.4826
2157.43	16.3544
2157.68	14.4876
2157.92	14.4882
2158.16	17.2923
2158.4	12.6181
2158.64	20.0937
2158.88	14.4843
2159.12	15.4162
2159.36	16.3472
2159.6	13.5414
2159.84	15.4054
2160.08	16.3354
2160.32	15.399
2160.56	18.1969
2160.8	17.2628
2161.04	18.1942
2161.29	17.2596
2161.53	19.1248
2161.77	16.3261
2162.01	15.3932
2162.25	15.393
2162.49	19.1228
2162.73	17.2549
2162.97	16.3204
2163.21	14.4538
2163.45	18.1818
2163.69	15.3827
2163.93	17.2434
2164.17	19.1026
2164.41	19.0996
2164.65	19.1008
2164.89	17.2389
2165.14	19.1028
2165.37	18.1713
2165.61	16.3078
2165.86	15.374
2166.1	15.3723
2166.34	14.4385
2166.58	16.2982
2166.82	17.227
2167.06	18.1539
2167.3	16.2869
2167.54	18.1392
2167.78	18.1311
2168.02	18.1286
2168.26	17.1987
2168.5	17.1998
2168.74	17.2022
2168.98	19.9961
2169.22	20.9322
2169.46	17.2171
2169.7	17.2239
2169.94	19.0901
2170.18	18.1604
2170.42	19.0902
2170.66	18.1553
2170.9	19.0847
2171.14	16.2848
2171.38	15.3434
2171.62	18.1266
2171.86	13.4763
2172.1	15.3324
2172.34	17.1887
2172.58	18.1173
2172.82	17.188
2173.06	18.117
2173.3	19.9767
2173.54	19.05
2173.78	19.0518
2174.02	19.0527
2174.26	15.3353
2174.5	18.1234
2174.74	17.1937
2174.98	19.9806
2175.22	19.0501
2175.46	18.1202
2175.7	17.1901
2175.94	19.9759
2176.18	17.186
2176.42	18.1139
2176.66	15.3272
2176.9	16.2566
2177.14	19.0438
2177.38	19.9724
2177.62	17.1862
2177.86	17.1843
2178.1	19.037
2178.34	16.248
2178.58	19.033
2178.82	18.1054
2179.06	20.8912
2179.3	17.1774
2179.54	20.8914
2179.78	14.3918
2180.02	19.0337
2180.26	18.1041
2180.5	20.8881
2180.74	17.1742
2180.98	17.1731
2181.22	15.3147
2181.46	19.0253
2181.7	19.0242
2181.94	18.0939
2182.18	17.1644
2182.42	19.0182
2182.66	18.0869
2182.9	19.01
2183.14	20.8587
2183.38	19.9274
2183.62	18.9976
2183.85	18.9949
2184.09	18.0676
2184.33	20.8481
2184.57	17.1435
2184.81	17.1448
2185.05	18.0731
2185.29	16.2215
2185.53	16.2244
2185.77	18.0819
2186.01	19.9402
2186.25	18.0906
2186.49	23.6642
2186.73	19.0299
2186.97	21.8212
2187.21	15.3246
2187.45	22.7557
2187.69	19.9671
2187.93	19.0351
2188.17	19.9598
2188.41	20.8836
2188.64	19.0227
2188.88	19.9451
2189.12	18.0837
2189.36	19.9332
2189.6	18.0766
2189.84	19.003
2190.08	19.0034
2190.32	19.9324
2190.56	17.1524
2190.8	19.934
2191.04	19.0081
2191.28	19.0098
2191.52	19.939
2191.76	19.0133
2192	19.9425
2192.23	15.3062
2192.47	19.0202
2192.71	18.0955
2192.95	19.9549
2193.19	19.9596
2193.43	18.111
2193.67	19.9783
2193.91	18.1257
2194.15	18.1289
2194.39	19.0573
2194.63	19.0552
2194.86	19.0533
2195.1	19.0503
2195.34	19.9752
2195.58	23.6847
2195.82	17.177
2196.06	19.0279
2196.3	19.0233
2196.54	19.9475
2196.78	26.4377
2197.02	19.9413
2197.26	19.0142
2197.49	18.0872
2197.73	19.017
2197.97	20.8775
2198.21	19.9548
2198.45	19.0326
2198.69	20.8968
2198.93	19.0449
2199.17	18.1221
2199.41	19.9875
2199.64	19.0673
2199.88	20.0083
2200.12	20.0178
2200.36	23.7519
2200.6	23.759
2200.84	20.969
2201.08	20.028
2201.32	22.7987
2201.55	21.8202
2201.79	19.0082
2202.03	19.0225
2202.27	19.0558
2202.51	24.6511
2202.75	22.7844
2202.99	19.9903
2203.23	19.0813
2203.47	20.072
2203.7	20.0483
2203.94	20.9797
2204.18	19.1173
2204.42	18.1721
2204.66	20.018
2204.9	20.9325
2205.14	19.0616
2205.38	21.848
2205.61	19.0596
2205.85	24.6439
2206.09	22.7841
2206.33	20.9169
2206.57	18.1293
2206.81	17.2022
2207.05	19.9956
2207.28	19.9999
2207.52	21.8652
2207.76	20.9394
2208	20.013
2208.24	20.0167
2208.48	17.2262
2208.71	19.0906
2208.95	18.1605
2209.19	19.092
2209.43	20.0228
2209.67	18.1611
2209.91	20.0264
2210.15	18.1663
2210.38	19.1011
2210.62	18.1723
2210.86	23.7676
2211.1	18.1784
2211.34	19.115
2211.57	18.1865
2211.81	20.0549
2212.05	21.9221
2212.29	19.1223
2212.53	18.1877
2212.77	20.0513
2213	20.9805
2213.24	20.977
2213.48	20.9784
2213.72	19.1177
2213.96	16.327
2214.2	19.1332
2214.43	19.1354
2214.67	21.0042
2214.91	21.0056
2215.15	19.1394
2215.39	20.0737
2215.63	20.0738
2215.86	19.14
2216.1	18.2059
2216.34	20.0723
2216.58	18.2045
2216.82	20.0718
2217.05	20.0727
2217.29	21.0073
2217.53	21.0073
2217.77	21.0072
2218.01	19.1409
2218.24	19.1429
2218.48	20.0797
2218.72	22.8858
2218.96	19.153
2219.2	20.0896
2219.44	21.0269
2219.67	18.2251
2219.91	21.0285
2220.15	21.9623
2220.39	16.3544
2220.63	21.0249
2220.86	18.2172
2221.1	18.2124
2221.34	22.8773
2221.58	20.0723
2221.81	19.1364
2222.05	21.9364
2222.29	19.1376
2222.53	22.8753
2222.77	17.2758
2223	21.0149
2223.24	22.8886
2223.48	18.2229
2223.72	18.2287
2223.95	21.0393
2224.19	22.9153
2224.43	21.985
2224.67	22.9256
2224.91	21.9956
2225.14	20.1295
2225.38	22.0071
2225.62	18.2652
2225.86	18.2693
2226.1	22.0203
2226.33	21.088
2226.57	22.0296
2226.81	18.283
2227.05	20.1607
2227.28	19.2244
2227.52	20.1617
2227.76	22.0356
2228	20.1589
2228.23	18.2825
2228.47	19.2191
2228.71	20.1557
2228.95	20.1558
2229.18	20.1595
2229.42	19.2271
2229.66	19.2318
2229.9	22.9886
2230.13	18.3007
2230.37	21.1207
2230.61	21.1254
2230.85	20.1914
2231.08	22.0752
2231.32	22.0796
2231.56	18.3252
2231.8	18.3289
2232.03	21.1531
2232.27	21.1572
2232.51	18.3398
2232.75	21.1653
2232.98	22.1102
2233.22	20.2325
2233.46	21.1766
2233.7	21.1792
2233.93	21.178
2234.17	20.2352
2234.41	21.1739
2234.65	16.4657
2234.88	21.1626
2235.12	23.038
2235.36	19.2774
2235.59	18.3379
2235.83	15.5177
2236.07	22.1024
2236.31	21.1628
2236.54	20.2235
2236.78	20.2285
2237.02	21.174
2237.25	18.3581
2237.49	18.366
2237.73	23.0842
2237.97	22.1482
2238.2	19.3261
2238.44	18.3891
2238.68	18.3959
2238.92	20.284
2239.15	20.2823
2239.39	19.3364
2239.63	24.9888
2239.86	20.2693
2240.1	21.2097
2240.34	16.5039
2240.57	20.2838
2240.81	19.3418
2241.05	19.3432
2241.28	15.5702
2241.52	24.0648
2241.76	23.1233
2242	17.4625
2242.23	20.2969
2242.47	19.3533
2242.71	19.3527
2242.94	19.3502
2243.18	19.3474
2243.42	18.4023
2243.66	21.233
2243.89	21.2338
2244.13	21.2373
2244.37	18.4113
2244.6	20.3081
2244.84	20.3157
2245.08	21.2658
2245.31	17.4887
2245.55	19.3837
2245.79	20.3335
2246.02	20.3372
2246.26	17.5012
2246.5	21.2888
2246.73	19.3995
2246.97	20.348
2247.21	17.5096
2247.44	20.3489
2247.68	19.4015
2247.92	19.4004
2248.15	15.6141
2248.39	18.4521
2248.63	17.505
2248.86	18.4506
2249.1	18.454
2249.34	19.4028
2249.57	23.1886
2249.81	20.3467
2250.05	20.3428
2250.28	21.2847
2250.52	18.4424
2250.76	22.2215
2250.99	16.5457
2251.23	18.4357
2251.47	18.4366
2251.7	19.3844
2251.94	19.3875
2252.18	18.4457
2252.41	20.3443
2252.65	19.4089
2252.89	17.5221
2253.12	18.4749
2253.36	19.427
2253.59	22.2743
2253.83	17.5386
2254.07	19.4374
2254.3	20.3861
2254.54	19.4361
2254.78	18.4891
2255.01	17.5411
2255.25	19.4383
2255.49	19.4393
2255.72	16.5975
2255.96	19.4466
2256.2	17.5526
2256.43	19.4535
2256.67	19.4569
2256.91	19.4603
2257.14	18.514
2257.38	25.163
2257.61	16.6181
2257.85	18.5183
2258.09	18.5196
2258.32	17.5717
2258.56	16.6244
2258.79	17.5772
2259.03	18.5292
2259.27	16.6303
2259.5	19.4836
2259.74	17.5848
2259.98	15.6854
2260.21	15.687
2260.45	19.4931
2260.68	19.4996
2260.92	17.601
2261.16	20.4562
2261.39	18.5546
2261.63	18.5563
2261.86	16.6546
2262.1	21.4164
2262.34	20.469
2262.57	19.5215
2262.81	20.4794
2263.04	16.6746
2263.28	16.6806
2263.52	17.6409
2263.75	19.5557
2263.99	17.6541
2264.23	15.7503
2264.46	17.6638
2264.7	16.7126
2264.93	15.7605
2265.17	20.5372
2265.4	18.6277
2265.64	16.7159
2265.88	15.7573
2266.11	18.6179
2266.35	17.6589
2266.58	15.7464
2266.82	13.8356
2267.06	15.7417
2267.29	19.5548
2267.53	18.5969
2267.76	18.5939
2268	15.7325
2268.24	16.6866
2268.47	16.6891
2268.71	16.6928
2268.94	15.7432
2269.18	17.6567
2269.41	19.5716
2269.65	18.6235
2269.89	14.8081
2270.12	20.5444
2270.36	14.8131
2270.59	18.64
2270.83	19.5996
2271.06	17.6899
2271.3	18.6489
2271.53	19.6091
2271.77	16.7413
2272.01	15.7851
2272.24	15.786
2272.48	17.7005
2272.71	20.5722
2272.95	19.6166
2273.18	17.7038
2273.42	17.705
2273.66	16.7489
2273.89	17.7069
2274.13	17.708
2274.36	18.6664
2274.6	14.8385
2274.83	16.7543
2275.07	20.5853
2275.3	13.8828
2275.54	17.7153
2275.78	13.8884
2276.01	17.7242
2276.25	16.77
2276.48	19.649
2276.72	18.6949
2276.95	14.8651
2277.19	17.7491
2277.42	19.6758
2277.66	17.764
2277.89	16.8064
2278.13	17.7682
2278.36	17.7686
2278.6	15.8472
2278.84	18.7273
2279.07	16.8036
2279.31	15.8364
2279.54	13.9128
2279.78	16.7868
2280.01	13.9059
2280.25	17.7387
2280.48	14.8601
2280.72	17.7346
2280.95	17.7324
2281.19	17.7309
2281.42	15.8159
2281.66	19.6516
2281.89	18.6959
2282.13	17.7408
2282.36	16.7859
2282.6	16.7899
2282.83	18.7143
2283.07	19.682
2283.3	17.7703
2283.54	17.778
2283.77	13.9408
2284.01	18.7531
2284.24	17.7937
2284.48	17.798
2284.71	15.8776
2284.95	17.8036
2285.19	16.8419
2285.42	16.8383
2285.65	18.7557
2285.89	17.7934
2286.13	16.833
2286.36	18.7601
2286.59	16.844
2286.83	16.8508
2287.06	15.8903
2287.3	18.7818
2287.53	15.8967
2287.77	17.8224
2288	16.8566
2288.24	15.8911
2288.47	16.8512
2288.71	16.8461
2288.94	13.953
2289.18	15.8722
2289.41	16.8272
2289.65	26.4392
2289.88	19.7073
2290.12	16.8235
2290.35	19.7081
2290.59	16.8266
2290.82	16.8312
2291.06	14.9128
2291.29	14.9163
2291.53	12.994
2291.76	18.7725
2292	14.9247
2292.23	17.8178
2292.47	14.9319
2292.7	15.8981
2292.93	17.828
2293.17	14.9387
2293.41	14.9397
2293.64	15.9025
2293.87	14.937
2294.11	12.0442
2294.34	17.8221
2294.58	15.8932
2294.81	17.8173
2295.05	16.8518
2295.28	15.8868
2295.52	12.0341
2295.75	17.8062
2295.99	11.0643
2296.22	16.8361
2296.45	12.989
2296.69	15.8779
2296.92	17.8059
2297.16	16.8474
2297.39	13.9633
2297.63	13.9682
2297.86	15.8985
2298.09	19.7557
2298.33	19.7598
2298.56	10.1236
2298.8	14.9477
2299.03	15.915
2299.27	15.9167
2299.5	13.9873
2299.74	14.9521
2299.97	10.1286
2300.21	13.9889
2300.44	14.9564
2300.67	17.8536
2300.91	14.9602
2301.14	12.0656
2301.38	15.9271
2301.61	16.8919
2301.85	15.9253
2302.08	13.9941
2302.31	16.89
2302.55	14.9594
2302.78	14.9587
2303.02	13.9935
2303.25	17.8542
2303.49	15.9257
2303.72	14.9632
2303.95	14.0001
2304.19	13.0362
2304.42	16.9013
2304.66	14.0067
2304.89	15.9406
2305.12	14.0092
2305.36	15.943
2305.59	14.0124
2305.83	14.0142
2306.06	12.0819
2306.29	13.0487
2306.53	15.9484
2306.76	15.9479
2307	14.9801
2307.23	13.0456
2307.46	14.9772
2307.7	12.0774
2307.93	14.9748
2308.17	16.9071
2308.4	14.9756
2308.64	14.978
2308.87	13.0477
2309.1	14.9845
2309.34	15.9565
2309.57	15.96
2309.8	14.9943
2310.04	15.9623
2310.27	14.0271
2310.51	14.0257
2310.74	15.9567
2310.97	14.9811
2311.21	13.0396
2311.44	14.0006
2311.68	13.9971
2311.91	14.9603
2312.14	14.9577
2312.38	15.9207
2312.61	13.9908
2312.84	14.9575
2313.08	13.9968
2313.31	15.9338
2313.55	14.0067
2313.78	14.9772
2314.01	15.9485
2314.25	15.9546
2314.48	14.9929
2314.71	15.9631
2314.95	10.1557
2315.18	14.0211
2315.41	15.9519
2315.65	12.0815
2315.88	14.007
2316.12	14.003
2316.35	16.8978
2316.58	12.0697
2316.82	18.8298
2317.05	12.0711
2317.28	16.9042
2317.52	14.009
2317.75	15.9359
2317.98	14.002
2318.22	14.0002
2318.45	14.9634
2318.69	17.8566
2318.92	16.889
2319.15	14.9572
2319.39	13.9913
2319.62	16.8862
2319.85	15.9218
2320.09	14.9568
2320.32	18.8185
2320.55	15.9259
2320.79	15.9287
2321.02	17.8629
2321.25	14.0038
2321.49	16.906
2321.72	17.8778
2321.95	16.916
2322.19	14.9844
2322.42	19.8173
2322.65	17.8848
2322.89	15.9526
2323.12	17.8874
2323.35	17.8888
2323.59	19.8234
2323.82	22.7235
2324.05	21.7557
2324.29	24.6506
2324.52	23.6766
2324.75	26.5663
2324.99	25.5943
2325.22	21.7268
2325.45	32.3425
2325.69	38.1274
2325.92	30.3989
2326.15	38.1111
2326.39	40.9969
2326.62	48.7034
2326.85	60.2631
2327.09	72.7871
2327.32	98.8006
2327.55	119.029
2327.79	168.192
2328.02	235.664
2328.25	328.205
2328.48	309.831
2328.72	248.106
2328.95	159.42
2329.18	102.578
2329.42	73.6796
2329.65	56.3508
2329.88	44.7889
2330.11	38.0434
2330.35	32.2618
2330.58	28.4087
2330.81	21.6692
2331.05	22.6358
2331.28	17.8227
2331.51	18.7907
2331.75	14.9323
2331.98	15.8925
2332.21	16.8533
2332.45	15.8881
2332.68	15.886
2332.91	14.9214
2333.14	13.9572
2333.38	16.8434
2333.61	14.9164
2333.84	12.0274
2334.07	16.834
2334.31	13.9461
2334.54	15.8681
2334.77	13.9442
2335.01	15.8667
2335.24	14.9057
2335.47	14.9068
2335.7	18.7533
2335.94	15.8665
2336.17	12.9809
2336.4	13.9419
2336.64	17.7873
2336.87	16.8251
2337.1	13.9402
2337.33	10.0938
2337.57	12.9769
2337.8	15.86
2338.03	14.8981
2338.26	12.0143
2338.5	16.8207
2338.73	15.86
2338.96	13.9376
2339.19	14.8984
2339.43	12.0139
2339.66	15.8565
2339.89	12.0105
2340.12	13.9298
2340.36	14.8872
2340.59	19.6841
2340.82	11.0387
2341.05	15.8322
2341.29	11.9906
2341.52	12.9475
2341.75	15.8222
2341.98	15.8198
2342.22	15.818
2342.45	15.8171
2342.68	14.8583
2342.91	15.8171
2343.15	13.8993
2343.38	12.9402
2343.61	11.9819
2343.84	11.9828
2344.08	14.8592
2344.31	14.8589
2344.54	16.7751
2344.77	13.898
2345	16.7708
2345.24	14.8503
2345.47	16.7634
2345.7	11.9716
2345.93	11.0131
2346.17	13.8853
2346.4	12.9271
2346.63	14.841
2346.86	13.8825
2347.1	12.9248
2347.33	15.7974
2347.56	12.926
2347.79	12.9276
2348.02	11.0134
2348.26	14.8441
2348.49	12.9276
2348.72	15.7979
2348.95	13.8772
2349.19	11.958
2349.42	13.8643
2349.65	13.856
2349.88	15.7558
2350.11	14.7817
2350.35	13.7988
2350.58	16.6786
2350.81	13.867
2351.04	11.9675
2351.27	14.8105
2351.51	13.8388
2351.74	14.7942
2351.97	10.0232
2352.2	11.9253
2352.43	14.774
2352.67	13.8109
2352.9	15.7195
2353.13	12.8605
2353.36	12.8581
2353.59	11.9058
2353.83	11.9054
2354.06	13.8136
2354.29	14.7701
2354.52	14.7697
2354.75	13.816
2354.99	13.8148
2355.22	12.8609
2355.45	11.9069
2355.68	12.8572
2355.91	13.8053
2356.15	16.6536
2356.38	13.7934
2356.61	13.7906
2356.84	11.8865
2357.07	14.7368
2357.3	14.7346
2357.54	14.7326
2357.77	12.8303
2358	13.7797
2358.23	17.5772
2358.46	12.8253
2358.69	12.8244
2358.93	13.7737
2359.16	16.6214
2359.39	11.8705
2359.62	13.7668
2359.85	12.8144
