#Acq. time (s)=	60
#Accumulations=	2
#Range (cm-¹)=	1200...2365
#Windows=	3
#Auto scanning=	Off
#Autofocus=	Off
#Macrospot=	Off
#AutoExposure=	Off
#Spike filter=	Multiple accum.
#Delay time (s)=	2
#Binning=	1
#Readout mode=	Signal
#DeNoise=	Off
#ICS correction=	On
#Dark correction=	Off
#Inst. Process=	Off
#Detector Gain=	Best Dynamic
#Detector ADC=	50 kHz EM
#Detector EM gain=	150
#Detector temperature (°C)=	-60.09
#Instrument=	LabRAM HR Evol
#Detector=	SIN-EM FIVIS
#Objective=	x100_VIS_LWD
#Grating=	1800 (450-850nm)
#ND Filter=	100%
#Laser=	532nm_Edge
#Hole=	30.0125
#Temperature=	40
#Range=	Visible
#StageXY=	75x50mm Scan+
#StageZ=	Z motor
#X (µm)=	0
#Y (µm)=	0
#Z (µm)=	63.6
#Full time(mm:ss)=	6:19
#Project=	21_08_11
#Sample=	BU20
#Site=	
#Title=	BU20-J-FF1-FI01-V_1800 (450-850nm)_532nm_Edge_100%_x100_VIS_LWD_H30um_60sX2
#Remark=	
#Date=	13.08.2021 15:05
#Acquired=	13.08.2021 15:05:04
1202.73	376.903
1203.01	384.263
1203.29	394.671
1203.56	397.828
1203.84	379.395
1204.12	373.077
1204.4	380.56
1204.68	377.222
1204.95	387.802
1205.23	382.27
1205.51	377.789
1205.79	386.194
1206.06	382.796
1206.34	385.83
1206.62	379.235
1206.9	387.683
1207.18	397.23
1207.45	384.301
1207.73	387.448
1208.01	380.929
1208.29	372.257
1208.56	379.646
1208.84	387.058
1209.12	374.202
1209.4	368.835
1209.67	369.848
1209.95	376.142
1210.23	397.347
1210.51	363.036
1210.79	386.393
1211.06	392.665
1211.34	360.528
1211.62	388.108
1211.9	392.246
1212.17	388.94
1212.45	382.433
1212.73	380.21
1213	370.566
1213.28	387.534
1213.56	386.445
1213.84	369.427
1214.12	377.954
1214.39	367.308
1214.67	391.785
1214.95	381.121
1215.22	383.229
1215.5	366.129
1215.78	371.335
1216.06	379.692
1216.34	377.406
1216.61	377.277
1216.89	373.981
1217.17	375.994
1217.44	359.972
1217.72	373.692
1218	379.975
1218.28	378.854
1218.55	379.887
1218.83	373.487
1219.11	373.454
1219.38	356.406
1219.66	395.62
1219.94	394.567
1220.22	373.336
1220.49	378.62
1220.77	364.766
1221.05	365.773
1221.32	375.225
1221.6	369.794
1221.88	380.225
1222.16	376.864
1222.43	380.902
1222.71	392.376
1222.99	371.039
1223.26	377.264
1223.54	375.002
1223.82	390.732
1224.1	389.604
1224.37	380.029
1224.65	367.337
1224.93	381.071
1225.2	396.97
1225.48	388.566
1225.76	395.973
1226.03	393.831
1226.31	408.559
1226.59	395.817
1226.86	406.23
1227.14	399.593
1227.42	399.281
1227.69	387.468
1227.97	390.322
1228.25	384.733
1228.53	394.044
1228.8	411.414
1229.08	398.658
1229.36	404.076
1229.63	416.337
1229.91	409.762
1230.19	425.538
1230.46	422.279
1230.74	424.78
1231.02	424.512
1231.29	440.299
1231.57	452.9
1231.84	425.537
1232.12	438.121
1232.4	466.47
1232.67	442.266
1232.95	442.239
1233.23	443.3
1233.5	451.739
1233.78	468.591
1234.06	449.735
1234.33	437.203
1234.61	437.249
1234.89	445.693
1235.16	425.772
1235.44	419.51
1235.72	410.061
1235.99	439.461
1236.27	403.657
1236.55	431.966
1236.82	427.632
1237.1	422.228
1237.38	430.477
1237.65	412.482
1237.93	412.327
1238.2	396.457
1238.48	412.107
1238.76	408.9
1239.03	399.416
1239.31	395.19
1239.59	379.449
1239.86	385.731
1240.14	393.074
1240.41	408.815
1240.69	387.874
1240.97	392.066
1241.24	395.134
1241.52	410.79
1241.8	406.578
1242.07	407.663
1242.35	396.154
1242.62	407.772
1242.9	398.35
1243.18	402.526
1243.45	413.034
1243.73	405.716
1244.01	381.577
1244.28	420.334
1244.56	407.694
1244.83	419.111
1245.11	411.664
1245.39	425.117
1245.66	405.126
1245.94	398.817
1246.21	383.095
1246.49	413.459
1246.77	410.293
1247.04	419.684
1247.32	423.855
1247.59	422.706
1247.87	411.056
1248.14	423.573
1248.42	455.998
1248.7	459.173
1248.97	440.35
1249.25	446.594
1249.52	437.18
1249.8	462.241
1250.08	433.892
1250.35	445.284
1250.63	432.652
1250.9	447.2
1251.18	440.855
1251.45	437.643
1251.73	458.449
1252.01	445.834
1252.28	444.701
1252.56	447.743
1252.83	458.116
1253.11	423.662
1253.38	441.441
1253.66	424.82
1253.93	417.598
1254.21	417.659
1254.49	439.602
1254.76	408.295
1255.04	431.283
1255.31	426.048
1255.59	414.564
1255.86	413.546
1256.14	417.775
1256.41	442.882
1256.69	425.122
1256.97	427.163
1257.24	413.54
1257.52	433.347
1257.79	417.65
1258.07	402.998
1258.34	454.057
1258.62	440.437
1258.89	442.561
1259.17	429.018
1259.45	417.729
1259.72	417.697
1260	402.991
1260.27	417.461
1260.55	414.21
1260.82	392.223
1261.1	433.897
1261.37	430.004
1261.65	438.821
1261.92	425.946
1262.2	432.669
1262.47	483.267
1262.75	450.351
1263.02	487.25
1263.3	497.051
1263.58	545.478
1263.85	620.461
1264.12	584.49
1264.4	622.929
1264.68	595.72
1264.95	565.444
1265.23	517.22
1265.5	461.821
1265.77	470.2
1266.05	440.991
1266.33	447.336
1266.6	428.614
1266.88	442.317
1267.15	424.662
1267.43	431.069
1267.7	410.295
1267.98	440.866
1268.25	423.157
1268.53	424.276
1268.8	401.289
1269.08	419.126
1269.35	409.617
1269.63	423.123
1269.9	440.808
1270.17	417.685
1270.45	421.781
1270.73	411.269
1271	418.557
1271.27	430.049
1271.55	431.171
1271.82	433.38
1272.1	422.007
1272.37	433.668
1272.65	436.92
1272.92	438.085
1273.2	414.09
1273.47	427.831
1273.75	438.411
1274.02	441.601
1274.3	403.838
1274.57	413.271
1274.85	414.346
1275.12	420.7
1275.4	426.019
1275.67	426.109
1275.95	425.148
1276.22	413.679
1276.49	427.398
1276.77	427.485
1277.04	430.741
1277.32	431.897
1277.59	443.552
1277.87	439.43
1278.14	435.336
1278.42	434.375
1278.69	434.453
1278.97	436.569
1279.24	432.333
1279.51	473.305
1279.79	435.406
1280.06	441.734
1280.34	462.803
1280.61	467.098
1280.89	500.92
1281.16	481.031
1281.44	506.299
1281.71	551.585
1281.98	579.045
1282.26	631.653
1282.53	753.554
1282.81	884.35
1283.08	1063.51
1283.36	1387.18
1283.63	1938.34
1283.9	2624.22
1284.18	3331.62
1284.45	3903.44
1284.73	3665.89
1285	2639.69
1285.28	1584.43
1285.55	1141.47
1285.82	802.525
1286.1	706.505
1286.37	608.569
1286.65	569.598
1286.92	532.688
1287.19	507.329
1287.47	509.354
1287.74	492.497
1288.02	469.358
1288.29	478.844
1288.56	449.434
1288.84	433.725
1289.11	425.379
1289.39	413.879
1289.66	409.755
1289.93	418.227
1290.21	412.908
1290.48	403.395
1290.76	412.865
1291.03	410.756
1291.3	419.175
1291.58	404.414
1291.85	404.439
1292.13	418.147
1292.4	400.19
1292.67	410.719
1292.95	417.108
1293.22	406.76
1293.49	402.702
1293.77	409.171
1294.04	393.333
1294.32	394.392
1294.59	420.745
1294.86	400.858
1295.14	415.831
1295.41	389.694
1295.68	407.905
1295.96	402.705
1296.23	391.092
1296.51	392.138
1296.78	405.814
1297.05	384.606
1297.33	392.974
1297.6	405.552
1297.87	413.961
1298.15	394.988
1298.42	397.037
1298.69	398.033
1298.97	396.921
1299.24	403.218
1299.52	388.479
1299.79	369.535
1300.06	375.892
1300.34	375.888
1300.61	391.708
1300.88	396.992
1301.16	399.15
1301.43	394.994
1301.7	404.548
1301.98	370.768
1302.25	385.559
1302.52	389.769
1302.8	403.465
1303.07	378.061
1303.34	367.464
1303.62	390.695
1303.89	388.589
1304.16	388.588
1304.44	389.615
1304.71	385.334
1304.98	398.978
1305.26	395.724
1305.53	391.41
1305.8	383.942
1306.08	400.765
1306.35	381.766
1306.62	397.609
1306.9	373.373
1307.17	371.266
1307.44	386.026
1307.72	371.278
1307.99	375.486
1308.26	381.817
1308.54	388.195
1308.81	387.196
1309.08	369.317
1309.35	395.747
1309.63	390.479
1309.9	412.616
1310.17	383.06
1310.45	375.684
1310.72	380.982
1310.99	394.721
1311.27	389.464
1311.54	386.356
1311.81	404.372
1312.09	381.183
1312.36	385.421
1312.63	372.694
1312.9	378.993
1313.18	369.476
1313.45	377.887
1313.72	379.986
1314	374.722
1314.27	366.309
1314.54	376.91
1314.81	362.174
1315.09	386.509
1315.36	388.673
1315.63	385.521
1315.91	383.386
1316.18	379.142
1316.45	394.971
1316.72	378.07
1317	393.942
1317.27	381.316
1317.54	378.178
1317.81	373.972
1318.09	388.774
1318.36	376.102
1318.63	394.057
1318.91	367.634
1319.18	379.241
1319.45	383.476
1319.72	384.548
1320	384.539
1320.27	374.992
1320.54	378.091
1320.81	386.441
1321.09	386.323
1321.36	373.573
1321.63	400.911
1321.9	359.697
1322.18	378.633
1322.45	388.073
1322.72	380.614
1322.99	377.456
1323.27	389.082
1323.54	382.769
1323.81	379.598
1324.08	392.256
1324.36	385.916
1324.63	378.565
1324.9	383.79
1325.17	376.266
1325.45	390.83
1325.72	376.857
1325.99	383.007
1326.26	365.048
1326.54	380.877
1326.81	383.231
1327.08	392.875
1327.35	361.402
1327.62	380.51
1327.9	389.099
1328.17	369.195
1328.44	373.512
1328.71	371.333
1328.99	367.157
1329.26	377.705
1329.53	388.232
1329.8	385.027
1330.07	376.528
1330.35	384.885
1330.62	368.968
1330.89	392.032
1331.16	370.786
1331.43	383.275
1331.71	367.38
1331.98	383.061
1332.25	383.99
1332.52	377.539
1332.8	370.055
1333.07	380.448
1333.34	389.797
1333.61	373.93
1333.88	381.183
1334.15	369.538
1334.43	386.248
1334.7	389.323
1334.97	382.953
1335.24	371.346
1335.51	362.893
1335.78	370.177
1336.06	363.835
1336.33	380.563
1336.6	380.526
1336.87	378.397
1337.14	376.268
1337.42	374.113
1337.69	379.238
1337.96	379.179
1338.23	377.03
1338.5	376.97
1338.78	367.527
1339.05	382.189
1339.32	365.459
1339.59	387.465
1339.86	370.716
1340.13	361.309
1340.41	370.737
1340.68	389.573
1340.95	369.655
1341.22	406.27
1341.49	386.322
1341.76	373.689
1342.03	376.738
1342.31	386.052
1342.58	379.697
1342.85	384.893
1343.12	376.507
1343.39	363.951
1343.66	366.045
1343.94	375.464
1344.21	372.31
1344.48	383.762
1344.75	371.141
1345.02	385.673
1345.29	365.708
1345.57	384.406
1345.84	369.625
1346.11	379.908
1346.38	369.363
1346.65	362.993
1346.92	366.015
1347.19	361.762
1347.46	370.048
1347.74	383.56
1348.01	374.151
1348.28	387.655
1348.55	367.792
1348.82	371.889
1349.09	365.569
1349.36	374.876
1349.64	375.851
1349.91	369.538
1350.18	355.929
1350.45	379.772
1350.72	381.776
1350.99	376.494
1351.26	392.035
1351.53	369.141
1351.8	384.762
1352.08	374.428
1352.35	373.491
1352.62	377.723
1352.89	382.101
1353.16	372.06
1353.43	379.283
1353.7	383.991
1353.97	362.715
1354.24	362.606
1354.52	391.749
1354.79	368.822
1355.06	395.674
1355.33	381.2
1355.6	390.725
1355.87	372.943
1356.14	388.485
1356.41	382.219
1356.68	380.11
1356.95	391.489
1357.22	375.858
1357.5	394.482
1357.77	366.388
1358.04	364.248
1358.31	371.449
1358.58	377.591
1358.85	396.201
1359.12	383.706
1359.39	400.232
1359.66	375.227
1359.93	390.669
1360.2	386.427
1360.48	368.773
1360.75	384.297
1361.02	384.293
1361.29	372.877
1361.56	373.884
1361.83	370.728
1362.1	391.404
1362.37	391.375
1362.64	397.596
1362.91	398.681
1363.18	409.107
1363.45	384.291
1363.72	382.248
1363.99	380.152
1364.26	393.586
1364.53	405.957
1364.81	393.448
1365.08	407.849
1365.35	408.79
1365.62	396.283
1365.89	402.4
1366.16	392.987
1366.43	404.235
1366.7	389.66
1366.97	379.285
1367.24	393.759
1367.51	412.416
1367.78	393.834
1368.05	404.196
1368.32	426.965
1368.59	418.725
1368.86	420.826
1369.13	468.375
1369.4	506.566
1369.67	560.263
1369.94	475.41
1370.21	422.618
1370.48	416.356
1370.75	397.666
1371.03	397.543
1371.3	381.914
1371.56	406.531
1371.83	396.07
1372.11	428.948
1372.38	396.9
1372.65	423.642
1372.92	409.159
1373.19	434.877
1373.46	430.716
1373.73	404.925
1374	421.382
1374.27	419.292
1374.54	421.307
1374.81	451.167
1375.08	440.909
1375.35	446.074
1375.62	441.971
1375.89	446.033
1376.16	443.865
1376.43	411.82
1376.7	437.377
1376.97	439.401
1377.24	456.985
1377.51	448.903
1377.78	462.495
1378.05	477.186
1378.32	462.905
1378.59	477.359
1378.86	487.622
1379.13	496.834
1379.4	512.21
1379.67	517.211
1379.94	503.446
1380.21	540.212
1380.48	521.427
1380.75	546.151
1381.02	539.927
1381.28	537.658
1381.56	526.088
1381.83	547.418
1382.1	537.979
1382.37	551.103
1382.63	515.036
1382.9	541.537
1383.17	528.102
1383.44	549.527
1383.71	583.356
1383.98	583.384
1384.25	614.239
1384.52	594.873
1384.79	626.933
1385.06	696.897
1385.33	732.003
1385.6	749.531
1385.87	830.838
1386.14	1000.42
1386.41	1174.07
1386.68	1619.7
1386.95	2419.38
1387.22	3825.07
1387.49	5166.1
1387.76	6710.74
1388.03	6613.63
1388.3	3805.82
1388.57	2012.39
1388.84	1340.8
1389.11	1038.27
1389.37	807.078
1389.64	710.147
1389.91	648.951
1390.18	622.562
1390.45	605.79
1390.72	560.6
1390.99	569.82
1391.26	531.798
1391.53	488.635
1391.8	521.286
1392.07	517.095
1392.34	471.973
1392.61	480.104
1392.88	441.16
1393.14	437.025
1393.41	450.292
1393.68	454.352
1393.95	462.511
1394.22	427.697
1394.49	445.097
1394.76	440.067
1395.03	430.915
1395.3	437.096
1395.57	436.072
1395.84	419.667
1396.11	423.718
1396.37	443.108
1396.64	428.719
1396.91	426.587
1397.18	422.44
1397.45	420.376
1397.72	405.048
1397.99	408.157
1398.26	404.105
1398.53	407.199
1398.8	415.432
1399.06	419.585
1399.33	419.628
1399.6	441.139
1399.87	424.793
1400.14	398.262
1400.41	386.046
1400.68	403.467
1400.95	405.536
1401.22	417.847
1401.49	413.829
1401.75	401.725
1402.02	407.091
1402.29	399.094
1402.56	415.663
1402.83	396.253
1403.1	392.177
1403.37	408.56
1403.64	399.149
1403.9	414.488
1404.17	389.869
1404.44	393.933
1404.71	415.414
1404.98	402.008
1405.25	416.292
1405.52	415.198
1405.79	413.097
1406.05	394.609
1406.32	431.508
1406.59	445.886
1406.86	432.598
1407.13	469.536
1407.4	484.945
1407.67	472.671
1407.93	527.044
1408.2	592.71
1408.47	670.704
1408.74	764.096
1409.01	824.679
1409.28	806.271
1409.55	715.012
1409.81	654.407
1410.08	548.628
1410.35	503.354
1410.62	441.729
1410.89	454.967
1411.16	411.868
1411.43	410.808
1411.69	405.717
1411.96	404.781
1412.23	399.815
1412.5	394.101
1412.77	403.744
1413.03	377.999
1413.3	383.565
1413.57	388.599
1413.84	389.843
1414.11	378.82
1414.38	379.85
1414.64	365.489
1414.91	385.001
1415.18	380.899
1415.45	369.634
1415.72	384.043
1415.99	377.921
1416.25	374.878
1416.52	370.815
1416.79	369.833
1417.06	371.935
1417.33	369.911
1417.6	381.226
1417.86	369.93
1418.13	377.157
1418.4	361.738
1418.67	377.181
1418.93	372.021
1419.2	368.88
1419.47	377.022
1419.74	368.739
1420.01	387.156
1420.28	366.538
1420.54	362.359
1420.81	373.595
1421.08	363.333
1421.35	375.704
1421.62	364.568
1421.88	396.496
1422.15	365.858
1422.42	365.058
1422.69	360.321
1422.95	377.917
1423.22	381.142
1423.49	365.216
1423.76	359.755
1424.03	357.412
1424.29	374.118
1424.56	374.056
1424.83	357.125
1425.1	381.362
1425.36	385.747
1425.63	373.41
1425.9	378.506
1426.17	360.975
1426.44	377.289
1426.7	363.857
1426.97	376.038
1427.24	375.874
1427.51	360.441
1427.77	367.572
1428.04	349.14
1428.31	358.373
1428.58	370.69
1428.85	370.729
1429.11	369.757
1429.38	356.51
1429.65	364.798
1429.91	360.793
1430.18	367.026
1430.45	358.967
1430.72	360.148
1430.99	353.052
1431.25	368.476
1431.52	370.494
1431.79	358.095
1432.05	345.715
1432.32	347.703
1432.59	362.954
1432.86	356.664
1433.13	360.614
1433.39	351.284
1433.66	368.64
1433.93	350.265
1434.19	355.552
1434.46	343.275
1434.73	365.829
1435	347.382
1435.26	362.742
1435.53	361.699
1435.8	344.259
1436.07	344.233
1436.33	360.593
1436.6	349.294
1436.87	333.912
1437.13	359.5
1437.4	356.396
1437.67	346.159
1437.94	359.516
1438.2	342.147
1438.47	347.291
1438.74	339.112
1439.01	359.644
1439.27	365.865
1439.54	344.434
1439.81	350.654
1440.07	356.839
1440.34	356.854
1440.61	363.022
1440.88	355.839
1441.14	342.466
1441.41	352.679
1441.68	350.661
1441.94	343.518
1442.21	352.796
1442.48	346.647
1442.74	358.902
1443.01	343.469
1443.28	345.481
1443.55	347.511
1443.81	343.417
1444.08	345.539
1444.35	341.526
1444.61	362.153
1444.88	349.867
1445.15	351.89
1445.41	346.731
1445.68	357.987
1445.95	339.499
1446.21	347.68
1446.48	352.783
1446.75	358.906
1447.01	336.309
1447.28	342.423
1447.55	343.431
1447.81	334.241
1448.08	350.726
1448.35	348.719
1448.61	343.599
1448.88	355.889
1449.15	349.699
1449.41	337.344
1449.68	358.816
1449.95	344.428
1450.21	362.852
1450.48	339.252
1450.75	343.326
1451.01	340.221
1451.28	345.312
1451.55	347.333
1451.81	344.24
1452.08	348.338
1452.35	351.423
1452.61	354.532
1452.88	341.252
1453.15	336.146
1453.41	356.627
1453.68	344.307
1453.95	344.303
1454.21	345.331
1454.48	340.206
1454.75	335.063
1455.01	341.196
1455.28	357.647
1455.54	341.298
1455.81	354.636
1456.08	335.149
1456.34	347.399
1456.61	346.311
1456.88	348.329
1457.14	342.161
1457.41	347.263
1457.68	335.996
1457.94	332.927
1458.21	347.288
1458.47	344.236
1458.74	347.322
1459	359.634
1459.27	351.432
1459.54	344.241
1459.8	340.122
1460.07	347.268
1460.34	334.946
1460.6	342.074
1460.87	333.839
1461.14	339.941
1461.4	330.673
1461.67	343.925
1461.93	348.976
1462.2	340.72
1462.46	341.668
1462.73	335.453
1463	341.508
1463.26	339.408
1463.53	337.415
1463.8	334.525
1464.06	323.391
1464.33	345.004
1464.59	340.072
1464.86	347.431
1465.12	335.849
1465.39	344.863
1465.66	331.736
1465.92	338.932
1466.19	349.001
1466.45	340.692
1466.72	339.747
1466.99	340.75
1467.25	353.987
1467.52	345.806
1467.78	339.68
1468.05	343.756
1468.32	338.645
1468.58	337.597
1468.85	337.559
1469.11	349.749
1469.38	333.354
1469.64	342.456
1469.91	345.462
1470.18	360.707
1470.44	330.105
1470.71	344.348
1470.97	345.297
1471.24	330.982
1471.5	324.841
1471.77	345.193
1472.03	335.001
1472.3	340.085
1472.57	331.925
1472.83	327.815
1473.1	343.031
1473.36	355.201
1473.63	343.972
1473.9	336.839
1474.16	340.926
1474.43	345.034
1474.69	337.919
1474.96	347.077
1475.22	332.807
1475.49	334.804
1475.75	342.902
1476.02	339.824
1476.28	328.595
1476.55	345.828
1476.81	331.548
1477.08	335.601
1477.35	328.475
1477.61	340.659
1477.88	331.451
1478.14	347.659
1478.41	320.167
1478.67	358.734
1478.94	334.285
1479.2	334.218
1479.47	332.117
1479.73	342.175
1480	335.976
1480.26	334.884
1480.53	333.825
1480.79	351.028
1481.06	345.949
1481.33	338.893
1481.59	328.803
1481.86	319.733
1482.12	339.079
1482.39	328.948
1482.65	348.263
1482.91	338.14
1483.18	333.074
1483.45	339.162
1483.71	332.988
1483.98	338.916
1484.24	338.63
1484.51	344.287
1484.77	338.947
1485.04	342.749
1485.3	334.024
1485.57	338.436
1485.83	332.484
1486.1	340.411
1486.36	341.393
1486.63	335.419
1486.89	328.285
1487.16	353.525
1487.42	323.081
1487.69	334.173
1487.95	338.158
1488.22	339.092
1488.48	333.961
1488.75	333.916
1489.01	336.92
1489.28	331.836
1489.54	339.92
1489.81	334.861
1490.07	336.859
1490.33	336.802
1490.6	334.712
1490.86	349.834
1491.13	334.647
1491.39	327.563
1491.66	339.707
1491.92	335.662
1492.19	347.779
1492.45	343.72
1492.72	345.741
1492.98	333.593
1493.25	334.587
1493.51	321.444
1493.78	339.654
1494.04	330.587
1494.3	337.669
1494.57	329.546
1494.83	319.362
1495.1	332.386
1495.36	341.37
1495.63	327.159
1495.89	342.253
1496.16	332.119
1496.42	343.171
1496.68	328.016
1496.95	329.026
1497.21	341.122
1497.48	337.072
1497.74	325.971
1498.01	337.078
1498.27	341.126
1498.54	336.092
1498.8	333.083
1499.07	340.176
1499.33	329.104
1499.59	338.209
1499.86	336.194
1500.12	326.089
1500.39	326.081
1500.65	330.102
1500.91	337.1
1501.18	327.984
1501.44	343.11
1501.71	339.063
1501.97	336.019
1502.24	325.871
1502.5	339.915
1502.77	351.986
1503.03	326.704
1503.29	327.689
1503.56	333.769
1503.82	334.798
1504.09	333.799
1504.35	341.86
1504.61	322.674
1504.88	340.782
1505.14	333.662
1505.41	329.485
1505.67	329.443
1505.93	324.396
1506.2	345.54
1506.46	330.489
1506.73	323.45
1506.99	346.646
1507.25	337.584
1507.52	329.506
1507.78	321.418
1508.05	328.471
1508.31	328.485
1508.57	333.532
1508.84	344.616
1509.1	339.568
1509.37	339.581
1509.63	340.663
1509.89	336.571
1510.16	330.468
1510.42	340.468
1510.68	335.352
1510.95	344.303
1511.21	329.038
1511.48	343.944
1511.74	327.7
1512	337.578
1512.27	335.476
1512.53	333.389
1512.8	334.322
1513.06	335.273
1513.32	335.285
1513.59	328.42
1513.85	338.542
1514.11	340.524
1514.38	341.474
1514.64	331.33
1514.91	335.273
1515.17	340.192
1515.43	343.099
1515.7	327.959
1515.96	326.92
1516.22	330.906
1516.49	326.87
1516.75	332.871
1517.01	332.871
1517.28	337.9
1517.54	323.91
1517.8	325.953
1518.07	330.988
1518.33	330.007
1518.6	333.041
1518.86	335.075
1519.12	335.097
1519.39	339.113
1519.65	324.044
1519.91	335.053
1520.18	346.09
1520.44	337.089
1520.7	342.138
1520.97	326.104
1521.23	341.153
1521.49	337.117
1521.75	323.038
1522.02	330.023
1522.28	329.987
1522.54	328.939
1522.81	327.858
1523.07	331.751
1523.33	324.633
1523.6	331.57
1523.86	338.519
1524.13	322.442
1524.39	331.456
1524.65	324.471
1524.91	329.492
1525.18	330.527
1525.44	327.577
1525.7	324.648
1525.97	336.75
1526.23	322.761
1526.49	332.792
1526.76	336.77
1527.02	337.741
1527.28	334.71
1527.55	336.687
1527.81	338.657
1528.07	333.61
1528.33	339.589
1528.6	333.557
1528.86	352.579
1529.12	330.528
1529.39	328.484
1529.65	335.464
1529.91	339.482
1530.18	327.517
1530.44	334.597
1530.7	344.676
1530.96	342.699
1531.23	325.653
1531.49	336.675
1531.75	325.626
1532.02	332.646
1532.28	327.704
1532.54	339.84
1532.81	324.913
1533.07	334.007
1533.33	322.005
1533.59	338.065
1533.86	346.078
1534.12	347.058
1534.38	339.001
1534.64	325.934
1534.91	325.892
1535.17	320.751
1535.43	331.653
1535.69	335.58
1535.96	322.462
1536.22	348.374
1536.48	326.234
1536.74	331.175
1537.01	337.104
1537.27	319.082
1537.53	327.046
1537.8	313.952
1538.06	334.893
1538.32	334.851
1538.58	321.896
1538.85	325.042
1539.11	330.273
1539.37	336.473
1539.63	322.596
1539.9	320.736
1540.16	330.868
1540.42	332.951
1540.68	331.851
1540.95	335.817
1541.21	329.736
1541.47	338.67
1541.73	332.576
1542	329.489
1542.26	341.426
1542.52	333.342
1542.78	327.261
1543.05	347.178
1543.31	328.042
1543.57	321.02
1543.83	327.033
1544.09	320.079
1544.36	330.179
1544.62	330.248
1544.88	335.377
1545.14	344.484
1545.4	336.523
1545.67	336.573
1545.93	331.556
1546.19	339.572
1546.45	327.584
1546.72	340.644
1546.98	339.694
1547.24	340.681
1547.5	336.489
1547.76	334.449
1548.03	326.415
1548.29	330.573
1548.55	330.392
1548.81	325.02
1549.08	325.836
1549.34	331.933
1549.6	320.183
1549.86	325.677
1550.12	325.026
1550.39	341.568
1550.65	328.352
1550.91	339.386
1551.17	331.337
1551.43	334.197
1551.7	330.259
1551.96	331.448
1552.22	335.458
1552.48	345.473
1552.74	344.204
1553.01	339.082
1553.27	341.064
1553.53	328.976
1553.79	337.914
1554.05	323.781
1554.31	322.647
1554.58	327.597
1554.84	335.582
1555.1	332.566
1555.36	339.591
1555.62	332.609
1555.88	336.561
1556.15	336.549
1556.41	329.556
1556.67	342.601
1556.93	336.605
1557.19	333.592
1557.45	337.566
1557.72	333.449
1557.98	317.358
1558.24	336.269
1558.5	342.165
1558.76	332.066
1559.02	326.989
1559.29	332.926
1559.55	333.873
1559.81	341.83
1560.07	334.806
1560.33	322.788
1560.59	339.767
1560.86	339.774
1561.12	331.829
1561.38	326.904
1561.64	350.021
1561.9	322.049
1562.16	337.043
1562.43	346.017
1562.69	342.022
1562.95	315.006
1563.21	324.973
1563.47	333.04
1563.73	332.169
1563.99	328.242
1564.26	346.264
1564.52	330.153
1564.78	345.72
1565.04	340.967
1565.3	335.28
1565.56	330.12
1565.82	345.879
1566.08	340.917
1566.35	336.673
1566.61	327.778
1566.87	340.091
1567.13	320.149
1567.39	343.953
1567.65	321.904
1567.91	328.947
1568.17	339.981
1568.43	327.977
1568.7	328.883
1568.96	327.791
1569.22	339.759
1569.48	338.78
1569.74	331.799
1570	339.801
1570.26	326.806
1570.52	324.797
1570.78	340.764
1571.05	335.724
1571.31	326.671
1571.57	337.636
1571.83	329.616
1572.09	323.566
1572.35	331.502
1572.61	327.462
1572.87	331.404
1573.13	332.348
1573.39	350.297
1573.66	336.367
1573.92	341.429
1574.18	329.527
1574.44	326.612
1574.7	338.681
1574.96	328.76
1575.22	338.788
1575.48	326.783
1575.74	345.76
1576	338.744
1576.26	328.672
1576.53	339.539
1576.79	341.412
1577.05	332.31
1577.31	342.179
1577.57	335.09
1577.83	335.012
1578.09	341.956
1578.35	335.966
1578.61	343.938
1578.87	329.981
1579.13	327
1579.39	343.991
1579.65	331.063
1579.92	319.11
1580.18	340.046
1580.44	337.026
1580.7	329.997
1580.96	344.907
1581.22	327.903
1581.48	324.84
1581.74	326.795
1582	340.719
1582.26	331.727
1582.52	328.717
1582.78	337.668
1583.04	341.647
1583.3	338.629
1583.56	328.655
1583.82	334.651
1584.08	349.617
1584.34	331.706
1584.6	322.745
1584.86	335.678
1585.13	335.669
1585.39	331.666
1585.65	335.587
1585.91	344.463
1586.17	334.44
1586.43	336.38
1586.69	336.341
1586.95	328.349
1587.21	336.287
1587.47	332.301
1587.73	337.294
1587.99	336.332
1588.25	341.355
1588.51	343.389
1588.77	329.497
1589.03	347.453
1589.29	342.495
1589.55	329.551
1589.81	340.52
1590.07	336.572
1590.33	337.609
1590.59	322.67
1590.85	333.623
1591.11	345.557
1591.37	339.556
1591.63	345.471
1591.89	326.458
1592.15	331.342
1592.41	335.277
1592.67	336.169
1592.93	339.025
1593.19	348.817
1593.45	342.746
1593.71	350.629
1593.97	333.725
1594.23	336.728
1594.49	343.747
1594.75	332.867
1595.01	340.865
1595.27	349.664
1595.53	352.595
1595.79	354.579
1596.05	344.647
1596.31	339.689
1596.57	336.729
1596.83	323.841
1597.09	333.81
1597.35	340.769
1597.61	337.766
1597.87	338.713
1598.13	327.705
1598.39	350.454
1598.65	347.405
1598.91	340.398
1599.17	332.403
1599.43	330.362
1599.69	337.252
1599.95	343.143
1600.21	342.076
1600.47	332.065
1600.73	334.93
1600.99	336.801
1601.25	348.586
1601.51	336.626
1601.76	331.611
1602.02	351.337
1602.28	330.475
1602.54	328.421
1602.8	337.254
1603.06	332.261
1603.32	332.226
1603.58	336.166
1603.84	338.144
1604.1	344.087
1604.36	338.158
1604.62	345.085
1604.88	339.162
1605.14	342.146
1605.4	339.218
1605.66	332.337
1605.92	350.186
1606.18	336.375
1606.44	345.311
1606.7	341.371
1606.95	331.477
1607.21	334.451
1607.47	355.805
1607.73	358.693
1607.99	343.07
1608.25	359.477
1608.51	351.593
1608.77	347.097
1609.03	350.415
1609.29	343.288
1609.55	335.05
1609.81	339.679
1610.07	342.429
1610.33	330.792
1610.59	343.041
1610.84	350.77
1611.1	338.541
1611.36	341.53
1611.62	338.973
1611.88	336.41
1612.14	332.844
1612.4	336.806
1612.66	352.586
1612.92	336.515
1613.18	350.551
1613.44	332.762
1613.69	342.972
1613.95	334.778
1614.21	348.229
1614.47	335.317
1614.73	344.3
1614.99	336.009
1615.25	336.974
1615.51	340.015
1615.77	350.231
1616.03	335.922
1616.28	346.595
1616.54	337.151
1616.8	341.82
1617.06	342.787
1617.32	351.132
1617.58	345.649
1617.84	339.729
1618.1	342.783
1618.36	340.588
1618.61	341.584
1618.87	334.692
1619.13	348.623
1619.39	339.026
1619.65	344.622
1619.91	341.767
1620.17	341.717
1620.43	342.99
1620.69	349.843
1620.94	346.099
1621.2	340.525
1621.46	349.001
1621.72	345.254
1621.98	347.9
1622.24	343.25
1622.5	345.624
1622.75	345.581
1623.01	341.417
1623.27	343.523
1623.53	343.475
1623.79	340.661
1624.05	347.008
1624.31	342.381
1624.56	343.232
1624.82	343.354
1625.08	346.206
1625.34	349.866
1625.6	344.216
1625.86	335.686
1626.12	344.489
1626.37	340.915
1626.63	343.701
1626.89	337.819
1627.15	342.941
1627.41	354.488
1627.67	345.057
1627.93	342.091
1628.18	343.185
1628.44	342.458
1628.7	344.123
1628.96	341.121
1629.22	347.384
1629.48	351.194
1629.73	346.101
1629.99	346.843
1630.25	341.454
1630.51	338.367
1630.77	337.155
1631.03	339.183
1631.28	343.883
1631.29	343.873
1631.55	352.806
1631.81	345.91
1632.07	349.921
1632.33	328.392
1632.59	348.065
1632.86	347.888
1633.12	330.081
1633.38	352.777
1633.64	342.98
1633.9	346.95
1634.16	340.063
1634.42	339.077
1634.69	343.995
1634.95	341.02
1635.21	341.98
1635.47	331.108
1635.73	360.629
1635.99	335.954
1636.25	365.463
1636.52	334.874
1636.78	340.721
1637.04	347.576
1637.3	346.58
1637.56	336.707
1637.82	366.206
1638.08	345.501
1638.34	342.552
1638.6	344.524
1638.87	346.491
1639.13	358.302
1639.39	342.551
1639.65	358.287
1639.91	334.659
1640.17	333.744
1640.43	360.383
1640.69	365.332
1640.95	340.697
1641.22	356.41
1641.48	347.524
1641.74	341.599
1642	349.461
1642.26	343.539
1642.52	352.387
1642.78	348.44
1643.04	359.265
1643.3	331.681
1643.56	348.376
1643.82	336.521
1644.08	346.303
1644.35	347.276
1644.61	350.238
1644.87	352.267
1645.13	354.26
1645.39	348.375
1645.65	351.296
1645.91	361.094
1646.17	341.379
1646.43	355.125
1646.69	343.294
1646.95	337.35
1647.21	348.14
1647.48	346.157
1647.74	353.055
1648	340.322
1648.26	350.226
1648.52	353.319
1648.78	342.631
1649.04	358.336
1649.3	342.554
1649.56	343.52
1649.82	345.568
1650.08	350.601
1650.34	372.332
1650.6	354.676
1650.87	349.803
1651.13	345.888
1651.39	346.879
1651.65	342.939
1651.91	359.704
1652.17	354.758
1652.43	339.932
1652.69	350.747
1652.95	349.76
1653.21	358.643
1653.47	358.676
1653.73	348.852
1653.99	367.593
1654.25	331.151
1654.51	347.948
1654.77	345.057
1655.03	344.167
1655.29	356.127
1655.55	344.386
1655.81	353.331
1656.07	346.46
1656.33	352.403
1656.59	349.439
1656.86	336.582
1657.12	349.377
1657.38	340.47
1657.64	344.394
1657.9	357.187
1658.16	346.287
1658.42	361.034
1658.68	349.145
1658.94	335.288
1659.2	346.084
1659.46	323.34
1659.72	335.178
1659.98	350.995
1660.24	348.091
1660.5	344.21
1660.76	356.113
1661.02	354.218
1661.28	342.411
1661.54	341.495
1661.8	331.256
1662.06	350.574
1662.32	357.979
1662.58	340.023
1662.84	342.918
1663.1	347.929
1663.36	360.815
1663.62	339.499
1663.88	343.565
1664.14	337.638
1664.4	343.739
1664.66	337.967
1664.92	336.726
1665.18	343.884
1665.44	330.172
1665.7	359.971
1665.96	344.042
1666.22	344.05
1666.48	337.29
1666.74	341.585
1667	338.55
1667.26	345.39
1667.52	344.38
1667.78	342.341
1668.04	355.151
1668.3	341.457
1668.56	326.886
1668.82	334.836
1669.08	340.77
1669.34	348.686
1669.6	337.811
1669.86	336.776
1670.12	332.98
1670.38	336.114
1670.64	335.095
1670.9	333.087
1671.15	325.167
1671.41	337.03
1671.67	336.079
1671.93	326.208
1672.19	344.994
1672.45	354.874
1672.71	349.942
1672.97	342.049
1673.23	342.071
1673.49	336.174
1673.75	342.153
1674.01	337.255
1674.27	341.254
1674.53	328.455
1674.79	338.409
1675.05	340.423
1675.31	342.415
1675.57	349.338
1675.83	334.501
1676.09	336.5
1676.35	328.595
1676.61	332.553
1676.86	326.6
1677.12	341.418
1677.38	333.458
1677.64	327.461
1677.9	336.292
1678.16	328.317
1678.42	323.325
1678.68	336.138
1678.94	333.141
1679.2	344.972
1679.46	329.122
1679.72	332.061
1679.98	342.9
1680.24	326.068
1680.5	336.906
1680.75	325.032
1681.01	333.916
1681.27	333.914
1681.53	338.853
1681.79	337.869
1682.05	332.936
1682.31	334.904
1682.57	324.027
1682.83	333.901
1683.09	334.889
1683.35	337.846
1683.61	324.986
1683.86	315.066
1684.12	337.749
1684.38	331.805
1684.64	336.73
1684.9	336.724
1685.16	327.835
1685.42	326.85
1685.68	337.718
1685.94	322.927
1686.2	328.919
1686.45	331.925
1686.71	328.976
1686.97	324.017
1687.23	332.871
1687.49	347.646
1687.75	356.502
1688.01	320.917
1688.27	334.699
1688.53	327.715
1688.79	333.581
1689.04	332.536
1689.3	336.421
1689.56	339.302
1689.82	333.327
1690.08	352.159
1690.34	327.545
1690.6	328.565
1690.86	338.453
1691.12	335.521
1691.37	325.691
1691.63	329.644
1691.89	316.8
1692.15	329.59
1692.41	330.513
1692.67	330.442
1692.93	323.452
1693.18	330.258
1693.44	336.094
1693.7	316.324
1693.96	332.02
1694.22	329.011
1694.48	347.711
1694.74	321.133
1695	330.019
1695.25	323.142
1695.51	329.076
1695.77	325.175
1696.03	324.228
1696.29	312.407
1696.55	328.15
1696.8	324.154
1697.06	335.895
1697.32	329.897
1697.58	330.807
1697.84	334.685
1698.1	323.804
1698.36	325.725
1698.62	336.521
1698.87	322.735
1699.13	324.715
1699.39	329.644
1699.65	320.792
1699.91	326.652
1700.17	320.723
1700.42	312.84
1700.68	323.644
1700.94	311.814
1701.2	328.488
1701.46	323.508
1701.71	323.448
1701.97	325.351
1702.23	329.221
1702.49	315.437
1702.75	326.235
1703.01	326.217
1703.26	309.486
1703.52	321.253
1703.78	328.151
1704.04	321.317
1704.3	327.23
1704.55	316.41
1704.81	322.285
1705.07	316.387
1705.33	318.357
1705.59	322.245
1705.85	328.073
1706.1	319.159
1706.36	324.969
1706.62	321.942
1706.88	331.687
1707.14	319.829
1707.4	318.747
1707.65	319.626
1707.91	320.507
1708.17	317.449
1708.43	304.606
1708.69	326.073
1708.94	330.914
1709.2	325.993
1709.46	322.069
1709.72	322.075
1709.97	321.105
1710.23	333.851
1710.49	325.095
1710.75	311.417
1711.01	319.281
1711.26	320.287
1711.52	317.361
1711.78	311.46
1712.04	315.302
1712.3	319.087
1712.55	316.996
1712.81	317.834
1713.07	314.798
1713.33	321.502
1713.58	322.414
1713.84	318.464
1714.1	312.571
1714.36	315.482
1714.62	310.589
1714.87	325.272
1715.13	305.826
1715.39	325.372
1715.65	318.51
1715.9	313.584
1716.16	317.428
1716.42	318.319
1716.68	302.593
1716.93	319.056
1717.19	315
1717.45	324.598
1717.71	314.732
1717.96	320.463
1718.22	319.412
1718.48	309.629
1718.74	312.537
1718.99	311.564
1719.25	327.126
1719.51	315.452
1719.77	316.452
1720.02	308.638
1720.28	313.454
1720.54	310.456
1720.8	309.407
1721.05	318.104
1721.31	315.114
1721.57	320.871
1721.83	307.178
1722.08	308.071
1722.34	312.855
1722.6	323.471
1722.86	317.585
1723.11	308.804
1723.37	316.562
1723.63	306.834
1723.88	320.406
1724.14	320.365
1724.4	332.903
1724.66	302.705
1724.91	326.837
1725.17	318.96
1725.43	325.655
1725.69	310.102
1725.94	307.205
1726.2	307.196
1726.46	314.905
1726.71	308.026
1726.97	304.119
1727.23	321.614
1727.49	310.962
1727.74	309.946
1728	309.843
1728.26	306.576
1728.51	315.764
1728.77	315.515
1729.03	309.832
1729.29	312.9
1729.54	308.203
1729.8	313.873
1730.06	311.832
1730.31	313.717
1730.57	307.242
1730.83	308.293
1731.08	314.103
1731.34	310.232
1731.6	309.251
1731.85	312.12
1732.11	320.785
1732.37	309.147
1732.63	311.019
1732.88	310.929
1733.14	315.637
1733.4	301.987
1733.65	299.001
1733.91	300.837
1734.17	309.414
1734.42	299.677
1734.68	310.177
1734.94	308.157
1735.19	313.867
1735.45	298.411
1735.71	304.158
1735.97	311.829
1736.22	307.939
1736.48	307.898
1736.73	308.815
1736.99	304.924
1737.25	311.62
1737.5	317.339
1737.76	300.928
1738.02	314.321
1738.28	312.333
1738.53	312.262
1738.79	304.49
1739.04	295.742
1739.3	304.246
1739.56	308.908
1739.81	312.624
1740.07	304.85
1740.33	303.814
1740.58	304.704
1740.84	309.426
1741.1	305.53
1741.35	308.349
1741.61	301.61
1741.87	309.25
1742.12	314.974
1742.38	306.325
1742.64	316.832
1742.89	306.294
1743.15	310.101
1743.4	311.956
1743.66	295.63
1743.92	297.502
1744.17	302.254
1744.43	308.948
1744.69	302.257
1744.94	307.043
1745.2	307.988
1745.46	301.26
1745.71	293.554
1745.97	311.644
1746.23	311.552
1746.48	303.829
1746.74	301.84
1746.99	312.266
1747.25	304.559
1747.51	316.921
1747.76	299.73
1748.02	297.823
1748.28	306.426
1748.53	303.582
1748.79	303.615
1749.04	298.888
1749.3	308.497
1749.56	300.924
1749.81	310.552
1750.07	302.019
1750.32	301.099
1750.58	298.262
1750.84	310.707
1751.09	303.03
1751.35	301.998
1751.61	303.815
1751.86	313.292
1752.12	303.675
1752.37	304.562
1752.63	310.221
1752.88	296.798
1753.14	307.243
1753.4	313.871
1753.65	302.36
1753.91	303.246
1754.16	303.195
1754.42	301.246
1754.68	293.584
1754.93	302.126
1755.19	308.748
1755.44	294.395
1755.7	309.564
1755.96	308.53
1756.21	316.05
1756.47	306.431
1756.72	308.242
1756.98	307.244
1757.23	299.596
1757.49	302.457
1757.75	299.684
1758	309.24
1758.26	314.009
1758.51	305.451
1758.77	300.697
1759.02	302.617
1759.28	308.327
1759.54	305.452
1759.79	313.039
1760.05	304.448
1760.3	308.22
1760.56	314.832
1760.81	303.358
1761.07	298.548
1761.33	299.458
1761.58	297.534
1761.84	299.41
1762.09	295.661
1762.35	304.257
1762.6	304.271
1762.86	303.303
1763.11	307.115
1763.37	303.333
1763.63	300.511
1763.88	303.408
1764.14	309.251
1764.39	295.027
1764.65	302.686
1764.9	297.005
1765.16	310.357
1765.41	298.947
1765.67	298.95
1765.92	303.705
1766.18	302.732
1766.43	313.175
1766.69	310.32
1766.95	311.25
1767.2	303.599
1767.46	307.353
1767.71	305.421
1767.97	299.672
1768.22	298.721
1768.48	305.274
1768.73	312.699
1768.99	299.245
1769.24	313.35
1769.5	297.212
1769.75	306.758
1770.01	299.265
1770.26	301.17
1770.52	297.387
1770.77	303.151
1771.03	296.619
1771.28	299.529
1771.54	307.148
1771.79	297.682
1772.05	296.793
1772.31	302.554
1772.56	297.836
1772.82	310.244
1773.07	301.713
1773.33	300.792
1773.58	307.482
1773.84	302.743
1774.09	309.423
1774.35	309.462
1774.6	311.398
1774.86	312.399
1775.11	302.997
1775.37	304.049
1775.62	307.91
1775.87	302.208
1776.13	308.873
1776.39	297.401
1776.64	304.978
1776.89	297.317
1777.15	307.75
1777.41	308.648
1777.66	293.353
1777.91	305.679
1778.17	295.144
1778.42	303.636
1778.68	300.697
1778.93	304.447
1779.19	306.336
1779.44	314.971
1779.7	304.542
1779.95	313.131
1780.21	302.689
1780.46	299.865
1780.72	297.973
1780.97	300.842
1781.23	296.107
1781.48	298.052
1781.74	302.862
1781.99	305.79
1782.25	297.268
1782.5	299.213
1782.75	303.06
1783.01	297.381
1783.26	310.768
1783.52	298.419
1783.77	315.636
1784.03	299.504
1784.28	293.834
1784.54	307.222
1784.79	302.457
1785.05	303.4
1785.3	303.372
1785.56	310.013
1785.81	312.875
1786.06	300.497
1786.32	313.902
1786.57	299.653
1786.83	303.552
1787.08	300.791
1787.34	307.658
1787.59	306.901
1787.85	304.242
1788.1	312.051
1788.35	303.49
1788.61	306.424
1788.86	302.717
1789.12	300.889
1789.37	310.515
1789.63	307.679
1789.88	305.812
1790.13	301.029
1790.39	313.476
1790.64	301.954
1790.9	304.596
1791.15	302.659
1791.4	312.199
1791.66	306.455
1791.91	301.683
1792.17	311.27
1792.42	311.316
1792.68	298.891
1792.93	311.365
1793.18	303.688
1793.44	316.198
1793.69	305.667
1793.95	307.597
1794.2	318.081
1794.45	307.574
1794.71	300.16
1794.96	307.054
1795.22	306.189
1795.47	295.678
1795.73	315.897
1795.98	305.395
1796.23	301.615
1796.49	306.483
1796.74	301.739
1797	309.481
1797.25	303.758
1797.5	321.1
1797.76	310.557
1798.01	305.772
1798.27	312.512
1798.52	308.653
1798.77	304.778
1799.03	311.463
1799.28	310.443
1799.53	311.345
1799.79	315.143
1800.04	308.379
1800.3	313.154
1800.55	313.134
1800.8	304.479
1801.06	298.715
1801.31	312.173
1801.56	295.863
1801.82	299.735
1802.07	304.578
1802.33	302.707
1802.58	307.573
1802.83	314.371
1803.09	302.894
1803.34	305.814
1803.59	302.948
1803.85	304.905
1804.1	309.773
1804.36	305.023
1804.61	301.239
1804.86	317.682
1805.12	303.319
1805.37	315.91
1805.62	310.191
1805.88	308.316
1806.13	317.034
1806.38	310.321
1806.64	294.916
1806.89	309.378
1807.15	310.345
1807.4	309.385
1807.65	310.356
1807.91	306.509
1808.16	311.339
1808.41	316.171
1808.67	310.401
1808.92	308.486
1809.17	305.608
1809.43	307.551
1809.68	302.742
1809.93	317.211
1810.19	304.667
1810.44	298.868
1810.69	301.754
1810.95	300.785
1811.2	309.457
1811.45	305.604
1811.71	300.796
1811.96	311.435
1812.21	308.585
1812.47	306.712
1812.72	306.767
1812.97	302.924
1813.23	311.647
1813.48	313.644
1813.73	308.906
1813.99	308.987
1814.24	319.728
1814.49	306.267
1814.75	313.087
1815	298.621
1815.25	314.103
1815.5	314.117
1815.76	307.372
1816.01	302.553
1816.26	300.658
1816.52	303.536
1816.77	313.185
1817.02	308.214
1817.28	299.386
1817.53	310.017
1817.78	311.034
1818.04	301.454
1818.29	311.194
1818.54	316
1818.8	318.921
1819.05	303.494
1819.3	319.969
1819.55	312.264
1819.81	312.301
1820.06	302.675
1820.31	314.319
1820.56	302.741
1820.82	302.781
1821.07	305.734
1821.32	299.976
1821.58	311.628
1821.83	318.434
1822.08	302.004
1822.34	306.862
1822.59	313.657
1822.84	305.915
1823.09	315.57
1823.35	314.573
1823.6	322.297
1823.85	308.771
1824.11	313.641
1824.36	317.542
1824.61	309.828
1824.86	309.863
1825.12	309.892
1825.37	304.091
1825.62	305.06
1825.88	308.938
1826.13	307.012
1826.38	317.674
1826.63	304.132
1826.89	311.911
1827.14	311.945
1827.39	308.105
1827.64	306.178
1827.9	304.228
1828.15	307.112
1828.4	304.163
1828.65	311.879
1828.91	302.181
1829.16	311.856
1829.41	315.714
1829.66	306
1829.92	303.057
1830.17	314.645
1830.42	312.7
1830.67	332.096
1830.93	302.124
1831.18	306.041
1831.43	315.768
1831.68	312.904
1831.94	310.042
1832.19	313.977
1832.44	304.339
1832.69	304.354
1832.94	314.051
1833.2	305.353
1833.45	307.313
1833.7	308.301
1833.95	312.128
1834.21	311.976
1834.46	306.972
1834.71	310.701
1834.96	308.662
1835.21	307.613
1835.47	306.62
1835.72	312.377
1835.97	316.204
1836.22	305.931
1836.48	318.097
1836.73	311.101
1836.98	313.819
1837.23	318.447
1837.48	313.324
1837.74	315.99
1837.99	313.99
1838.24	313.426
1838.49	306.008
1838.75	308.067
1839	307.159
1839.25	309.137
1839.5	306.301
1839.75	311.914
1840.01	306.826
1840.26	296.967
1840.51	309.38
1840.76	309.233
1841.01	301.366
1841.26	304.139
1841.52	304.025
1841.77	308.744
1842.02	307.678
1842.27	312.522
1842.53	306.726
1842.78	302.888
1843.03	296.141
1843.28	308.681
1843.53	306.726
1843.78	306.719
1844.04	303.856
1844.29	300.976
1844.54	312.513
1844.79	306.725
1845.04	303.837
1845.3	302.01
1845.55	308.901
1845.8	313.856
1846.05	308.263
1846.3	308.168
1846.55	300.058
1846.81	314.968
1847.06	304.196
1847.31	308.993
1847.56	310.089
1847.81	306.396
1848.06	303.393
1848.32	303.296
1848.57	310.999
1848.82	315.764
1849.07	302.204
1849.32	307.883
1849.57	298.176
1849.83	304.792
1850.08	301.818
1850.33	307.501
1850.58	315.12
1850.83	316.019
1851.08	302.525
1851.34	305.372
1851.59	303.435
1851.84	306.313
1852.09	307.275
1852.34	305.355
1852.59	306.31
1852.84	299.571
1853.1	310.104
1853.35	293.731
1853.6	300.371
1853.85	305.072
1854.1	308.813
1854.35	306.841
1854.6	308.72
1854.85	303.847
1855.11	300.866
1855.36	300.8
1855.61	307.478
1855.86	296.923
1856.11	302.668
1856.36	301.712
1856.61	310.321
1856.87	313.171
1857.12	311.219
1857.37	307.353
1857.62	301.564
1857.87	302.463
1858.12	308.137
1858.37	305.195
1858.62	313.731
1858.88	307.913
1859.13	305.938
1859.38	309.747
1859.63	304.017
1859.88	309.764
1860.13	306.949
1860.38	295.533
1860.63	299.402
1860.88	297.543
1861.14	299.511
1861.39	305.277
1861.64	302.397
1861.89	293.746
1862.14	311.862
1862.39	305.094
1862.64	301.197
1862.89	312.599
1863.14	302.017
1863.39	305.78
1863.65	299.991
1863.9	304.715
1864.15	300.841
1864.4	304.601
1864.65	301.663
1864.9	296.803
1865.15	303.384
1865.4	303.271
1865.65	305.052
1865.9	306.827
1866.15	314.318
1866.4	298.954
1866.66	299.781
1866.91	299.666
1867.16	311.934
1867.41	301.414
1867.66	298.527
1867.91	307.06
1868.16	302.306
1868.41	298.52
1868.66	318.488
1868.91	309.918
1869.16	299.442
1869.41	303.228
1869.67	313.668
1869.92	310.802
1870.17	303.185
1870.42	310.781
1870.67	304.124
1870.92	303.157
1871.17	310.726
1871.42	306.878
1871.67	303.036
1871.92	301.107
1872.17	298.209
1872.42	300.996
1872.67	297.153
1872.92	300.932
1873.17	310.406
1873.42	298.976
1873.67	304.616
1873.92	307.397
1874.17	298.786
1874.43	301.554
1874.68	299.577
1874.93	306.127
1875.18	304.128
1875.43	303.026
1875.68	299.112
1875.93	320.784
1876.18	308.404
1876.43	291.328
1876.68	306.335
1876.93	295.758
1877.18	301.117
1877.43	307.837
1877.68	301.209
1877.93	301.153
1878.18	302.794
1878.43	299.914
1878.68	298.236
1878.93	315.471
1879.18	305.003
1879.43	312.479
1879.68	297.298
1879.93	306.75
1880.18	296.384
1880.43	295.401
1880.68	302
1880.93	300.007
1881.18	309.321
1881.43	308.219
1881.68	305.222
1881.93	311.659
1882.18	306.728
1882.43	301.898
1882.68	292.279
1882.93	306.1
1883.19	302.631
1883.43	302.652
1883.68	299.69
1883.94	304.561
1884.19	301.638
1884.43	301.697
1884.68	311.28
1884.94	291.536
1885.18	292.519
1885.43	307.747
1885.68	309.725
1885.94	302.225
1886.18	296.544
1886.43	300.212
1886.68	305.798
1886.93	309.501
1887.18	299.049
1887.43	298.03
1887.68	303.607
1887.93	303.491
1888.18	296.786
1888.43	300.461
1888.68	303.186
1888.93	294.652
1889.18	296.528
1889.43	300.272
1889.68	297.468
1889.93	302.241
1890.18	300.439
1890.43	305.177
1890.68	298.58
1890.93	298.546
1891.18	303.254
1891.43	304.177
1891.68	303.215
1891.93	301.329
1892.18	289.99
1892.43	306.881
1892.68	295.496
1892.93	300.032
1893.18	286.713
1893.43	300.734
1893.68	302.712
1893.93	301.65
1894.18	302.531
1894.43	304.379
1894.68	311.902
1894.92	295.013
1895.17	298.802
1895.42	305.416
1895.67	290.417
1895.92	294.223
1896.17	301.804
1896.42	305.622
1896.67	306.605
1896.92	294.41
1897.17	307.597
1897.42	297.252
1897.67	301.941
1897.92	307.553
1898.17	289.636
1898.42	300.856
1898.67	295.138
1898.92	302.593
1899.16	307.26
1899.42	302.527
1899.66	301.543
1899.91	294.016
1900.16	302.476
1900.41	294.989
1900.66	302.551
1900.91	297.919
1901.16	290.457
1901.41	303.681
1901.66	300.927
1901.91	301.006
1902.16	310.428
1902.41	297.233
1902.65	300.968
1902.9	300.931
1903.15	300.904
1903.4	299.003
1903.65	298.049
1903.9	295.219
1904.15	302.732
1904.4	295.197
1904.65	301.763
1904.9	302.701
1905.15	295.169
1905.4	300.748
1905.64	305.322
1905.89	294.946
1906.14	296.79
1906.39	299.576
1906.64	305.188
1906.89	305.184
1907.14	301.45
1907.39	298.661
1907.64	294.968
1907.88	297.817
1908.13	297.833
1908.38	305.379
1908.63	293.21
1908.88	296.088
1909.13	298.982
1909.38	299.071
1909.63	297.288
1909.88	300.216
1910.13	294.668
1910.37	291.915
1910.62	307.035
1910.87	306.128
1911.12	292.958
1911.37	295.784
1911.62	309.899
1911.87	290.095
1912.12	292.914
1912.36	295.739
1912.61	298.567
1912.86	298.575
1913.11	299.555
1913.36	300.578
1913.61	310.103
1913.86	299.813
1914.1	297.045
1914.35	317.863
1914.6	302.834
1914.85	304.77
1915.1	305.738
1915.35	298.188
1915.6	301.941
1915.85	299.09
1916.09	295.287
1916.34	293.337
1916.59	306.486
1916.84	295.126
1917.09	302.636
1917.34	301.674
1917.58	296.02
1917.83	300.77
1918.08	299.892
1918.33	296.199
1918.58	308.555
1918.83	295.44
1919.08	302.167
1919.32	295.674
1919.57	299.52
1919.82	306.157
1920.07	304.243
1920.32	304.242
1920.57	302.427
1920.81	299.675
1921.06	307.295
1921.31	297.879
1921.56	313.046
1921.81	296.973
1922.06	296.956
1922.3	306.371
1922.55	309.161
1922.8	301.567
1923.05	305.325
1923.3	308.134
1923.55	297.699
1923.79	301.428
1924.04	300.442
1924.29	302.316
1924.54	301.38
1924.79	299.526
1925.03	298.641
1925.28	304.4
1925.53	301.654
1925.78	297.951
1926.03	296.141
1926.27	295.286
1926.52	303.877
1926.77	311.501
1927.02	307.759
1927.27	308.747
1927.52	303.102
1927.76	299.348
1928.01	302.215
1928.26	300.356
1928.51	291.869
1928.76	315.609
1929	296.717
1929.25	301.547
1929.5	299.734
1929.75	304.566
1929.99	299.901
1930.24	296.183
1930.49	302.867
1930.74	308.574
1930.99	302.862
1931.23	297.13
1931.48	301.837
1931.73	302.745
1931.98	298.908
1932.23	307.403
1932.47	300.742
1932.72	304.504
1932.97	303.561
1933.22	302.689
1933.47	300.929
1933.71	304.918
1933.96	300.422
1934.21	296.879
1934.46	305.679
1934.7	303.971
1934.95	302.222
1935.2	313.778
1935.45	300.292
1935.69	298.31
1935.94	304.968
1936.19	315.416
1936.44	294.396
1936.68	307.662
1936.93	302.835
1937.18	309.437
1937.43	309.381
1937.67	301.706
1937.92	302.643
1938.17	300.825
1938.42	292.31
1938.67	305.684
1938.91	305.736
1939.16	290.538
1939.41	306.782
1939.66	302.993
1939.9	305.913
1940.15	301.225
1940.4	303.306
1940.64	301.537
1940.89	311.103
1941.14	299.619
1941.39	299.527
1941.63	306.036
1941.88	307.04
1942.13	297.778
1942.38	297.9
1942.62	305.559
1942.87	294.963
1943.12	306.282
1943.37	297.586
1943.61	299.627
1943.86	293.996
1944.11	301.694
1944.36	299.855
1944.6	298.019
1944.85	308.603
1945.1	307.725
1945.34	301.105
1945.59	306.901
1945.84	306.952
1946.09	301.252
1946.33	299.361
1946.58	307.012
1946.83	302.209
1947.08	296.442
1947.32	306.95
1947.57	299.298
1947.82	296.428
1948.06	308.84
1948.31	308.848
1948.56	298.378
1948.8	297.482
1949.05	305.2
1949.3	294.75
1949.55	302.486
1949.79	302.606
1950.04	300.829
1950.29	304.777
1950.53	302.978
1950.78	312.694
1951.03	300.343
1951.28	310.04
1951.52	298.587
1951.77	299.597
1952.02	305.409
1952.26	297.727
1952.51	307.375
1952.76	304.569
1953	297.792
1953.25	307.287
1953.5	305.187
1953.74	298.297
1953.99	301.972
1954.24	301.832
1954.48	295.066
1954.73	317.084
1954.98	306.575
1955.22	303.777
1955.47	299.107
1955.72	300.265
1955.96	299.415
1956.21	299.511
1956.46	313.016
1956.7	302.523
1956.95	311.235
1957.2	310.336
1957.44	302.697
1957.69	304.654
1957.94	301.796
1958.19	310.465
1958.43	315.255
1958.68	308.474
1958.92	314.204
1959.17	305.543
1959.42	305.503
1959.66	319.864
1959.91	300.609
1960.16	303.441
1960.4	300.505
1960.65	303.332
1960.9	303.285
1961.14	298.453
1961.39	307.095
1961.64	297.515
1961.88	302.328
1962.13	307.141
1962.38	299.477
1962.62	306.21
1962.87	302.382
1963.12	303.355
1963.36	301.449
1963.61	300.525
1963.85	308.243
1964.1	305.365
1964.35	304.383
1964.59	302.467
1964.84	301.498
1965.09	310.144
1965.33	300.569
1965.58	298.703
1965.82	307.416
1966.07	307.488
1966.32	305.618
1966.56	302.78
1966.81	307.583
1967.06	308.544
1967.3	295.113
1967.55	307.626
1967.79	309.562
1968.04	297.065
1968.29	300.887
1968.53	303.724
1968.78	305.575
1969.03	310.287
1969.27	306.346
1969.52	314.905
1969.76	301.4
1970.01	303.273
1970.26	296.508
1970.5	298.38
1970.75	305.061
1970.99	304.072
1971.24	299.252
1971.49	300.224
1971.73	302.175
1971.98	307.951
1972.23	300.277
1972.47	299.297
1972.72	300.212
1972.96	293.436
1973.21	306.802
1973.46	305.801
1973.7	307.691
1973.95	306.719
1974.19	310.553
1974.44	302.896
1974.68	301.002
1974.93	289.535
1975.18	305.88
1975.42	299.211
1975.67	305
1975.91	303.105
1976.16	307.915
1976.41	304.083
1976.65	311.751
1976.9	303.1
1977.14	300.193
1977.39	303.985
1977.63	307.771
1977.88	294.307
1978.12	300.026
1978.37	306.715
1978.62	309.587
1978.86	305.763
1979.11	296.183
1979.35	300.985
1979.6	305.787
1979.85	311.517
1980.09	306.675
1980.34	298.956
1980.58	302.759
1980.83	296.975
1981.07	306.517
1981.32	315.116
1981.56	307.442
1981.81	305.516
1982.06	306.435
1982.3	299.68
1982.55	308.232
1982.79	304.317
1983.04	310.941
1983.28	300.383
1983.53	298.449
1983.77	300.336
1984.02	307.956
1984.26	306.974
1984.51	309.798
1984.76	301.12
1985	298.204
1985.25	296.289
1985.49	301.086
1985.74	303.035
1985.98	303.087
1986.23	290.689
1986.47	312.678
1986.72	305.042
1986.96	294.494
1987.21	304.926
1987.45	301.005
1987.7	298.985
1987.95	297.903
1988.19	298.664
1988.44	301.313
1988.68	301.131
1988.93	304.733
1989.17	302.678
1989.42	301.681
1989.66	313.536
1989.91	299.481
1990.15	302.229
1990.4	303.999
1990.64	300.446
1990.89	299.639
1991.13	312.609
1991.38	299.251
1991.62	298.33
1991.87	297.931
1992.11	298.633
1992.36	298.886
1992.6	306.33
1992.85	313.31
1993.09	293.189
1993.34	299.342
1993.58	302.513
1993.83	304.793
1994.07	307.067
1994.32	301.848
1994.56	304.241
1994.81	304.312
1995.05	300.071
1995.3	301.757
1995.54	299.39
1995.79	305.491
1996.03	304.184
1996.28	295.58
1996.52	303.528
1996.77	296.744
1997.01	297.477
1997.26	297.706
1997.5	299.309
1997.75	297.899
1997.99	298.49
1998.24	302.256
1998.48	298.106
1998.73	302.566
1998.97	302.022
1999.22	302.205
1999.46	297.746
1999.71	300.081
1999.95	301.117
2000.19	297.637
2000.44	302.586
2000.69	297.38
2000.93	298.805
2001.17	303.752
2001.42	301.687
2001.66	301.566
2001.91	305.133
2002.15	302.74
2002.4	299.519
2002.64	296.202
2002.89	296.388
2003.13	298.259
2003.37	300.963
2003.62	299.592
2003.86	304.309
2004.11	296.327
2004.35	295.381
2004.6	301.698
2004.84	300.531
2005.09	302.176
2005.33	304.572
2005.58	298.525
2005.82	304.084
2006.07	301.763
2006.31	300.064
2006.55	301.212
2006.8	297.305
2007.04	296.852
2007.29	298.397
2007.53	299.662
2007.78	302.026
2008.02	301.758
2008.27	298.343
2008.51	298.624
2008.75	299.121
2009	295.205
2009.24	302.328
2009.49	306.885
2009.73	304.435
2009.97	296.563
2010.22	292.054
2010.46	294.979
2010.71	292.46
2010.95	305.179
2011.19	291.751
2011.44	293.863
2011.68	292.125
2011.93	291.451
2012.17	300.347
2012.41	298.425
2012.66	299.283
2012.91	292.528
2013.15	300.911
2013.4	291.405
2013.65	295.037
2013.9	297.706
2014.14	301.293
2014.39	292.794
2014.64	290.926
2014.88	294.714
2015.13	300.403
2015.38	304.199
2015.63	297.625
2015.87	296.67
2016.12	290.366
2016.37	295.127
2016.61	298.876
2016.86	305.414
2017.11	304.407
2017.36	293.046
2017.6	294.816
2017.85	293.753
2018.1	290.826
2018.34	300.1
2018.59	296.23
2018.84	297.054
2019.08	308.224
2019.33	297.882
2019.58	292.228
2019.83	301.59
2020.07	296.895
2020.32	296.882
2020.57	298.764
2020.81	297.851
2021.06	304.414
2021.31	298.783
2021.55	295.949
2021.8	294.038
2022.05	293.048
2022.3	299.532
2022.54	294.77
2022.79	295.636
2023.04	296.509
2023.28	295.507
2023.53	289.833
2023.78	295.383
2024.02	296.231
2024.27	297.061
2024.52	294.158
2024.76	299.665
2025.01	293.975
2025.26	290.161
2025.5	308.717
2025.75	299.388
2026	301.352
2026.24	303.396
2026.49	290.546
2026.74	290.795
2026.98	292.845
2027.23	291.914
2027.48	287.081
2027.72	299.91
2027.97	295.474
2028.22	292.185
2028.46	294.184
2028.71	303.245
2028.96	290.293
2029.2	298.322
2029.45	293.292
2029.7	319.053
2029.94	303.157
2030.19	297.295
2030.44	295.596
2030.68	290.208
2030.93	285.515
2031.18	294.845
2031.42	300.439
2031.67	298.655
2031.91	295.019
2032.16	303.536
2032.41	305.511
2032.65	299.057
2032.9	302.854
2033.15	297.328
2033.39	287.142
2033.64	300.074
2033.88	304.59
2034.13	307.032
2034.38	298.488
2034.62	297.696
2034.87	295.922
2035.12	297.008
2035.36	294.435
2035.61	307.699
2035.86	298.401
2036.1	304.758
2036.35	293.509
2036.59	296.413
2036.84	300.153
2037.09	291.727
2037.33	291.701
2037.58	298.21
2037.82	294.43
2038.07	292.515
2038.32	299.009
2038.56	291.487
2038.81	295.174
2039.06	296.991
2039.3	304.401
2039.55	302.448
2039.79	293.964
2040.04	293.887
2040.29	295.68
2040.53	293.75
2040.78	293.697
2041.02	301.123
2041.27	301.108
2041.52	298.276
2041.76	295.44
2042.01	296.321
2042.25	295.348
2042.5	290.691
2042.75	294.435
2042.99	293.572
2043.24	294.619
2043.48	302.207
2043.73	291.082
2043.98	305.072
2044.22	292.886
2044.47	291.833
2044.71	295.329
2044.96	293.654
2045.21	305.059
2045.45	297.912
2045.7	297.481
2045.94	300.216
2046.19	300.828
2046.43	299.659
2046.68	306.15
2046.93	293.027
2047.17	297.484
2047.42	298.307
2047.66	308.563
2047.91	291.799
2048.15	297.412
2048.4	300.239
2048.65	293.786
2048.89	294.781
2049.14	299.528
2049.38	296.835
2049.63	298.793
2049.87	289.538
2050.12	298.936
2050.36	297.091
2050.61	300.817
2050.85	292.358
2051.1	289.476
2051.35	300.66
2051.59	297.865
2051.84	300.705
2052.08	303.529
2052.33	293.287
2052.57	291.465
2052.82	296.195
2053.07	302.81
2053.31	295.469
2053.56	301.153
2053.8	298.393
2054.05	293.733
2054.29	296.536
2054.54	294.652
2054.78	297.444
2055.03	293.635
2055.27	300.14
2055.52	296.386
2055.77	297.295
2056.01	293.523
2056.26	294.436
2056.5	298.17
2056.75	289.77
2056.99	297.27
2057.24	295.436
2057.48	297.356
2057.73	293.654
2057.97	297.472
2058.22	303.156
2058.46	303.224
2058.71	305.153
2058.95	308.919
2059.2	293.02
2059.44	290.232
2059.69	307.982
2059.94	296.71
2060.18	305.081
2060.43	297.628
2060.67	290.186
2060.91	318.308
2061.16	306.155
2061.4	293.991
2061.65	291.191
2061.9	296.83
2062.14	305.289
2062.39	303.458
2062.63	299.767
2062.88	291.39
2063.12	302.677
2063.37	295.217
2063.61	298.056
2063.86	292.458
2064.1	299.051
2064.34	288.784
2064.59	298.221
2064.84	292.688
2065.08	294.65
2065.33	291.91
2065.57	303.24
2065.82	297.654
2066.06	292.041
2066.31	297.697
2066.55	302.437
2066.8	298.705
2067.04	300.622
2067.28	299.733
2067.53	296.021
2067.77	289.477
2068.02	298.899
2068.26	292.354
2068.51	298.018
2068.75	297.041
2069	296.026
2069.24	301.542
2069.49	302.402
2069.73	299.603
2069.98	302.526
2070.22	300.804
2070.47	284.033
2070.71	305.694
2070.96	301.845
2071.2	293.609
2071.45	321.131
2071.69	306.999
2071.93	304.149
2072.18	306.963
2072.42	299.409
2072.67	301.286
2072.91	305.983
2073.16	306.931
2073.4	299.412
2073.65	298.488
2073.89	306.995
2074.14	309.875
2074.38	302.419
2074.63	301.578
2074.87	310.195
2075.11	299.982
2075.36	294.442
2075.6	290.733
2075.85	296.416
2076.09	303.981
2076.34	309.623
2076.58	295.408
2076.83	296.287
2077.07	292.386
2077.31	297.991
2077.56	299.901
2077.8	297.136
2078.05	303.774
2078.29	301.914
2078.54	296.294
2078.78	303.905
2079.02	304.998
2079.27	304.127
2079.51	308.906
2079.76	312.738
2080	296.722
2080.25	296.737
2080.49	292.927
2080.73	300.463
2080.98	303.287
2081.22	296.676
2081.47	300.435
2081.71	306.129
2081.96	297.651
2082.2	300.506
2082.44	306.186
2082.69	299.569
2082.93	306.173
2083.18	306.159
2083.42	302.378
2083.66	302.387
2083.91	300.493
2084.15	301.442
2084.4	313.739
2084.64	298.625
2084.88	296.733
2085.13	292.013
2085.37	306.196
2085.62	300.598
2085.86	302.588
2086.11	310.242
2086.35	316.897
2086.59	294.228
2086.84	302.793
2087.08	307.568
2087.33	299.053
2087.57	301.898
2087.81	299.067
2088.06	300.027
2088.3	302.884
2088.55	301.954
2088.79	306.728
2089.03	295.421
2089.28	302.123
2089.52	295.539
2089.76	312.606
2090.01	296.524
2090.25	301.289
2090.5	302.27
2090.74	299.463
2090.98	296.653
2091.23	297.669
2091.47	302.5
2091.71	302.598
2091.96	299.851
2092.2	303.753
2092.44	304.793
2092.69	302.973
2092.93	298.303
2093.18	299.329
2093.42	303.198
2093.66	299.455
2093.91	305.187
2094.15	308.044
2094.4	290.92
2094.64	307.062
2094.88	301.314
2095.13	308.863
2095.37	304.065
2095.61	299.279
2095.86	301.155
2096.1	296.392
2096.34	294.482
2096.59	306.796
2096.83	297.242
2097.07	294.333
2097.32	291.455
2097.56	294.286
2097.8	303.768
2098.05	298.029
2098.29	305.619
2098.54	306.564
2098.78	302.751
2099.02	307.481
2099.27	305.577
2099.51	299.885
2099.75	316.028
2099.99	304.657
2100.24	308.474
2100.48	298.11
2100.73	302.923
2100.97	305.816
2101.21	295.393
2101.46	300.146
2101.7	300.136
2101.94	303.941
2102.19	308.68
2102.43	303.887
2102.67	301.922
2102.91	296.183
2103.16	309.471
2103.4	299.007
2103.64	306.605
2103.89	301.879
2104.13	307.624
2104.38	305.774
2104.62	294.421
2104.86	303.02
2105.1	302.138
2105.35	310.76
2105.59	300.34
2105.83	308.93
2106.08	303.247
2106.32	299.455
2106.56	295.679
2106.81	307.111
2107.05	318.492
2107.29	303.227
2107.53	299.351
2107.78	313.517
2108.02	308.685
2108.26	307.66
2108.51	307.629
2108.75	300.988
2108.99	301.999
2109.24	307.786
2109.48	300.192
2109.72	298.294
2109.96	296.395
2110.21	301.144
2110.45	310.646
2110.69	304.945
2110.94	303.03
2111.18	299.193
2111.42	297.258
2111.66	299.14
2111.91	303.882
2112.15	305.806
2112.39	307.742
2112.64	305.877
2112.88	304.043
2113.12	314.571
2113.36	307.955
2113.61	313.653
2113.85	299.367
2114.09	299.357
2114.34	295.566
2114.58	302.231
2114.82	301.27
2115.06	307.897
2115.31	310.724
2115.55	303.098
2115.79	296.397
2116.03	303.934
2116.28	305.799
2116.52	307.682
2116.76	303.871
2117	299.13
2117.25	304.81
2117.49	297.168
2117.73	293.322
2117.98	303.691
2118.22	302.653
2118.46	307.322
2118.7	298.721
2118.95	299.606
2119.19	301.44
2119.43	296.645
2119.67	299.443
2119.92	304.159
2120.16	302.269
2120.4	299.469
2120.64	301.399
2120.89	308.095
2121.13	295.845
2121.37	303.502
2121.61	299.773
2121.85	304.576
2122.1	303.677
2122.34	298.975
2122.58	303.759
2122.82	299.041
2123.07	307.601
2123.31	298.091
2123.55	303.756
2123.79	299.913
2124.04	300.79
2124.28	304.472
2124.52	306.224
2124.76	303.24
2125.01	301.237
2125.25	299.248
2125.49	305.786
2125.73	300.024
2125.97	307.53
2126.22	300.842
2126.46	302.67
2126.7	299.763
2126.94	295.951
2127.18	297.826
2127.43	311.049
2127.67	297.781
2127.91	301.538
2128.15	295.867
2128.4	308.16
2128.64	299.645
2128.88	298.676
2129.12	296.764
2129.36	303.366
2129.61	298.627
2129.85	304.28
2130.09	302.369
2130.33	294.783
2130.57	300.417
2130.82	297.54
2131.06	299.383
2131.3	306.892
2131.54	301.195
2131.78	311.551
2132.03	302.999
2132.27	304.824
2132.51	297.242
2132.75	312.33
2132.99	300.076
2133.24	315.188
2133.48	317.082
2133.72	291.61
2133.96	301.065
2134.2	293.508
2134.45	297.275
2134.69	302.929
2134.93	307.635
2135.17	297.229
2135.41	302.843
2135.66	299.931
2135.9	294.176
2136.14	309.206
2136.38	305.436
2136.62	302.63
2136.86	299.806
2137.11	297.947
2137.35	304.608
2137.59	303.673
2137.83	305.475
2138.07	297.861
2138.31	302.598
2138.55	301.758
2138.8	297.121
2139.04	303.633
2139.28	304.422
2139.52	290.232
2139.76	294.898
2140.01	304.279
2140.25	299.536
2140.49	306.104
2140.73	295.721
2140.97	299.485
2141.21	306.978
2141.45	297.489
2141.7	297.454
2141.94	301.216
2142.18	297.497
2142.42	306.967
2142.66	298.69
2142.9	294.905
2143.14	302.752
2143.39	292.201
2143.63	295.103
2143.87	290.491
2144.11	300.001
2144.35	302.894
2144.59	299.951
2144.83	303.684
2145.08	299.948
2145.32	295.236
2145.56	300.854
2145.8	301.768
2146.04	296.104
2146.28	305.48
2146.52	306.39
2146.77	302.591
2147.01	305.369
2147.25	306.27
2147.49	309.994
2147.73	294.931
2147.97	295.836
2148.21	302.371
2148.45	303.265
2148.69	295.696
2148.94	294.689
2149.18	297.388
2149.42	295.434
2149.66	313.17
2149.9	297.165
2150.14	309.314
2150.38	299.93
2150.62	304.636
2150.87	295.312
2151.11	298.157
2151.35	302.894
2151.59	309.481
2151.83	301.091
2152.07	301.993
2152.31	306.64
2152.55	304.71
2152.79	292.469
2153.04	306.502
2153.28	304.603
2153.52	300.808
2153.76	305.424
2154	292.213
2154.24	299.576
2154.48	290.103
2154.72	303.056
2154.96	301.089
2155.2	303.799
2155.44	299.98
2155.69	300.852
2155.93	295.21
2156.17	299.867
2156.41	287.715
2156.65	296.12
2156.89	300.81
2157.13	293.375
2157.37	309.316
2157.61	300.964
2157.85	304.719
2158.09	304.72
2158.33	307.514
2158.58	300.012
2158.82	296.239
2159.06	294.324
2159.3	294.268
2159.54	296.064
2159.78	302.523
2160.02	307.123
2160.26	304.259
2160.5	297.686
2160.74	290.207
2160.98	293.915
2161.22	302.28
2161.46	300.4
2161.7	293.869
2161.94	305.066
2162.19	319.057
2162.43	295.715
2162.67	296.607
2162.91	298.439
2163.15	305.868
2163.39	303.039
2163.63	297.409
2163.87	293.628
2164.11	300.067
2164.35	296.286
2164.59	289.759
2164.83	299.116
2165.07	301.917
2165.31	288.876
2165.55	296.335
2165.79	286.991
2166.03	312.113
2166.27	296.234
2166.52	298.971
2166.75	299.854
2166.99	300.722
2167.24	294.119
2167.48	298.64
2167.72	294.78
2167.96	302.153
2168.2	290.984
2168.44	296.575
2168.68	292.892
2168.92	292.019
2169.16	290.238
2169.4	293.128
2169.64	305.343
2169.88	299.838
2170.12	299.873
2170.36	305.45
2170.6	300.742
2170.84	298.846
2171.08	303.398
2171.32	298.55
2171.56	292.84
2171.8	292.775
2172.04	298.298
2172.28	299.185
2172.52	297.312
2172.76	289.875
2173	290.8
2173.24	295.462
2173.48	314.083
2173.72	299.247
2173.96	304.84
2174.2	295.553
2174.44	296.482
2174.68	301.125
2174.92	299.249
2175.16	289.937
2175.4	295.502
2175.64	306.638
2175.88	313.12
2176.12	297.279
2176.36	299.113
2176.6	294.467
2176.84	292.617
2177.08	302.843
2177.32	303.765
2177.56	300.993
2177.8	297.26
2178.04	300.896
2178.28	301.755
2178.52	297.098
2178.76	297.113
2179	300.832
2179.24	296.195
2179.48	303.622
2179.72	296.194
2179.96	300.83
2180.2	300.813
2180.44	301.719
2180.68	305.426
2180.92	292.415
2181.16	301.664
2181.4	289.558
2181.64	304.398
2181.88	288.582
2182.12	299.686
2182.36	309.872
2182.6	296.825
2182.84	299.548
2183.08	292.965
2183.32	297.533
2183.56	298.414
2183.8	302.997
2184.04	297.42
2184.27	309.47
2184.51	298.383
2184.75	307.675
2184.99	295.649
2185.23	288.269
2185.47	292.023
2185.71	301.355
2185.95	297.691
2186.19	306.125
2186.43	296.012
2186.67	289.604
2186.91	295.262
2187.15	305.552
2187.39	300.938
2187.63	304.627
2187.87	300.862
2188.11	298.02
2188.35	307.239
2188.59	304.383
2188.83	298.734
2189.06	306.061
2189.3	297.617
2189.54	302.212
2189.78	305.898
2190.02	303.128
2190.26	304.07
2190.5	306.892
2190.74	306.888
2190.98	295.779
2191.22	295.803
2191.46	310.67
2191.7	298.641
2191.94	307.016
2192.18	294.984
2192.41	296.884
2192.66	292.303
2192.89	289.564
2193.13	304.48
2193.37	306.451
2193.61	299.178
2193.85	298.358
2194.09	300.28
2194.33	295.634
2194.57	304.889
2194.81	294.638
2195.05	303.888
2195.29	304.756
2195.52	295.385
2195.76	289.714
2196	298.899
2196.24	296.965
2196.48	289.483
2196.72	285.724
2196.96	291.246
2197.2	298.655
2197.44	301.453
2197.68	300.549
2197.91	295.049
2198.15	294.2
2198.39	305.425
2198.63	315.746
2198.87	293.551
2199.11	302.938
2199.35	310.479
2199.59	295.737
2199.83	306.134
2200.06	302.562
2200.3	330.632
2200.54	295.338
2200.78	305.664
2201.02	297.205
2201.26	293.206
2201.5	294.511
2201.74	298.651
2201.98	304.276
2202.22	306.673
2202.45	307.929
2202.69	295.746
2202.93	294.756
2203.17	297.52
2203.41	308.195
2203.65	304.937
2203.89	301.146
2204.13	303.123
2204.36	296.41
2204.6	298.933
2204.84	296.826
2205.08	292.911
2205.32	302.157
2205.56	297.5
2205.79	297.568
2206.03	300.416
2206.27	302.13
2206.51	307.722
2206.75	292.891
2206.99	295.735
2207.23	306.029
2207.47	294.002
2207.7	298.72
2207.94	295.061
2208.18	299.773
2208.42	297.027
2208.66	290.543
2208.9	297.085
2209.14	306.405
2209.37	299.877
2209.61	298.019
2209.85	291.538
2210.09	294.375
2210.33	299.083
2210.57	307.521
2210.8	303.841
2211.04	306.689
2211.28	306.752
2211.52	303.098
2211.76	300.345
2212	305.98
2212.23	303.164
2212.47	310.598
2212.71	306.835
2212.95	292.814
2213.19	292.748
2213.43	307.672
2213.66	303.067
2213.9	301.307
2214.14	301.456
2214.38	298.691
2214.62	303.388
2214.86	301.543
2215.09	301.56
2215.33	304.371
2215.57	303.442
2215.81	297.838
2216.05	299.699
2216.28	297.821
2216.52	305.277
2216.76	295.94
2217	300.619
2217.24	308.105
2217.48	303.441
2217.71	306.237
2217.95	308.116
2218.19	294.139
2218.43	302.585
2218.67	298.902
2218.9	311.106
2219.14	293.397
2219.38	295.298
2219.62	300.01
2219.86	289.731
2220.09	301.866
2220.33	309.334
2220.57	308.375
2220.81	299.904
2221.05	304.491
2221.28	302.555
2221.52	307.165
2221.76	291.253
2222	295.908
2222.24	303.393
2222.47	307.17
2222.71	298.815
2222.95	300.733
2223.19	307.341
2223.42	294.349
2223.66	307.529
2223.9	308.556
2224.14	300.22
2224.38	295.613
2224.61	302.229
2224.85	292.008
2225.09	303.327
2225.33	302.467
2225.57	300.658
2225.8	303.535
2226.04	301.716
2226.28	312.085
2226.52	306.528
2226.75	299.08
2226.99	297.246
2227.23	295.395
2227.47	307.586
2227.71	305.691
2227.94	298.168
2228.18	302.837
2228.42	297.196
2228.66	294.37
2228.89	303.742
2229.13	308.471
2229.37	301.986
2229.61	304.879
2229.84	310.569
2230.08	304.998
2230.32	295.676
2230.56	307.946
2230.79	298.628
2231.03	304.339
2231.27	306.283
2231.51	307.285
2231.74	304.528
2231.98	308.351
2232.22	299.949
2232.46	304.71
2232.69	308.531
2232.93	305.767
2233.17	302.062
2233.41	294.581
2233.64	305.913
2233.88	301.203
2234.12	302.121
2234.36	307.736
2234.59	301.099
2234.83	307.589
2235.07	309.384
2235.3	306.554
2235.54	301.868
2235.78	315.052
2236.02	300.964
2236.25	308.504
2236.49	300.996
2236.73	300.118
2236.96	307.714
2237.2	304.059
2237.44	297.595
2237.68	296.772
2237.91	316.653
2238.15	297.886
2238.39	297.977
2238.63	300.915
2238.86	300.016
2239.1	304.716
2239.34	307.505
2239.57	298.948
2239.81	308.29
2240.05	298.827
2240.28	311.161
2240.52	305.668
2240.76	317.012
2241	301.937
2241.23	301.018
2241.47	307.648
2241.71	303.898
2241.95	303.934
2242.18	305.86
2242.42	304.936
2242.66	304.925
2242.89	299.232
2243.13	319.004
2243.37	308.596
2243.6	299.15
2243.84	301.988
2244.08	298.253
2244.31	300.223
2244.55	295.621
2244.79	297.627
2245.02	307.159
2245.26	302.494
2245.5	301.615
2245.74	307.354
2245.97	312.14
2246.21	307.449
2246.45	313.168
2246.68	300.919
2246.92	301.901
2247.16	306.653
2247.39	304.761
2247.63	300.017
2247.87	302.839
2248.1	298.091
2248.34	301.861
2248.58	298.061
2248.81	299.941
2249.05	315.12
2249.29	310.44
2249.52	314.231
2249.76	300.951
2250	299.005
2250.23	305.567
2250.47	305.498
2250.71	298.819
2250.94	306.34
2251.18	304.427
2251.42	312.945
2251.65	297.849
2251.89	308.298
2252.13	303.63
2252.36	310.345
2252.6	302.929
2252.84	304.011
2253.07	295.579
2253.31	295.655
2253.54	298.558
2253.78	318.525
2254.02	300.561
2254.25	305.317
2254.49	305.296
2254.73	304.353
2254.96	314.792
2255.2	310.061
2255.44	314.819
2255.67	307.278
2255.91	296.905
2256.15	292.216
2256.38	308.398
2256.62	303.707
2256.86	300.911
2257.09	317.101
2257.33	307.646
2257.56	307.669
2257.8	304.836
2258.04	301.058
2258.27	298.238
2258.51	314.429
2258.75	294.527
2258.98	304.063
2259.22	305.041
2259.45	305.077
2259.69	310.815
2259.93	310.849
2260.16	307.078
2260.4	312.829
2260.63	300.556
2260.87	313.95
2261.11	297.802
2261.34	299.724
2261.58	301.653
2261.82	303.585
2262.05	300.771
2262.29	297.977
2262.52	309.473
2262.76	309.555
2263	305.839
2263.23	302.134
2263.47	310.836
2263.7	308.096
2263.94	308.208
2264.18	302.578
2264.41	296.927
2264.65	306.543
2264.88	304.691
2265.12	300.892
2265.36	306.637
2265.59	310.443
2265.83	300.834
2266.06	303.63
2266.3	298.784
2266.54	307.307
2266.77	298.667
2267.01	294.807
2267.24	303.348
2267.48	301.378
2267.72	303.233
2267.95	303.21
2268.19	304.17
2268.42	302.301
2268.66	306.179
2268.9	308.169
2269.13	306.349
2269.37	299.761
2269.6	310.37
2269.84	314.295
2270.07	306.721
2270.31	300.075
2270.55	303.963
2270.78	315.495
2271.02	301.197
2271.25	307.935
2271.49	311.822
2271.72	304.209
2271.96	309.003
2272.19	304.235
2272.43	309.037
2272.67	307.144
2272.9	303.335
2273.14	311.01
2273.37	308.158
2273.61	302.434
2273.84	312.978
2274.08	308.211
2274.32	292.915
2274.55	307.294
2274.79	294.871
2275.02	310.214
2275.26	303.503
2275.49	317.905
2275.73	302.656
2275.96	308.483
2276.2	303.764
2276.44	305.745
2276.67	304.854
2276.91	304.953
2277.14	309.865
2277.38	304.229
2277.61	307.251
2277.85	301.548
2278.08	305.419
2278.32	299.665
2278.55	300.618
2278.79	310.208
2279.02	306.328
2279.26	302.351
2279.49	309.936
2279.73	296.422
2279.97	304.025
2280.2	298.211
2280.44	307.754
2280.67	302.932
2280.91	297.145
2281.14	308.609
2281.38	304.81
2281.61	303.873
2281.85	303.916
2282.08	311.648
2282.32	311.724
2282.55	307
2282.79	306.125
2283.02	301.442
2283.26	299.669
2283.49	294.029
2283.73	307.638
2283.96	307.737
2284.2	301.999
2284.43	303.993
2284.67	294.452
2284.9	310.837
2285.14	300.275
2285.37	303.116
2285.61	295.285
2285.84	307.774
2286.08	299.141
2286.31	303.019
2286.55	309.903
2286.78	300.414
2287.02	305.284
2287.25	303.376
2287.49	299.632
2287.73	301.544
2287.96	313.059
2288.19	303.383
2288.43	305.264
2288.66	309.029
2288.9	308.909
2289.13	303.043
2289.37	318.283
2289.6	313.432
2289.84	312.432
2290.07	310.514
2290.31	304.747
2290.54	309.595
2290.78	309.673
2291.01	295.354
2291.25	307.939
2291.48	298.37
2291.72	309.976
2291.95	302.332
2292.19	297.591
2292.42	295.736
2292.66	308.318
2292.89	309.332
2293.13	319.972
2293.36	299.762
2293.59	303.599
2293.83	302.602
2294.06	298.707
2294.3	301.538
2294.53	298.607
2294.77	307.235
2295	302.379
2295.24	296.559
2295.47	305.19
2295.71	306.106
2295.94	300.185
2296.18	306.894
2296.41	301.146
2296.64	292.528
2296.88	298.357
2297.11	305.164
2297.35	299.468
2297.58	303.433
2297.82	302.546
2298.05	304.517
2298.29	299.755
2298.52	298.873
2298.76	297.979
2298.99	316.361
2299.22	303.866
2299.46	311.576
2299.69	297.117
2299.93	303.855
2300.16	313.533
2300.4	302.015
2300.63	303.986
2300.86	303.06
2301.1	305.016
2301.33	297.306
2301.57	323.364
2301.8	305.001
2302.04	304.008
2302.27	303.054
2302.5	310.774
2302.74	299.175
2302.97	309.786
2303.21	296.279
2303.44	307.887
2303.68	296.357
2303.91	312.824
2304.14	301.274
2304.38	298.418
2304.61	308.138
2304.85	292.726
2305.08	311.097
2305.32	310.157
2305.55	301.498
2305.78	301.545
2306.02	297.694
2306.25	303.504
2306.49	302.536
2306.72	310.263
2306.96	302.509
2307.19	308.267
2307.42	292.784
2307.66	309.189
2307.89	299.494
2308.12	302.396
2308.36	303.369
2308.59	309.213
2308.83	302.502
2309.06	305.471
2309.29	294.937
2309.53	298.88
2309.76	299.884
2310	305.701
2310.23	305.698
2310.46	300.835
2310.7	303.679
2310.93	303.535
2311.17	302.344
2311.4	309.963
2311.63	299.254
2311.87	302.11
2312.1	303.023
2312.33	308.769
2312.57	300.074
2312.8	303.964
2313.04	303.079
2313.27	309.968
2313.5	302.336
2313.74	303.392
2313.97	297.69
2314.2	301.662
2314.44	305.652
2314.67	306.677
2314.91	304.692
2315.14	300.739
2315.38	302.612
2315.61	304.47
2315.84	303.356
2316.08	296.486
2316.31	305.133
2316.54	299.327
2316.78	312.86
2317.01	298.395
2317.24	311.02
2317.48	298.529
2317.71	303.29
2317.95	306.116
2318.18	298.357
2318.41	300.242
2318.65	298.263
2318.88	298.219
2319.11	304.94
2319.34	301.057
2319.58	308.774
2319.81	310.714
2320.05	308.786
2320.28	311.705
2320.51	307.892
2320.75	307.944
2320.98	303.175
2321.21	309.036
2321.45	309.122
2321.68	316.951
2321.91	313.174
2322.15	318.052
2322.38	317.08
2322.61	317.088
2322.85	322.915
2323.08	315.202
2323.31	311.357
2323.55	313.305
2323.78	321.034
2324.01	326.821
2324.25	321.923
2324.48	331.49
2324.71	322.68
2324.95	336.118
2325.18	348.606
2325.41	334.056
2325.65	331.093
2325.88	361.905
2326.11	375.336
2326.35	377.184
2326.58	396.393
2326.81	384.734
2327.05	405.881
2327.28	484.86
2327.51	549.375
2327.75	642.878
2327.98	786.513
2328.21	956.173
2328.45	1076.5
2328.68	999.198
2328.91	820.74
2329.14	613.545
2329.38	517.206
2329.61	448.867
2329.84	420.928
2330.08	386.217
2330.31	348.625
2330.54	333.201
2330.77	335.145
2331.01	330.376
2331.24	334.286
2331.47	310.275
2331.71	319.861
2331.94	319.784
2332.17	322.627
2332.41	306.214
2332.64	305.211
2332.87	302.284
2333.11	308.989
2333.34	303.185
2333.57	304.11
2333.8	308.872
2334.04	298.216
2334.27	310.667
2334.5	305.825
2334.73	301.965
2334.97	295.22
2335.2	302.919
2335.43	308.712
2335.67	298.131
2335.9	307.72
2336.13	307.698
2336.36	301.916
2336.6	303.828
2336.83	308.622
2337.06	295.15
2337.29	303.781
2337.53	302.798
2337.76	308.551
2337.99	298.926
2338.23	307.567
2338.46	301.809
2338.69	301.819
2338.92	296.054
2339.16	299.892
2339.39	306.599
2339.62	308.487
2339.85	304.594
2340.09	308.385
2340.32	309.281
2340.55	295.755
2340.78	303.342
2341.02	302.27
2341.25	299.299
2341.48	309.79
2341.71	300.149
2341.95	303.939
2342.18	306.779
2342.41	300.048
2342.64	303.876
2342.88	301.003
2343.11	300.035
2343.34	299.065
2343.57	314.403
2343.81	301.961
2344.04	325.943
2344.27	297.179
2344.5	303.873
2344.74	301.927
2344.97	292.298
2345.2	300.851
2345.43	305.58
2345.67	300.736
2345.9	307.411
2346.13	300.692
2346.36	302.593
2346.59	306.399
2346.83	296.801
2347.06	295.835
2347.29	299.671
2347.52	292.029
2347.76	298.765
2347.99	292.09
2348.22	303.587
2348.45	295.904
2348.68	298.731
2348.92	307.234
2349.15	294.664
2349.38	299.301
2349.61	293.393
2349.85	295.097
2350.08	295.698
2350.31	296.063
2350.54	307.736
2350.77	305.854
2351.01	303.465
2351.24	294.411
2351.47	293.043
2351.7	300.645
2351.93	297.827
2352.17	295.78
2352.4	306.961
2352.63	301.966
2352.86	303.893
2353.09	304.849
2353.33	312.414
2353.56	296.214
2353.79	303.828
2354.02	291.5
2354.25	303.978
2354.49	296.349
2354.72	302.05
2354.95	302.977
2355.18	293.423
2355.41	293.391
2355.65	300.014
2355.88	297.074
2356.11	303.593
2356.34	299.66
2356.57	297.695
2356.8	299.546
2357.04	287.137
2357.27	296.6
2357.5	296.56
2357.73	289.869
2357.96	310.768
2358.2	297.392
2358.43	300.211
2358.66	296.388
2358.89	292.576
2359.12	299.193
2359.35	300.095
2359.59	297.183
2359.82	295.216
2360.05	297.046
2360.28	292.234
2360.51	291.218
2360.75	298.734
2360.98	290.128
2361.21	298.586
2361.44	297.562
2361.67	297.479
2361.9	296.451
2362.13	297.33
2362.37	293.482
2362.6	302.895
2362.83	297.168
2363.06	298.079
2363.29	294.262
2363.52	304.636
2363.76	294.187
2363.99	290.363
2364.22	299.77
2364.45	295.021
2364.68	295.905
2364.91	299.643
