#Acq. time (s)=	60
#Accumulations=	4
#Range (cm-¹)=	100...4000
#Windows=	1
#Auto scanning=	Off
#Autofocus=	Off
#Macrospot=	Off
#AutoExposure=	Off
#Spike filter=	Multiple accum.
#Delay time (s)=	2
#Binning=	1
#Readout mode=	Signal
#DeNoise=	Off
#ICS correction=	On
#Dark correction=	Off
#Inst. Process=	Off
#Detector Gain=	Best Dynamic
#Detector ADC=	50 kHz HS
#Detector temperature (°C)=	-60.09
#Instrument=	LabRAM HR Evol
#Detector=	SIN-EM FIVIS
#Objective=	x100_VIS_LWD
#Grating=	150 (500nm)
#ND Filter=	100%
#Laser=	633nm_Edge
#Hole=	30.0125
#Temperature=	39.9
#Range=	Visible
#StageXY=	75x50mm Scan+
#StageZ=	Z motor
#X (µm)=	0
#Y (µm)=	0
#Z (µm)=	470.9
#Full time(mm:ss)=	4:05
#Project=	21_08_11
#Sample=	BU20
#Site=	
#Title=	BU20-B-FF4-FI02-L_150 (500nm)_633nm_Edge_100%_x100_VIS_LWD_H30um_60sX4
#Remark=	
#Date=	13.08.2021 11:55
#Acquired=	13.08.2021 11:55:24
100.12	450.993
103.379	421.906
106.638	406.836
109.896	382.87
113.152	382.742
116.407	377.827
119.66	346.728
122.912	346.866
126.162	328.477
129.412	334.012
132.659	300.266
135.906	308.922
139.151	297.751
142.396	300.632
145.637	286.955
148.878	294.634
152.118	275.221
155.356	256.469
158.594	243.445
161.829	232.662
165.064	236.565
168.297	248.754
171.529	239.833
174.759	225.126
177.989	214.218
181.216	212.558
184.441	212.757
187.667	204.327
190.89	204.154
194.114	202.083
197.334	193.665
200.553	184.354
203.772	181.495
206.989	180.513
210.205	184.61
213.419	167.401
216.631	165.466
219.844	167.336
223.054	169.196
226.262	174.199
229.471	179.135
232.677	202.814
235.881	246.769
239.086	288.157
242.288	326.662
245.488	288.65
248.689	239.195
251.887	211.902
255.083	196.637
258.28	200.385
261.474	196.231
264.667	208.21
267.858	211.661
271.05	228.403
274.238	241.991
277.426	258.116
280.613	300.762
283.798	364.86
286.982	393.21
290.164	403.184
293.346	352.489
296.526	295.538
299.704	235.797
302.881	195.015
306.058	176.638
309.233	161.121
312.406	167.662
315.577	154.689
318.749	160.919
321.918	167.182
325.086	208.671
328.253	266.81
331.418	331.884
334.584	328.706
337.746	257.621
340.908	213.272
344.068	181.186
347.227	154.116
350.384	148.743
353.542	150.258
356.697	161.18
359.851	168.634
363.003	173.566
366.154	194.474
369.304	209.412
372.452	213.379
375.601	192.604
378.747	176.244
381.892	157.396
385.035	142.361
388.177	127.07
391.318	127.438
394.457	118.134
397.596	114.475
400.733	119.327
403.868	109.716
407.004	112.978
410.137	114.667
413.269	116.023
416.4	120.185
419.529	119.021
422.657	129.47
425.784	133.868
428.91	140.03
432.034	158.123
435.157	182.769
438.279	211.426
441.399	224.652
444.518	240.016
447.636	243.114
450.753	237.126
453.868	232.12
456.982	221.865
460.095	214.172
463.207	203.756
466.317	189.686
469.426	160.713
472.534	147.016
475.64	131.494
478.746	121.89
481.85	120.343
484.952	112.274
488.054	115.385
491.154	107.319
494.253	112.307
497.351	106.722
500.447	102.699
503.541	109.877
506.635	104.306
509.728	101.849
512.819	106.244
515.91	102.554
518.999	108.848
522.086	100.834
525.173	102.486
528.258	101.972
531.342	96.4703
534.423	102.555
537.505	93.2893
540.585	99.6713
543.664	99.7676
546.742	94.8094
549.819	96.4052
552.894	94.2506
555.966	96.4841
559.039	100.874
562.111	98.2912
565.181	98.8445
568.25	98.4245
571.317	92.6529
574.383	98.4609
577.449	91.7319
580.513	96.5766
583.576	90.8398
586.636	97.883
589.697	104.003
592.756	111.708
595.814	131.834
598.871	148.903
601.925	199.928
604.979	235.834
608.032	218.593
611.084	182.369
614.133	168.225
617.183	159.423
620.231	167.155
623.277	162.419
626.322	162.396
629.367	177.65
632.41	180.915
635.451	183.784
638.492	177.144
641.532	166.052
644.569	151.124
647.606	151.646
650.642	148.699
653.675	154.463
656.709	164.259
659.741	179.023
662.771	181.271
665.801	193.19
668.829	177.403
671.856	157.716
674.882	137.246
677.907	119.212
680.929	104.288
683.952	97.4888
686.972	89.7635
689.992	81.1281
693.011	79.9722
696.028	80.6879
699.045	73.9024
702.059	72.4155
705.073	72.7984
708.086	68.4684
711.096	67.8755
714.107	67.2104
717.115	66.5692
720.123	65.2891
723.129	64.6533
726.135	66.4888
729.139	61.7417
732.141	66.3715
735.143	61.9432
738.143	65.3159
741.143	61.2104
744.14	64.8956
747.138	62.3655
750.133	60.4622
753.128	65.7337
756.12	61.3614
759.113	60.7631
762.103	58.6367
765.093	58.086
768.081	62.8478
771.069	63.2491
774.054	58.338
777.04	54.968
780.023	59.1025
783.005	60.4069
785.987	58.5624
788.966	58.91
791.946	59.2493
794.923	58.3194
797.9	59.5789
800.875	56.7345
803.848	62.3666
806.822	54.7945
809.793	59.1568
812.765	55.0289
815.733	61.2389
818.701	58.9794
821.669	60.1602
824.634	57.5884
827.6	58.1391
830.563	60.5787
833.525	58.0763
836.487	60.5736
839.446	63.723
842.404	61.6089
845.363	62.9053
848.319	61.0928
851.273	62.0997
854.228	61.2347
857.181	59.4323
860.132	61.0838
863.083	59.5955
866.032	58.7331
868.98	64.4898
871.927	60.7716
874.874	68.0833
877.818	69.6974
880.761	70.9924
883.704	70.6944
886.645	66.5859
889.585	70.3733
892.523	70.9872
895.462	67.8008
898.398	67.4333
901.333	65.7801
904.267	63.1792
907.2	64.99
910.133	59.5586
913.063	65.4451
915.992	58.7796
918.92	63.7505
921.849	63.7173
924.774	68.7227
927.699	65.287
930.622	74.1105
933.545	71.3292
936.466	78.6417
939.387	86.9537
942.306	95.6188
945.224	98.3207
948.141	110.857
951.056	124.072
953.97	135.099
956.884	157.913
959.797	162.287
962.708	163.78
965.617	168.416
968.526	174.343
971.434	176.067
974.34	183.188
977.245	217.756
980.149	229.494
983.052	266.111
985.955	301.681
988.856	367.813
991.755	409.896
994.654	452.516
997.551	420.945
1000.45	378.661
1003.34	322.804
1006.24	293.131
1009.13	280.069
1012.02	275.114
1014.91	271.117
1017.8	280.142
1020.69	307.999
1023.57	337.605
1026.46	381.072
1029.35	409.34
1032.23	419.468
1035.11	357.622
1037.99	287.283
1040.87	231.5
1043.75	180.044
1046.63	166.477
1049.51	150.871
1052.38	138.436
1055.26	122.076
1058.13	125.403
1061	113.484
1063.88	105.091
1066.74	107.976
1069.61	105.048
1072.48	101.795
1075.35	98.5311
1078.21	116.926
1081.08	120.75
1083.94	146.867
1086.8	156.164
1089.67	151.929
1092.53	143.164
1095.38	145.384
1098.24	164.363
1101.1	181.406
1103.95	200.082
1106.81	185.021
1109.66	148.888
1112.51	121.887
1115.36	102.036
1118.22	89.9028
1121.06	88.4023
1123.91	81.3563
1126.76	76.5665
1129.6	70.4818
1132.45	68.2866
1135.29	77.5134
1138.13	83.1593
1140.98	92.4312
1143.81	100.386
1146.65	107.006
1149.49	104.144
1152.33	114.695
1155.16	130.466
1158	150.789
1160.83	151.051
1163.66	118.129
1166.49	91.5024
1169.32	74.0828
1172.15	68.7834
1174.98	65.776
1177.81	62.7704
1180.63	64.0212
1183.46	60.396
1186.28	57.4549
1189.1	59.4099
1191.93	52.9051
1194.75	49.0305
1197.56	49.7137
1200.38	46.5073
1203.2	51.8108
1206.02	44.0388
1208.83	44.4516
1211.64	46.5048
1214.46	42.6514
1217.27	47.3684
1220.08	43.1788
1222.89	43.9469
1225.69	42.0582
1228.5	42.1573
1231.31	40.2452
1234.11	40.6589
1236.92	43.0785
1239.72	37.4362
1242.52	43.865
1245.32	44.9121
1248.12	43.9288
1250.92	42.2567
1253.72	37.8905
1256.51	43.608
1259.31	45.6093
1262.1	42.212
1264.89	41.5114
1267.69	44.172
1270.48	48.1625
1273.27	47.1067
1276.05	40.6933
1278.84	44.3265
1281.63	43.6097
1284.41	44.9045
1287.2	42.8673
1289.98	42.5057
1292.76	45.817
1295.55	41.8091
1298.33	43.1381
1301.1	44.1377
1303.88	40.1562
1306.66	42.8516
1309.43	44.5645
1312.21	38.2798
1314.98	38.3394
1317.76	39.0725
1320.53	36.4528
1323.3	41.5693
1326.07	39.2917
1328.84	34.3018
1331.6	38.7739
1334.37	39.5215
1337.13	37.2113
1339.9	34.2072
1342.66	37.3163
1345.42	35.3095
1348.18	39.4417
1350.94	35.3767
1353.7	40.1947
1356.46	36.1128
1359.22	33.0481
1361.97	38.882
1364.73	36.487
1367.48	36.826
1370.23	39.2176
1372.98	41.9488
1375.73	39.5454
1378.48	46.3839
1381.23	46.0314
1383.98	53.5478
1386.72	48.0618
1389.47	41.2104
1392.21	39.5015
1394.95	41.2198
1397.7	35.0938
1400.44	36.8301
1403.18	36.17
1405.92	37.571
1408.65	33.1391
1411.39	33.8578
1414.13	35.6134
1416.86	33.5874
1419.59	32.9352
1422.32	36.0825
1425.06	34.0547
1427.79	30.6358
1430.52	30.3301
1433.24	34.5333
1435.97	32.8395
1438.7	31.8368
1441.42	32.9179
1444.15	36.4515
1446.87	32.6514
1449.59	32.33
1452.31	33.399
1455.03	33.0652
1457.75	31.6737
1460.47	33.0779
1463.19	33.4274
1465.9	33.7738
1468.62	29.5692
1471.33	32.3644
1474.04	33.4115
1476.75	30.2645
1479.46	32.721
1482.17	34.4779
1484.88	28.5369
1487.59	32.7535
1490.3	31.3707
1493	30.6916
1495.7	33.1767
1498.41	32.855
1501.11	29.7238
1503.81	30.8126
1506.51	31.202
1509.21	31.2444
1511.91	31.9943
1514.61	30.2729
1517.3	31.385
1520	33.9245
1522.69	32.202
1525.39	29.7652
1528.08	30.8861
1530.77	34.5195
1533.46	30.6451
1536.15	31.057
1538.83	33.2569
1541.52	31.1427
1544.21	31.8929
1546.89	30.4658
1549.58	32.2731
1552.26	33.3489
1554.94	32.9687
1557.62	31.5042
1560.3	34.3677
1562.98	35.071
1565.66	33.9746
1568.33	33.238
1571.01	32.8609
1573.69	31.4085
1576.36	33.9084
1579.03	33.9079
1581.7	30.3202
1584.38	37.8593
1587.04	37.5071
1589.71	34.2856
1592.38	35.3765
1595.05	34.6761
1597.71	37.5762
1600.38	37.2424
1603.04	31.1535
1605.7	36.5923
1608.37	38.8041
1611.03	38.4982
1613.68	37.4769
1616.34	35.0061
1619	36.5279
1621.66	38.4192
1624.31	34.8437
1626.97	34.5437
1629.62	39.0032
1632.27	38.7061
1634.93	37.2952
1637.58	41.0229
1640.23	38.4646
1642.88	41.4409
1645.52	40.0001
1648.17	38.1828
1650.81	40.42
1653.46	35.6403
1656.1	40.4561
1658.75	39.7261
1661.39	35.6666
1664.03	39.7379
1666.67	37.1518
1669.31	36.044
1671.94	39.3714
1674.58	36.0445
1677.22	31.973
1679.85	31.6028
1682.48	34.1791
1685.12	34.902
1687.75	32.302
1690.38	31.1834
1693.01	33.7602
1695.64	31.5481
1698.26	33.4063
1700.89	32.7004
1703.52	30.5719
1706.14	32.4972
1708.77	29.2189
1711.39	30.6622
1714.01	32.519
1716.63	28.829
1719.25	30.3738
1721.87	28.1639
1724.49	27.0614
1727.1	32.3209
1729.72	28.614
1732.34	27.5206
1734.95	28.6726
1737.56	31.3262
1740.18	30.2298
1742.79	28.755
1745.4	31.7925
1748.01	29.1817
1750.61	29.2013
1753.22	27.7105
1755.83	30.7425
1758.43	24.7144
1761.04	23.9634
1763.64	28.4966
1766.24	26.993
1768.84	27.378
1771.44	25.8755
1774.04	26.2621
1776.64	24.3842
1779.24	26.6695
1781.84	29.3399
1784.43	25.5749
1787.02	25.9773
1789.62	26.3862
1792.21	30.5961
1794.8	32.9143
1797.39	26.4773
1799.98	28.4216
1802.57	28.0782
1805.16	31.1782
1807.75	30.8346
1810.33	25.8829
1812.92	30.9009
1815.5	28.2441
1818.08	28.2759
1820.67	29.0752
1823.25	29.1082
1825.83	27.2113
1828.41	28.7884
1830.98	28.4367
1833.56	26.9209
1836.14	26.1814
1838.71	28.1496
1841.29	28.9535
1843.86	26.2565
1846.43	27.8362
1849	30.5855
1851.58	26.3217
1854.14	28.6748
1856.71	29.0883
1859.28	28.331
1861.85	26.0125
1864.41	25.6455
1866.98	26.8509
1869.54	27.2684
1872.1	26.5044
1874.67	27.7004
1877.23	26.5398
1879.79	25.3746
1882.35	25.3905
1884.9	24.6143
1887.46	25.8086
1890.02	28.9643
1892.57	31.3298
1895.13	27.3893
1897.68	26.211
1900.23	28.586
1902.79	25.8464
1905.34	27.4516
1907.89	28.2692
1910.43	29.0988
1912.98	27.5583
1915.53	24.0315
1918.07	28.045
1920.62	27.2545
1923.16	28.4729
1925.71	29.2979
1928.25	26.9326
1930.79	26.1599
1933.33	28.1833
1935.87	23.8062
1938.41	30.6319
1940.94	28.2489
1943.48	23.8558
1946.02	27.4788
1948.55	25.8868
1951.08	26.2966
1953.62	30.3186
1956.15	28.7177
1958.68	29.1235
1961.21	31.1353
1963.74	27.9227
1966.27	29.1281
1968.79	26.311
1971.32	28.7136
1973.85	29.1065
1976.37	25.4865
1978.89	28.6896
1981.42	26.2742
1983.94	31.0794
1986.46	25.8599
1988.98	27.0574
1991.5	27.4535
1994.01	28.6521
1996.53	27.8485
1999.05	27.8487
2001.56	25.0454
2004.08	28.6563
2006.59	28.2635
2009.1	26.2669
2011.61	26.2786
2014.12	25.0848
2016.63	24.6938
2019.14	26.7076
2021.65	27.1184
2024.16	27.9367
2026.66	28.3565
2029.17	28.7793
2031.67	28.8042
2034.17	28.0258
2036.68	26.8414
2039.18	29.2917
2041.68	25.6813
2044.18	30.5662
2046.68	26.952
2049.17	27.7937
2051.67	24.5742
2054.17	29.466
2056.66	31.9378
2059.15	31.5661
2061.65	32.8246
2064.14	27.5546
2066.63	28.8126
2069.12	28.843
2071.61	27.2352
2074.1	26.4444
2076.59	26.8814
2079.07	30.1938
2081.56	30.2215
2084.04	26.1309
2086.53	28.6203
2089.01	32.3458
2091.49	27.0124
2093.97	27.0388
2096.46	22.9374
2098.94	28.3425
2101.41	28.7908
2103.89	27.9978
2106.37	26.7888
2108.84	30.5691
2111.32	28.531
2113.79	32.7467
2116.26	31.9621
2118.74	29.0827
2121.21	26.1936
2123.68	28.3313
2126.15	30.4743
2128.62	26.7287
2131.09	28.4504
2133.55	26.7981
2136.02	27.6751
2138.48	26.8605
2140.95	27.3134
2143.41	26.9191
2145.87	31.1885
2148.33	28.2425
2150.79	29.1126
2153.25	32.5339
2155.71	26.595
2158.17	25.7566
2160.63	24.9152
2163.08	27.9049
2165.54	28.7624
2167.99	25.7823
2170.45	27.9191
2172.9	26.2245
2175.35	27.9407
2177.8	26.6691
2180.25	31.3649
2182.7	28.8055
2185.15	28.3744
2187.59	28.375
2190.04	25.3915
2192.49	26.2518
2194.93	28.394
2197.38	29.6891
2199.82	28.4247
2202.26	29.3005
2204.7	24.1873
2207.14	25.4945
2209.58	25.9491
2212.02	29.8418
2214.46	32.4537
2216.89	26.038
2219.33	28.6564
2221.76	25.6728
2224.2	30.4577
2226.63	26.6033
2229.06	27.5034
2231.49	30.5741
2233.92	26.2707
2236.35	26.7387
2238.78	27.2077
2241.21	25.0621
2243.64	25.5307
2246.06	25.5637
2248.49	25.1589
2250.91	27.8191
2253.34	28.7302
2255.76	29.2048
2258.18	26.1653
2260.6	27.5197
2263.02	24.4663
2265.44	26.6982
2267.86	24.9565
2270.27	26.3034
2272.69	25.438
2275.11	28.9957
2277.52	23.6973
2279.94	27.6968
2282.35	27.2624
2284.76	25.4941
2287.17	24.6098
2289.58	24.6138
2291.99	29.052
2294.4	24.6192
2296.81	26.8426
2299.21	28.6285
2301.62	27.7525
2304.03	25.9918
2306.43	28.2353
2308.83	26.0351
2311.24	31.8535
2313.64	25.1979
2316.04	25.6747
2318.44	26.1552
2320.84	27.5311
2323.24	27.1166
2325.63	28.0513
2328.03	28.9882
2330.43	26.3282
2332.82	29.5234
2335.21	24.6029
2337.61	27.8066
2340	26.9447
2342.39	29.7122
2344.78	27.9458
2347.17	25.7237
2349.56	23.0312
2351.95	29.0106
2354.33	26.3113
2356.72	30.0135
2359.11	26.8418
2361.49	30.0788
2363.87	26.4339
2366.26	23.7017
2368.64	24.6488
2371.02	26.0581
2373.4	26.0843
2375.78	26.5723
2378.16	24.2861
2380.54	26.1555
2382.91	25.7102
2385.29	26.1854
2387.66	28.5156
2390.04	28.9886
2392.41	25.2824
2394.78	31.3181
2397.16	29.9255
2399.53	26.2135
2401.9	26.2141
2404.27	30.3855
2406.64	24.3528
2409	24.8224
2411.37	28.556
2413.73	23.4746
2416.1	26.3177
2418.46	26.3973
2420.83	22.7029
2423.19	24.1306
2425.55	26.9548
2427.91	24.1713
2430.27	27.0214
2432.63	25.1756
2434.99	23.7987
2437.35	25.2516
2439.7	26.7077
2442.06	24.8537
2444.41	29.1575
2446.77	23.9782
2449.12	24.49
2451.47	25.0033
2453.83	26.9471
2456.18	26.0308
2458.53	26.0692
2460.88	27.5437
2463.22	26.6246
2465.57	27.6227
2467.92	27.6602
2470.26	26.7329
2472.61	28.2131
2474.95	26.3177
2477.3	26.8366
2479.64	29.2926
2481.98	23.9963
2484.32	26.4511
2486.66	26.9642
2489	26.9924
2491.34	26.0458
2493.67	26.0721
2496.01	40.2488
2498.35	27.5916
2500.68	26.1516
2503.02	25.1971
2505.35	25.7086
2507.68	23.7691
2510.01	26.2391
2512.34	28.2201
2514.67	27.2555
2517	27.2722
2519.33	25.8175
2521.66	22.886
2523.99	26.3522
2526.31	30.3147
2528.64	29.3516
2530.96	27.8927
2533.28	26.9293
2535.61	23.9871
2537.93	26.486
2540.25	26.5129
2542.57	25.0519
2544.89	29.0508
2547.21	22.6211
2549.53	26.6273
2551.84	31.6396
2554.16	27.6833
2556.47	26.7104
2558.79	26.7338
2561.1	26.2628
2563.42	28.2946
2565.73	22.8146
2568.04	24.8511
2570.35	23.8788
2572.66	30.4541
2574.97	26.4606
2577.27	29.5196
2579.58	26.0151
2581.89	26.0399
2584.19	25.5518
2586.5	30.6316
2588.8	26.5953
2591.1	27.1076
2593.41	24.0812
2595.71	24.0975
2598.01	28.1808
2600.31	27.6928
2602.61	29.2363
2604.91	29.2541
2607.2	29.2707
2609.5	28.778
2611.8	24.2019
2614.09	26.2505
2616.38	24.7308
2618.68	25.2532
2620.97	26.2842
2623.26	27.8286
2625.55	24.2677
2627.84	27.3491
2630.13	27.3724
2632.42	23.8162
2634.71	29.4849
2637	25.9322
2639.28	28.5464
2641.57	28.5899
2643.85	25.5403
2646.14	26.6172
2648.42	27.6931
2650.7	26.1804
2652.98	25.7027
2655.26	23.6501
2657.54	28.3537
2659.82	22.6501
2662.1	26.315
2664.38	28.4178
2666.65	29.999
2668.93	28.981
2671.2	27.4389
2673.48	24.3336
2675.75	25.4203
2678.02	26.5274
2680.29	27.1254
2682.57	29.2987
2684.84	25.1324
2687.1	28.3717
2689.37	26.84
2691.64	26.8909
2693.91	26.9413
2696.17	26.4209
2698.44	23.7781
2700.7	29.1543
2702.97	26.5069
2705.23	24.3881
2707.49	27.0938
2709.76	26.0435
2712.02	27.6778
2714.28	25.5521
2716.53	23.4301
2718.79	30.4597
2721.05	27.7918
2723.31	27.276
2725.56	27.2945
2727.82	27.8532
2730.07	27.3271
2732.33	25.7122
2734.58	25.1832
2736.83	24.108
2739.08	24.1151
2741.33	26.8404
2743.58	28.4842
2745.83	25.7897
2748.08	29.0709
2750.33	25.2926
2752.57	25.3369
2754.82	24.2776
2757.06	30.3094
2759.31	26.5087
2761.55	28.1664
2763.79	24.3596
2766.04	23.8358
2768.28	30.9917
2770.52	25.5274
2772.76	26.6532
2775	30.5359
2777.23	24.5168
2779.47	28.4125
2781.71	29.015
2783.94	27.9556
2786.18	24.6765
2788.41	28.0501
2790.65	28.0954
2792.88	29.2538
2795.11	25.9498
2797.34	29.3366
2799.57	25.4587
2801.8	26.6094
2804.03	28.3213
2806.26	26.6661
2808.48	31.1876
2810.71	26.1545
2812.94	26.7407
2815.16	26.1965
2817.38	23.3969
2819.61	29.0571
2821.83	27.9509
2824.05	26.8444
2826.27	25.7361
2828.49	28.5871
2830.71	25.21
2832.93	30.8977
2835.15	31.486
2837.37	26.3989
2839.58	24.1453
2841.8	29.2798
2844.01	30.4402
2846.23	29.3289
2848.44	28.7853
2850.65	30.5256
2852.87	28.2757
2855.08	32.3148
2857.29	31.2103
2859.5	28.3816
2861.71	23.8272
2863.91	26.7373
2866.12	26.2038
2868.33	26.8219
2870.53	27.4411
2872.74	30.3758
2874.94	24.0488
2877.15	31.0519
2879.35	27.0337
2881.55	31.1568
2883.75	27.7119
2885.95	27.7627
2888.15	28.9821
2890.35	30.7907
2892.55	30.2544
2894.75	27.9506
2896.94	28.0032
2899.14	32.1908
2901.33	26.3316
2903.53	39.4114
2905.72	31.1617
2907.91	26.4527
2910.11	31.2532
2912.3	28.9049
2914.49	34.9036
2916.68	28.371
2918.87	27.2097
2921.05	29.6385
2923.24	28.4766
2925.43	31.5178
2927.61	31.5636
2929.8	28.5994
2931.99	28.0396
2934.17	35.3207
2936.35	29.317
2938.53	31.7665
2940.72	27.5559
2942.9	30.0072
2945.08	30.6395
2947.26	27.0167
2949.44	33.7188
2951.61	28.2721
2953.79	29.5093
2955.97	29.5301
2958.14	27.7225
2960.32	31.4008
2962.49	30.2045
2964.66	30.8389
2966.84	32.6994
2969.01	32.1171
2971.18	30.9221
2973.35	34.6286
2975.52	34.6613
2977.69	29.1674
2979.86	35.3409
2982.03	32.917
2984.19	29.2601
2986.36	26.2127
2988.52	32.4231
2990.69	27.5199
2992.85	33.7528
2995.01	33.7993
2997.18	31.3658
2999.34	28.9265
3001.5	30.8424
3003.66	33.3908
3005.82	34.0733
3007.98	30.373
3010.14	37.9501
3012.29	31.0949
3014.45	33.0354
3016.6	34.9847
3018.76	30.6284
3020.91	35.1127
3023.07	35.8057
3025.22	35.8605
3027.37	34.638
3029.52	34.0463
3031.67	39.8222
3033.82	37.9515
3035.97	34.157
3038.12	38.0177
3040.27	33.5857
3042.41	40.0229
3044.56	34.2908
3046.71	34.3208
3048.85	34.9923
3051	34.3793
3053.14	35.6944
3055.28	38.3025
3057.42	39.6267
3059.56	38.3718
3061.7	38.4054
3063.84	42.3153
3065.98	45.5858
3068.12	39.801
3070.26	39.1881
3072.39	38.574
3074.53	35.3649
3076.67	40.5939
3078.8	38.6817
3080.93	40.0189
3083.07	44.6151
3085.2	40.1013
3087.33	36.231
3089.46	38.2406
3091.59	42.2233
3093.72	43.5992
3095.85	40.3878
3097.98	45.7161
3100.11	43.1546
3102.23	46.5278
3104.36	46.6115
3106.48	43.3867
3108.61	50.7689
3110.73	46.2144
3112.85	43.642
3114.98	47.7309
3117.1	54.5144
3119.22	47.2493
3121.34	47.3491
3123.46	50.8156
3125.58	55.6496
3127.7	49.0156
3129.81	46.421
3131.93	51.2922
3134.05	54.1412
3136.16	52.2241
3138.27	55.7684
3140.39	54.5218
3142.5	56.0142
3144.61	49.2424
3146.73	54.8604
3148.84	55.6595
3150.95	56.4499
3153.06	56.536
3155.16	55.2326
3157.27	56.7048
3159.38	58.8784
3161.49	61.0597
3163.59	60.4525
3165.7	68.933
3167.8	61.3149
3169.91	64.1967
3172.01	56.5667
3174.11	62.9697
3176.21	63.0326
3178.31	67.3178
3180.41	67.3706
3182.51	73.7717
3184.61	72.4072
3186.71	67.5038
3188.81	66.8207
3190.9	73.9467
3193	69.0509
3195.1	73.3647
3197.19	74.8677
3199.28	72.1337
3201.38	80.8144
3203.47	78.1007
3205.56	78.9587
3207.65	81.9837
3209.74	80.7117
3211.83	73.6874
3213.92	81.047
3216.01	76.173
3218.1	78.5041
3220.18	73.5841
3222.27	80.9962
3224.36	84.0685
3226.44	78.4058
3228.52	78.561
3230.61	86.0324
3232.69	84.7365
3234.77	86.3521
3236.85	76.9325
3238.93	83.7162
3241.01	85.3651
3243.09	83.3174
3245.17	82.0276
3247.25	91.1029
3249.33	83.0813
3251.4	80.9597
3253.48	84.0643
3255.55	86.4029
3257.63	82.7567
3259.7	87.3963
3261.77	85.2854
3263.85	76.4062
3265.92	87.126
3267.99	91.9505
3270.06	83.733
3272.13	83.9602
3274.2	81.7973
3276.26	81.1072
3278.33	85.7699
3280.4	86.6189
3282.47	88.9993
3284.53	85.2664
3286.59	92.2415
3288.66	84.6693
3290.72	84.7497
3292.79	85.5935
3294.85	79.5216
3296.91	84.9726
3298.97	84.2812
3301.03	85.1502
3303.09	83.6857
3305.15	86.8578
3307.2	81.5335
3309.26	87.0251
3311.32	87.8762
3313.37	85.623
3315.43	89.5856
3317.48	89.6632
3319.54	92.0889
3321.59	95.299
3323.64	99.3146
3325.69	93.1957
3327.74	91.7617
3329.79	92.6641
3331.84	102.228
3333.89	97.7084
3335.94	88.4444
3337.99	95.6899
3340.04	101.335
3342.08	99.8748
3344.13	92.0725
3346.17	105.616
3348.22	93.8149
3350.26	103.417
3352.3	130.474
3354.34	94.8614
3356.39	100.534
3358.43	103.83
3360.47	115.096
3362.51	107.257
3364.54	108.967
3366.58	114.674
3368.62	105.196
3370.66	112.518
3372.69	107.815
3374.73	113.524
3376.76	114.412
3378.8	123.331
3380.83	116.985
3382.86	114.648
3384.89	122.772
3386.93	128.486
3388.96	118.082
3390.99	114.111
3393.02	118.206
3395.04	117.476
3397.07	124.027
3399.1	126.547
3401.13	114.492
3403.15	131.546
3405.18	123.507
3407.2	130.862
3409.23	127.682
3411.25	125.292
3413.27	130.21
3415.29	127.825
3417.31	136.81
3419.34	131.177
3421.36	126.348
3423.37	141.832
3425.39	144.324
3427.41	137.887
3429.43	132.266
3431.44	116.874
3433.46	122.658
3435.48	121.936
3437.49	130.201
3439.5	127.867
3441.52	123.075
3443.53	131.383
3445.54	129.896
3447.55	125.141
3449.56	126.118
3451.57	132.034
3453.58	131.396
3455.59	129.945
3457.6	121.9
3459.61	130.39
3461.61	114.862
3463.62	126.696
3465.63	131.081
3467.63	128.812
3469.63	128.193
3471.64	120.876
3473.64	122.682
3475.64	120.355
3477.64	125.578
3479.64	118.197
3481.64	120.058
3483.64	113.483
3485.64	120.405
3487.64	118.88
3489.64	123.279
3491.63	114.963
3493.63	117.661
3495.63	112.696
3497.62	113.674
3499.62	113.793
3501.61	117.317
3503.6	112.29
3505.59	105.548
3507.59	113.313
3509.58	105.663
3511.57	110.833
3513.56	107.445
3515.55	112.617
3517.53	97.2298
3519.52	106.684
3521.51	104.999
3523.49	95.5991
3525.48	94.778
3527.47	103.398
3529.45	105.132
3531.43	94.0275
3533.42	95.8244
3535.4	97.6367
3537.38	96.0246
3539.36	94.4206
3541.34	86.7492
3543.32	87.6941
3545.3	95.5511
3547.28	82.646
3549.26	88.7657
3551.24	92.2781
3553.21	80.1459
3555.19	77.5762
3557.16	82.8184
3559.14	86.3374
3561.11	82.9207
3563.09	81.2442
3565.06	83.9196
3567.03	80.5184
3569	85.848
3570.97	91.1654
3572.94	90.3863
3574.91	87.8658
3576.88	86.2231
3578.85	89.8454
3580.82	89.0958
3582.78	91.8661
3584.75	92.8844
3586.72	98.3127
3588.68	94.9245
3590.65	103.022
3592.61	96.9718
3594.57	92.6778
3596.54	80.3787
3598.5	84.9368
3600.46	72.5759
3602.42	82.4767
3604.38	69.1881
3606.34	71.9489
3608.3	72.9219
3610.26	65.83
3612.21	64.9998
3614.17	58.7896
3616.13	64.2329
3618.08	57.1025
3620.04	58.9492
3621.99	57.1816
3623.94	52.6981
3625.9	60.8248
3627.85	53.6336
3629.8	53.648
3631.75	47.3422
3633.7	52.7641
3635.65	53.6838
3637.6	48.2934
3639.55	51.0349
3641.5	45.6556
3643.44	48.4149
3645.39	51.1805
3647.34	49.431
3649.28	43.9916
3651.23	39.4786
3653.17	47.6744
3655.12	47.6955
3657.06	44.0821
3659	46.8291
3660.94	45.0293
3662.88	45.9541
3664.82	46.8843
3666.76	38.7111
3668.7	44.2003
3670.64	31.4561
3672.58	39.6814
3674.52	41.5358
3676.45	37.915
3678.39	41.6083
3680.32	36.1586
3682.26	36.2003
3684.19	44.5048
3686.13	39.0538
3688.06	38.188
3689.99	36.3989
3691.92	35.5287
3693.85	31.8786
3695.78	36.5416
3697.71	44.0039
3699.64	39.4242
3701.57	36.6922
3703.5	38.5949
3705.43	31.199
3707.35	39.6365
3709.28	35.956
3711.2	31.329
3713.13	37.9269
3715.05	34.222
3716.98	41.7695
3718.9	29.5984
3720.82	33.3908
3722.74	34.3646
3724.66	27.7991
3726.59	37.2539
3728.5	36.3425
3730.42	35.4296
3732.34	34.5188
3734.26	36.4449
3736.18	30.7947
3738.09	36.5132
3740.01	29.9004
3741.93	37.5244
3743.84	31.8503
3745.75	30.923
3747.67	35.7055
3749.58	32.8699
3751.49	34.7944
3753.41	31.9499
3755.32	32.917
3757.23	31.0191
3759.14	31.9825
3761.05	31.0351
3762.96	33.9081
3764.86	34.8702
3766.77	30.1005
3768.68	28.199
3770.58	33.9482
3772.49	34.9202
3774.4	34.9353
3776.3	28.2475
3778.2	32.0944
3780.11	30.1967
3782.01	44.6072
3783.91	32.162
3785.81	30.2657
3787.71	34.1339
3789.61	29.3456
3791.51	34.1798
3793.41	39.9891
3795.31	33.2748
3797.21	44.8935
3799.1	26.5765
3801	34.3438
3802.9	33.4119
3804.79	33.4494
3806.69	34.4591
3808.58	34.4991
3810.48	29.6726
3812.37	29.703
3814.26	33.6325
3816.15	34.6415
3818.04	29.7921
3819.93	31.776
3821.82	38.6553
3823.71	35.75
3825.6	36.7565
3827.49	36.7863
3829.38	23.0727
3831.26	35.8706
3833.15	31.9702
3835.04	33.9685
3836.92	36.9537
3838.8	35.0108
3840.69	35.0411
3842.57	27.1753
3844.46	32.1386
3846.34	39.0802
3848.22	37.1114
3850.1	36.1351
3851.98	34.1669
3853.86	28.2297
3855.74	35.1734
3857.62	33.1935
3859.49	38.1464
3861.37	38.1519
3863.25	34.1962
3865.12	33.2302
3867	36.2453
3868.87	35.3
3870.75	33.3436
3872.62	36.3348
3874.5	31.3669
3876.37	34.3651
3878.24	36.3683
3880.11	34.3865
3881.98	32.4043
3883.85	27.4299
3885.72	35.4254
3887.59	29.4524
3889.46	35.4612
3891.33	31.4839
3893.19	31.507
3895.06	28.5358
3896.93	32.5665
3898.79	34.5969
3900.66	29.6065
3902.52	34.6513
3904.38	34.6745
3906.25	35.7069
3908.11	35.7291
3909.97	35.756
3911.83	33.7715
3913.69	34.8083
3915.55	33.8309
3917.41	29.8216
3919.27	35.9268
3921.13	37.9981
3922.99	31.9575
3924.84	31.9944
3926.7	35.0801
3928.56	27.9917
3930.41	37.1905
3932.27	36.2036
3934.12	36.23
3935.97	37.2783
3937.83	35.2596
3939.68	32.2212
3941.53	35.3228
3943.38	32.2868
3945.23	36.4211
3947.08	32.3485
3948.93	34.433
3950.78	33.4307
3952.63	35.5135
3954.48	29.3564
3956.33	30.4065
3958.17	30.4227
3960.02	42.8149
3961.86	31.4788
3963.71	36.6534
3965.55	33.5656
3967.4	33.5721
3969.24	29.4427
3971.08	40.8124
3972.92	32.5522
3974.77	37.7262
3976.6	28.4282
3978.45	36.702
3980.29	35.6679
3982.12	33.5978
3983.96	38.7651
3985.8	35.6637
3987.64	36.6952
3989.47	33.595
3991.31	32.5656
3993.15	35.6756
3994.98	32.5832
3996.82	37.7717
3998.65	29.5073
