#Acq. time (s)=	30
#Accumulations=	2
#Range=	Off
#Autofocus=	Off
#Macrospot=	Off
#AutoExposure=	Off
#Spike filter=	Multiple accum.
#Delay time (s)=	2
#Binning=	1
#Readout mode=	Signal
#DeNoise=	Off
#ICS correction=	On
#Dark correction=	Off
#Inst. Process=	Off
#Detector Gain=	Best Dynamic
#Detector ADC=	50 kHz HS
#Detector temperature (°C)=	-60.09
#Instrument=	LabRAM HR Evol
#Detector=	SIN-EM FIVIS
#Objective=	x100_VIS_LWD
#Grating=	1800 (450-850nm)
#ND Filter=	100%
#Laser=	532nm_Edge
#Spectro (cm-¹)=	3360
#Hole=	30.0125
#Temperature=	0
#Range=	Visible
#StageXY=	75x50mm Scan+
#StageZ=	Z motor
#X (µm)=	0
#Y (µm)=	0
#Z (µm)=	-16.5
#Full time(mm:ss)=	1:04
#Project=	21_08_11
#Sample=	BU20
#Site=	
#Title=	BU20-J-FF1-FI02-S_1800 (450-850nm)_532nm_Edge_100%_x100_VIS_LWD_H30um_30sX2
#Remark=	
#Date=	11.08.2021 17:24
#Acquired=	11.08.2021 17:24:45
3515.51	541.792
3515.32	552.261
3515.13	567.492
3514.94	556.145
3514.74	557.17
3514.55	552.473
3514.36	568.651
3514.17	580.025
3513.98	583.765
3513.79	597.987
3513.6	584.661
3513.4	587.522
3513.21	615.103
3513.02	610.316
3512.83	602.679
3512.64	623.599
3512.45	619.801
3512.25	618.866
3512.06	630.293
3511.87	606.514
3511.68	612.216
3511.49	624.943
3511.3	609.678
3511.1	629.534
3510.91	630.248
3510.72	610.906
3510.53	619.359
3510.34	633.561
3510.15	622.211
3509.95	622.281
3509.76	609.021
3509.57	601.204
3509.38	595.989
3509.19	595.224
3509	579.875
3508.8	576.458
3508.61	593.185
3508.42	586.158
3508.23	551.81
3508.04	563.255
3507.84	568.139
3507.65	523.865
3507.46	548.675
3507.27	544.486
3507.08	536.798
3506.88	516.232
3506.69	515.373
3506.5	497.894
3506.31	497.464
3506.12	499.934
3505.93	491.122
3505.73	483.75
3505.54	482.397
3505.35	452.682
3505.16	459.066
3504.97	455.698
3504.77	476.212
3504.58	462.985
3504.39	438.326
3504.2	414.473
3504.01	415.341
3503.81	424.809
3503.62	431.519
3503.43	412.564
3503.24	394.493
3503.05	409.709
3502.85	392.655
3502.66	388.003
3502.47	394.767
3502.28	371.99
3502.09	376.816
3501.89	353.042
3501.7	374.991
3501.51	368.344
3501.32	369.33
3501.12	345.557
3500.93	350.369
3500.74	339.9
3500.55	330.351
3500.36	335.06
3500.16	317.768
3499.97	336.771
3499.78	316.731
3499.59	303.362
3499.4	306.193
3499.2	314.752
3499.01	306.206
3498.82	316.724
3498.63	297.702
3498.44	291.058
3498.24	311.081
3498.05	306.328
3497.86	290.138
3497.67	281.567
3497.47	282.52
3497.28	278.703
3497.09	274.878
3496.9	278.658
3496.7	272.901
3496.51	276.687
3496.32	266.224
3496.13	266.257
3495.93	271.056
3495.74	271.074
3495.55	265.394
3495.36	268.298
3495.17	250.226
3494.97	251.21
3494.78	249.328
3494.59	249.349
3494.4	249.367
3494.2	252.244
3494.01	241.764
3493.82	246.528
3493.63	236.962
3493.43	243.584
3493.24	250.238
3493.05	232.137
3492.86	242.671
3492.66	223.647
3492.47	235.065
3492.28	238.643
3492.09	225.25
3491.89	230.072
3491.7	230.196
3491.51	223.56
3491.32	230.144
3491.12	222.454
3490.93	229.012
3490.74	215.757
3490.55	214.725
3490.35	216.661
3490.16	214.624
3489.97	224.99
3489.78	214.359
3489.58	214.268
3489.39	226.646
3489.2	222.765
3489.01	216.99
3488.81	226.495
3488.62	205.504
3488.43	206.489
3488.23	211.286
3488.04	201.767
3487.85	211.319
3487.66	209.427
3487.46	198.96
3487.27	206.629
3487.08	205.707
3486.89	208.601
3486.69	209.583
3486.5	201.014
3486.31	213.455
3486.11	202.974
3485.92	200.134
3485.73	197.295
3485.54	214.526
3485.34	203.094
3485.15	208.884
3484.96	198.45
3484.76	190.856
3484.57	196.646
3484.38	206.253
3484.19	198.624
3483.99	198.654
3483.8	191.047
3483.61	190.129
3483.42	189.197
3483.22	194.967
3483.03	208.401
3482.84	198.837
3482.64	201.729
3482.45	189.28
3482.26	191.193
3482.06	181.613
3481.87	203.651
3481.68	184.371
3481.48	186.267
3481.29	184.458
3481.1	183.596
3480.91	185.186
3480.71	184.061
3480.52	194.478
3480.33	193.506
3480.13	181.162
3479.94	184.148
3479.75	180.3
3479.56	187.924
3479.36	187.901
3479.17	187.869
3478.98	191.672
3478.78	180.183
3478.59	186.862
3478.4	191.632
3478.2	188.761
3478.01	179.235
3477.82	187.037
3477.62	185.295
3477.43	188.203
3477.24	182.479
3477.04	199.751
3476.85	181.708
3476.66	175.11
3476.46	184.806
3476.27	185.532
3476.08	179.539
3475.88	185.922
3475.69	188.026
3475.5	170.935
3475.31	184.525
3475.11	188.38
3474.92	180.28
3474.73	186.828
3474.53	181.539
3474.34	183.944
3474.15	183.894
3473.95	179.403
3473.76	179.206
3473.57	184.029
3473.37	185.134
3473.18	183.346
3472.99	173.671
3472.79	187.724
3472.6	181.089
3472.41	186.189
3472.21	188.255
3472.02	177.987
3471.83	169.614
3471.63	181.815
3471.44	184.099
3471.24	188.79
3471.05	180.501
3470.86	176.341
3470.66	179.265
3470.47	188.293
3470.28	182.384
3470.08	179.792
3469.89	175.343
3469.7	170.68
3469.5	183.128
3469.31	182.96
3469.12	177.148
3468.92	175.217
3468.73	183.883
3468.54	168.57
3468.34	165.687
3468.15	186.699
3467.96	184.724
3467.76	186.755
3467.57	175.356
3467.38	176.407
3467.18	184.125
3466.99	173.548
3466.79	187.988
3466.6	189.935
3466.41	190.921
3466.21	182.279
3466.02	175.533
3465.83	188.945
3465.63	182.185
3465.44	188.923
3465.24	180.285
3465.05	184.148
3464.86	177.434
3464.66	188.994
3464.47	176.509
3464.28	184.224
3464.08	176.549
3463.89	178.497
3463.7	172.743
3463.5	179.499
3463.31	184.33
3463.11	183.393
3462.92	181.5
3462.73	168.049
3462.53	168.067
3462.34	173.859
3462.14	178.685
3461.95	170.025
3461.76	177.736
3461.56	173.887
3461.37	180.632
3461.18	174.846
3460.98	188.323
3460.79	189.288
3460.59	174.846
3460.4	170.04
3460.21	188.34
3460.01	177.744
3459.82	177.758
3459.62	186.497
3459.43	176.919
3459.24	175.013
3459.04	179.813
3458.85	187.443
3458.66	184.499
3458.46	190.248
3458.27	180.626
3458.07	178.72
3457.88	174.894
3457.68	180.666
3457.49	175.813
3457.3	184.451
3457.1	178.648
3456.91	178.635
3456.71	179.589
3456.52	182.48
3456.33	182.505
3456.13	180.62
3455.94	181.634
3455.74	181.677
3455.55	183.623
3455.36	194.22
3455.16	189.392
3454.97	183.618
3454.77	183.636
3454.58	179.793
3454.39	181.731
3454.19	193.309
3454	183.676
3453.8	184.651
3453.61	189.486
3453.41	179.857
3453.22	182.765
3453.03	184.662
3452.83	189.507
3452.64	190.547
3452.44	186.765
3452.25	179.101
3452.05	178.129
3451.86	187.757
3451.67	200.288
3451.47	186.773
3451.28	185.846
3451.08	192.618
3450.89	180.029
3450.69	194.461
3450.5	183.818
3450.31	195.38
3450.11	196.332
3449.92	190.527
3449.72	180.862
3449.53	192.419
3449.33	187.58
3449.14	187.566
3448.94	196.238
3448.75	187.554
3448.56	191.403
3448.36	198.134
3448.17	188.471
3447.97	208.692
3447.78	193.356
3447.58	186.706
3447.39	188.521
3447.19	200.885
3447	196.155
3446.81	194.447
3446.61	190.863
3446.42	198.537
3446.22	200.009
3446.03	205.623
3445.83	197.919
3445.64	188.423
3445.44	189.627
3445.25	191.496
3445.06	201.034
3444.86	214.515
3444.67	206.88
3444.47	211.761
3444.28	197.317
3444.08	202.079
3443.89	200.13
3443.69	213.987
3443.5	210.323
3443.3	202.886
3443.11	198.181
3442.91	208.85
3442.72	206.846
3442.52	214.511
3442.33	219.285
3442.14	213.51
3441.94	208.687
3441.75	221.208
3441.55	221.19
3441.36	222.148
3441.16	226.013
3440.97	221.23
3440.77	212.583
3440.58	216.473
3440.38	230.015
3440.19	232.965
3439.99	230.128
3439.8	231.16
3439.6	220.665
3439.41	231.477
3439.21	233.28
3439.02	251.331
3438.82	246.765
3438.63	248.028
3438.43	238.378
3438.24	254.797
3438.05	266.344
3437.85	265.284
3437.66	269.991
3437.46	258.251
3437.27	278.462
3437.07	271.705
3436.88	271.708
3436.68	287.17
3436.49	296.863
3436.29	296.907
3436.1	304.677
3435.9	297.954
3435.71	322.139
3435.51	325.073
3435.31	337.664
3435.12	345.441
3434.93	352.305
3434.73	369.694
3434.54	377.352
3434.34	411.107
3434.15	402.384
3433.95	417.833
3433.76	434.241
3433.56	459.355
3433.37	504.723
3433.17	502.701
3432.98	524.802
3432.78	560.703
3432.58	561.158
3432.39	602.54
3432.19	641.677
3432	695.652
3431.8	705.395
3431.61	756.748
3431.41	808.15
3431.22	856.312
3431.02	924.518
3430.83	980.282
3430.63	1027.42
3430.44	1041.75
3430.24	1070.58
3430.05	1130.26
3429.85	1134.77
3429.66	1208.7
3429.46	1182.11
3429.27	1148.66
3429.07	1133.49
3428.88	1136.61
3428.68	1106.86
3428.48	1072.33
3428.29	1040.86
3428.09	956.078
3427.9	899.025
3427.7	862.051
3427.51	827.489
3427.31	792.804
3427.12	743.731
3426.92	696.84
3426.73	659.29
3426.53	657.378
3426.34	599.496
3426.14	581.255
3425.95	539.94
3425.75	513.013
3425.55	480.264
3425.36	470.523
3425.16	425.047
3424.97	457.797
3424.77	427.877
3424.58	409.579
3424.38	404.803
3424.19	387.453
3423.99	386.518
3423.79	368.212
3423.6	354.721
3423.4	352.799
3423.21	338.305
3423.01	346.946
3422.82	334.359
3422.62	343.042
3422.43	313.127
3422.23	315.977
3422.04	303.355
3421.84	310.98
3421.64	297.414
3421.45	284.829
3421.25	278.052
3421.06	270.328
3420.86	270.321
3420.67	254.901
3420.47	261.659
3420.27	267.474
3420.08	251.129
3419.88	254.037
3419.69	256.912
3419.49	252.065
3419.3	241.431
3419.1	249.107
3418.91	253.89
3418.71	236.512
3418.51	242.198
3418.32	239.218
3418.12	244.966
3417.93	239.187
3417.73	222.835
3417.53	228.611
3417.34	231.479
3417.14	227.603
3416.95	210.26
3416.75	221.814
3416.56	209.329
3416.36	219.934
3416.16	210.307
3415.97	220.855
3415.77	213.113
3415.58	219.823
3415.38	215.001
3415.19	214.996
3414.99	203.453
3414.79	212.116
3414.6	216.933
3414.4	215.022
3414.21	217.929
3414.01	199.681
3413.81	207.392
3413.62	206.422
3413.42	201.601
3413.22	203.51
3413.03	205.414
3412.83	196.728
3412.64	206.309
3412.44	209.147
3412.25	204.295
3412.05	199.455
3411.85	210.003
3411.66	199.417
3411.46	207.101
3411.27	200.382
3411.07	199.442
3410.87	202.358
3410.68	198.55
3410.48	204.334
3410.28	196.638
3410.09	195.673
3409.89	197.59
3409.7	195.663
3409.5	200.464
3409.3	187.959
3409.11	192.757
3408.91	197.55
3408.72	196.57
3408.52	193.693
3408.32	191.801
3408.13	182.207
3407.93	203.311
3407.73	196.472
3407.54	196.458
3407.34	199.448
3407.15	198.563
3406.95	190.812
3406.75	197.285
3406.56	186.273
3406.36	199.904
3406.17	201.329
3405.97	194.654
3405.77	196.51
3405.58	191.592
3405.38	196.27
3405.18	188.58
3404.99	193.363
3404.79	198.176
3404.59	186.678
3404.4	195.239
3404.2	192.357
3404	191.475
3403.81	179.084
3403.61	192.512
3403.42	192.275
3403.22	189.353
3403.02	183.89
3402.83	186.862
3402.63	184.934
3402.43	189.718
3402.24	193.333
3402.04	195.941
3401.84	190.949
3401.65	188.352
3401.45	190.582
3401.26	188.646
3401.06	206.592
3400.86	190.853
3400.67	191.024
3400.47	191.209
3400.27	189.437
3400.08	190.301
3399.88	193.047
3399.68	206.238
3399.49	194.73
3399.29	190.215
3399.09	204.008
3398.9	192.434
3398.7	196.561
3398.5	208.863
3398.31	192.591
3398.11	184.252
3397.91	195.902
3397.72	201.586
3397.52	191.989
3397.32	199.595
3397.13	202.543
3396.93	204.524
3396.73	200.847
3396.54	199.873
3396.34	198.855
3396.14	204.568
3395.95	190.168
3395.75	175.748
3395.55	196.784
3395.36	209.146
3395.16	210.911
3394.96	210.839
3394.77	204.114
3394.57	193.589
3394.37	212.739
3394.18	211.804
3393.98	210.908
3393.78	212.863
3393.59	209.088
3393.39	202.463
3393.19	199.681
3393	208.369
3392.8	210.239
3392.6	208.097
3392.4	206.982
3392.21	203.096
3392.01	209.991
3391.81	214.715
3391.62	220.831
3391.42	211.145
3391.22	215.488
3391.03	205.197
3390.83	216.615
3390.63	224.867
3390.44	230.216
3390.24	223.406
3390.04	229.206
3389.84	214.619
3389.65	224.258
3389.45	221.374
3389.25	231.668
3389.06	223.86
3388.86	230.57
3388.66	224.085
3388.47	230.826
3388.27	252.689
3388.07	232.524
3387.87	247.766
3387.68	234.422
3387.48	240.109
3387.28	251.492
3387.09	249.514
3386.89	266.598
3386.69	268.48
3386.49	262.775
3386.3	264.682
3386.1	265.617
3385.9	255.104
3385.71	295.165
3385.51	284.695
3385.31	286.632
3385.11	298.116
3384.92	295.301
3384.72	306.816
3384.52	310.786
3384.32	310.007
3384.13	306.244
3383.93	324.426
3383.73	319.612
3383.54	335.737
3383.34	338.492
3383.14	340.325
3382.95	354.563
3382.75	363.059
3382.55	356.274
3382.35	374.303
3382.16	355.177
3381.96	382.818
3381.76	379.043
3381.56	365.74
3381.37	410.599
3381.17	387.738
3380.97	393.491
3380.77	390.655
3380.58	396.397
3380.38	404.042
3380.18	384.01
3379.98	410.717
3379.79	415.471
3379.59	408.77
3379.39	396.341
3379.19	392.496
3379	392.463
3378.8	414.346
3378.6	387.59
3378.4	388.498
3378.21	367.493
3378.01	373.193
3377.81	361.774
3377.61	363.723
3377.42	358.046
3377.22	359.982
3377.02	366.674
3376.82	340.896
3376.63	345.63
3376.43	332.251
3376.23	340.794
3376.03	330.256
3375.84	311.149
3375.64	322.544
3375.44	311.084
3375.24	307.251
3375.05	291.038
3374.85	311.98
3374.65	296.721
3374.45	282.388
3374.25	284.226
3374.06	280.487
3373.86	283.423
3373.66	270.159
3373.46	268.313
3373.27	271.228
3373.07	272.254
3372.87	252.26
3372.67	253.229
3372.48	241.781
3372.28	251.299
3372.08	246.495
3371.88	244.559
3371.68	252.173
3371.49	245.466
3371.29	234.923
3371.09	227.247
3370.89	239.61
3370.7	220.557
3370.5	232.96
3370.3	222.491
3370.1	223.442
3369.9	232
3369.71	232.937
3369.51	221.496
3369.31	211.966
3369.11	208.157
3368.92	225.313
3368.72	217.706
3368.52	204.38
3368.32	215.819
3368.12	198.667
3367.93	204.38
3367.73	199.609
3367.53	206.268
3367.33	194.825
3367.13	194.826
3366.94	190.095
3366.74	203.464
3366.54	189.157
3366.34	194.843
3366.14	193.858
3365.95	192.879
3365.75	199.528
3365.55	204.276
3365.35	188.081
3365.15	184.271
3364.95	189.038
3364.76	182.406
3364.56	182.434
3364.36	182.42
3364.16	176.693
3363.97	187.151
3363.77	181.439
3363.57	187.178
3363.37	189.111
3363.17	183.421
3362.97	184.396
3362.78	187.272
3362.58	185.377
3362.38	189.196
3362.18	172.997
3361.98	179.675
3361.79	175.862
3361.59	166.313
3361.39	172.943
3361.19	171.011
3360.99	176.706
3360.79	173.829
3360.6	175.714
3360.4	176.646
3360.2	169.962
3360	169.938
3359.8	168.962
3359.6	165.132
3359.41	163.209
3359.21	167.955
3359.01	166.044
3358.81	161.284
3358.61	167.946
3358.41	166.045
3358.22	164.148
3358.02	175.595
3357.82	172.781
3357.62	161.391
3357.42	162.369
3357.22	160.476
3357.03	167.142
3356.83	163.321
3356.63	169.018
3356.43	172.803
3356.23	157.541
3356.03	162.269
3355.84	154.627
3355.64	166.986
3355.44	164.129
3355.24	161.259
3355.04	151.739
3354.84	156.492
3354.64	162.2
3354.44	165.056
3354.25	159.35
3354.05	161.254
3353.85	154.597
3353.65	155.549
3353.45	160.307
3353.25	155.551
3353.06	156.502
3352.86	152.698
3352.66	154.61
3352.46	155.576
3352.26	155.598
3352.06	158.471
3351.86	149.908
3351.67	156.565
3351.47	149.894
3351.27	161.311
3351.07	152.761
3350.87	146.119
3350.67	148.041
3350.47	156.623
3350.27	146.157
3350.08	158.538
3349.88	153.774
3349.68	146.15
3349.48	151.846
3349.28	150.872
3349.08	147.99
3348.88	154.626
3348.68	155.555
3348.49	149.818
3348.29	152.633
3348.09	155.452
3347.89	153.524
3347.69	147.807
3347.49	149.704
3347.29	144.005
3347.09	143.065
3346.9	149.738
3346.7	151.665
3346.5	153.592
3346.3	148.861
3346.1	143.195
3345.9	146.074
3345.7	143.231
3345.5	147.988
3345.3	147.034
3345.1	151.805
3344.91	148.955
3344.71	143.241
3344.51	154.651
3344.31	147.033
3344.11	149.896
3343.91	139.45
3343.71	154.711
3343.51	150.924
3343.31	137.6
3343.11	148.065
3342.92	143.3
3342.72	146.158
3342.52	139.499
3342.32	144.27
3342.12	147.138
3341.92	142.391
3341.72	141.466
3341.52	143.404
3341.32	132.942
3341.12	144.389
3340.93	147.257
3340.73	137.733
3340.53	139.648
3340.33	141.562
3340.13	147.288
3339.93	145.388
3339.73	153.973
3339.53	136.817
3339.33	144.449
3339.13	142.549
3338.93	139.699
3338.74	152.049
3338.54	140.615
3338.34	141.612
3338.14	132.135
3337.94	140.784
3337.74	140.835
3337.54	130.372
3337.34	147.6
3337.14	133.288
3336.94	141.885
3336.74	141.869
3336.54	143.728
3336.34	136.047
3336.14	142.721
3335.94	145.582
3335.74	137.964
3335.55	145.61
3335.35	135.115
3335.15	140.859
3334.95	146.623
3334.75	129.466
3334.55	143.83
3334.35	126.647
3334.15	137.176
3333.95	144.829
3333.75	135.273
3333.55	132.411
3333.35	126.683
3333.15	132.421
3332.95	141.98
3332.75	130.503
3332.55	139.103
3332.35	130.492
3332.16	131.444
3331.96	135.261
3331.76	140.03
3331.56	149.574
3331.36	135.257
3331.16	135.243
3330.96	134.257
3330.76	131.359
3330.56	131.338
3330.36	133.233
3330.16	136.104
3329.96	137.096
3329.76	125.662
3329.56	140.02
3329.36	137.185
3329.16	131.497
3328.96	137.304
3328.76	130.648
3328.56	133.542
3328.36	127.804
3328.16	134.514
3327.96	140.261
3327.76	140.261
3327.56	139.296
3327.37	127.796
3327.17	141.157
3326.97	137.305
3326.77	138.223
3326.57	130.527
3326.37	135.289
3326.17	131.476
3325.97	131.492
3325.77	141.015
3325.57	132.394
3325.37	126.778
3325.17	141.052
3324.97	134.134
3324.77	135.042
3324.57	137.053
3324.37	130.423
3324.17	130.488
3323.97	125.749
3323.77	135.346
3323.57	136.307
3323.37	138.238
3323.17	136.352
3322.97	142.1
3322.77	136.335
3322.57	135.387
3322.37	125.802
3322.17	126.719
3321.97	132.472
3321.77	133.46
3321.57	127.76
3321.37	131.629
3321.17	139.359
3320.97	130.811
3320.77	128.933
3320.57	125.109
3320.37	132.771
3320.17	127.002
3319.97	136.569
3319.77	130.8
3319.57	129.823
3319.37	134.589
3319.17	122.105
3318.97	137.396
3318.77	128.76
3318.57	134.491
3318.37	135.438
3318.17	131.606
3317.97	125.888
3317.77	128.79
3317.57	129.765
3317.37	129.782
3317.17	125.969
3316.97	129.821
3316.77	124.094
3316.57	138.444
3316.37	123.164
3316.17	143.34
3315.97	130.872
3315.77	133.574
3315.57	133.503
3315.37	133.602
3315.17	128.935
3314.97	125.228
3314.77	125.328
3314.57	130.141
3314.37	125.296
3314.17	129.114
3313.97	126.17
3313.77	129.913
3313.56	120.25
3313.37	126.892
3313.17	131.746
3312.97	138.551
3312.76	127.092
3312.56	127.112
3312.36	129.909
3312.16	138.46
3311.96	122.14
3311.76	131.737
3311.56	125.049
3311.36	119.298
3311.16	126.961
3310.96	125.048
3310.76	128.889
3310.56	127.939
3310.36	129.858
3310.16	125.063
3309.96	126.979
3309.76	130.808
3309.56	127.928
3309.36	129.847
3309.16	126.026
3308.96	121.249
3308.76	129.892
3308.56	127.986
3308.35	126.096
3308.15	128.058
3307.95	124.274
3307.75	131.033
3307.55	128.182
3307.35	128.203
3307.15	127.269
3306.95	120.564
3306.75	125.382
3306.55	126.339
3306.35	125.349
3306.15	128.236
3305.95	134.969
3305.75	125.376
3305.55	122.507
3305.35	127.325
3305.14	127.337
3304.94	131.171
3304.74	131.207
3304.54	138.945
3304.34	117.844
3304.14	121.746
3303.94	128.533
3303.74	131.462
3303.54	130.487
3303.34	128.51
3303.14	129.399
3302.94	113.96
3302.74	132.24
3302.53	131.404
3302.33	120.935
3302.13	118.982
3301.93	124.691
3301.73	128.446
3301.53	122.595
3301.33	125.483
3301.13	123.549
3300.93	111.067
3300.73	129.344
3300.53	119.721
3300.33	125.521
3300.13	120.779
3299.92	122.742
3299.72	125.655
3299.52	122.73
3299.32	125.508
3299.12	127.384
3298.92	125.449
3298.72	115.825
3298.52	122.559
3298.32	121.608
3298.12	112.985
3297.92	125.535
3297.71	136.176
3297.51	117.931
3297.31	122.78
3297.11	130.512
3296.91	133.405
3296.71	125.69
3296.51	124.728
3296.31	122.795
3296.11	119.886
3295.9	124.675
3295.7	123.698
3295.5	119.838
3295.3	116.941
3295.1	124.632
3294.9	124.603
3294.7	113.998
3294.5	122.654
3294.3	118.811
3294.1	114.015
3293.89	122.694
3293.69	123.672
3293.49	126.572
3293.29	121.769
3293.09	121.776
3292.89	122.744
3292.69	119.858
3292.49	117.916
3292.28	127.532
3292.08	119.831
3291.88	122.776
3291.68	123.898
3291.48	119.032
3291.28	115.078
3291.08	113.062
3290.88	121.753
3290.67	114.986
3290.47	112.031
3290.27	131.193
3290.07	125.39
3289.87	124.416
3289.67	124.485
3289.47	117.804
3289.27	119.758
3289.06	129.406
3288.86	127.493
3288.66	120.774
3288.46	115.972
3288.26	136.187
3288.06	119.831
3287.86	118.879
3287.65	125.637
3287.45	120.846
3287.25	107.386
3287.05	114.142
3286.85	118.963
3286.65	124.757
3286.45	130.545
3286.24	115.138
3286.04	115.146
3285.84	121.89
3285.64	116.098
3285.44	125.714
3285.24	124.731
3285.03	125.668
3284.83	117.932
3284.63	121.734
3284.43	114.032
3284.23	120.662
3284.03	112.017
3283.82	122.571
3283.62	121.62
3283.42	117.801
3283.22	124.761
3283.02	123.77
3282.82	122.847
3282.62	118.09
3282.41	117.851
3282.21	118.576
3282.01	119.414
3281.81	120.766
3281.61	115.998
3281.41	119.86
3281.2	117.927
3281	124.659
3280.8	121.766
3280.6	122.729
3280.4	125.615
3280.2	116.942
3279.99	121.738
3279.79	121.717
3279.59	123.631
3279.39	118.82
3279.19	122.668
3278.98	116.896
3278.78	119.783
3278.58	118.828
3278.38	114.028
3278.18	119.815
3277.98	119.83
3277.77	112.141
3277.57	111.189
3277.37	125.639
3277.17	119.871
3276.97	120.84
3276.76	112.176
3276.56	113.136
3276.36	111.204
3276.16	119.86
3275.96	122.738
3275.75	105.406
3275.55	113.104
3275.35	116.975
3275.15	120.734
3274.95	117.821
3274.74	124.583
3274.54	115.929
3274.34	114.117
3274.14	111.026
3273.94	116.706
3273.73	117.644
3273.53	122.453
3273.33	121.538
3273.13	122.538
3272.93	111.976
3272.72	119.697
3272.52	116.84
3272.32	117.829
3272.12	119.774
3271.92	114.015
3271.71	114.967
3271.51	125.545
3271.31	120.746
3271.11	118.84
3270.91	113.081
3270.7	123.682
3270.5	119.846
3270.3	124.674
3270.1	116.023
3269.9	120.851
3269.69	120.86
3269.49	114.117
3269.29	124.709
3269.09	120.861
3268.88	114.119
3268.68	121.811
3268.48	122.756
3268.28	114.073
3268.08	122.72
3267.87	117.894
3267.67	121.726
3267.47	120.746
3267.27	120.733
3267.06	113.029
3266.86	126.492
3266.66	123.609
3266.46	125.543
3266.25	113.053
3266.05	115.001
3265.85	122.728
3265.65	111.205
3265.44	128.575
3265.24	116.093
3265.04	120.939
3264.84	123.843
3264.64	123.846
3264.43	121.918
3264.23	118.058
3264.03	115.159
3263.83	121.892
3263.62	121.873
3263.42	116.07
3263.22	122.784
3263.02	120.826
3262.81	115.992
3262.61	116.938
3262.41	121.728
3262.21	120.746
3262	119.769
3261.8	112.068
3261.6	108.222
3261.4	129.39
3261.19	116.887
3260.99	117.856
3260.79	118.848
3260.59	123.698
3260.38	110.121
3260.18	118.817
3259.98	119.825
3259.78	119.896
3259.57	121.884
3259.37	117.075
3259.17	113.221
3258.96	109.339
3258.76	111.251
3258.56	112.252
3258.36	111.285
3258.15	113.203
3257.95	114.146
3257.75	112.197
3257.55	116.989
3257.34	115.052
3257.14	111.177
3256.94	119.813
3256.73	118.825
3256.53	119.763
3256.33	122.626
3256.13	124.529
3255.92	122.586
3255.72	118.724
3255.52	121.596
3255.31	119.668
3255.11	120.652
3254.91	119.697
3254.71	113.93
3254.5	111.038
3254.3	110.065
3254.1	110.049
3253.9	119.647
3253.69	113.881
3253.49	124.457
3253.29	116.776
3253.08	122.555
3252.88	113.922
3252.68	111.057
3252.47	112.999
3252.27	114.936
3252.07	114.947
3251.87	117.839
3251.66	117.84
3251.46	112.065
3251.26	120.712
3251.05	113.002
3250.85	119.71
3250.65	112.949
3250.44	116.756
3250.24	111.908
3250.04	117.631
3249.84	108.004
3249.63	114.708
3249.43	116.625
3249.23	107.997
3249.02	111.856
3248.82	116.678
3248.62	117.661
3248.41	109.999
3248.21	125.394
3248.01	111.032
3247.8	120.668
3247.6	118.74
3247.4	114.881
3247.2	115.825
3246.99	115.806
3246.79	115.782
3246.59	109.991
3246.38	116.681
3246.18	115.678
3245.98	112.744
3245.77	109.826
3245.57	118.431
3245.37	120.294
3245.16	111.612
3244.96	110.641
3244.76	112.553
3244.55	109.721
3244.35	118.376
3244.15	104.016
3243.94	114.579
3243.74	112.653
3243.54	116.499
3243.33	117.485
3243.13	112.712
3242.93	112.727
3242.72	109.861
3242.52	117.549
3242.32	117.563
3242.11	111.814
3241.91	101.262
3241.71	107.977
3241.5	113.73
3241.3	124.288
3241.1	113.737
3240.89	113.742
3240.69	110.856
3240.49	123.323
3240.28	115.635
3240.08	107.951
3239.88	111.786
3239.67	112.746
3239.47	113.718
3239.27	112.757
3239.06	114.674
3238.86	122.376
3238.65	112.771
3238.45	113.716
3238.25	106.021
3238.04	97.3656
3237.84	113.645
3237.64	122.238
3237.43	119.366
3237.23	108.819
3237.03	111.693
3236.82	107.861
3236.62	122.256
3236.41	110.773
3236.21	108.877
3236.01	112.734
3235.8	110.836
3235.6	109.895
3235.4	111.83
3235.19	118.558
3234.99	115.68
3234.79	111.832
3234.58	115.653
3234.38	107.009
3234.18	110.846
3233.97	111.8
3233.77	107.954
3233.56	113.705
3233.36	109.86
3233.16	109.855
3232.95	114.649
3232.75	112.73
3232.54	107.934
3232.34	109.854
3232.14	116.574
3231.93	107.945
3231.73	112.762
3231.53	110.836
3231.32	113.66
3231.12	104.028
3230.91	107.875
3230.71	109.844
3230.51	110.826
3230.3	111.729
3230.1	110.73
3229.89	105.93
3229.69	102.122
3229.49	120.401
3229.28	105.197
3229.08	102.241
3228.87	106.848
3228.67	111.597
3228.47	107.803
3228.26	111.7
3228.06	108.875
3227.85	108.832
3227.65	112.537
3227.45	116.376
3227.24	102.019
3227.04	100.042
3226.83	104.751
3226.63	104.533
3226.43	108.517
3226.22	106.008
3226.02	107.072
3225.81	102.298
3225.61	110.911
3225.41	110.839
3225.2	107.911
3225	98.2749
3224.79	104.01
3224.59	115.476
3224.39	107.752
3224.18	119.202
3223.98	108.648
3223.77	104.811
3223.57	97.1577
3223.36	104.826
3223.16	110.585
3222.96	110.594
3222.75	115.391
3222.55	111.57
3222.34	112.539
3222.14	105.848
3221.94	102.023
3221.73	109.682
3221.53	109.671
3221.32	104.865
3221.12	104.842
3220.91	107.682
3220.71	104.783
3220.51	99.0179
3220.3	111.432
3220.1	107.587
3219.89	107.575
3219.69	113.306
3219.48	105.659
3219.28	107.589
3219.07	102.84
3218.87	96.1699
3218.67	106.654
3218.46	110.423
3218.26	115.221
3218.05	104.696
3217.85	105.793
3217.64	103.994
3217.44	100.243
3217.24	104.851
3217.03	96.9764
3216.83	107.571
3216.62	102.117
3216.42	105.036
3216.21	96.2325
3216.01	109.459
3215.8	107.549
3215.6	104.71
3215.39	101.867
3215.19	93.279
3214.99	111.481
3214.78	104.799
3214.58	101.94
3214.37	105.764
3214.17	100.96
3213.96	104.771
3213.76	106.667
3213.55	98.0505
3213.35	104.75
3213.14	95.1931
3212.94	108.593
3212.74	103.809
3212.53	104.766
3212.32	107.637
3212.12	99.9815
3211.92	102.85
3211.71	105.717
3211.51	104.756
3211.3	96.1405
3211.1	102.831
3210.89	95.1734
3210.69	104.731
3210.48	98.029
3210.28	102.811
3210.07	106.649
3209.87	103.817
3209.66	101.929
3209.46	99.0818
3209.25	94.3163
3209.05	99.1213
3208.84	106.793
3208.64	103.924
3208.44	104.879
3208.23	104.866
3208.02	100.057
3207.82	99.0956
3207.62	96.2214
3207.41	102.914
3207.21	103.863
3207	101.943
3206.8	104.812
3206.59	101.939
3206.39	99.0694
3206.18	102.903
3205.98	107.697
3205.77	97.171
3205.57	108.653
3205.36	100.028
3205.16	105.759
3204.95	103.826
3204.75	100.935
3204.54	99.0126
3204.34	100.929
3204.13	99.9794
3203.93	103.815
3203.72	107.65
3203.52	95.2177
3203.31	100.01
3203.11	100.019
3202.9	101.947
3202.7	93.3421
3202.49	96.22
3202.29	101.975
3202.08	101.032
3201.88	101.999
3201.67	95.3
3201.47	102.96
3201.26	101.984
3201.06	105.798
3200.85	100.042
3200.65	96.2044
3200.44	97.155
3200.23	97.1492
3200.03	93.3157
3199.82	98.0965
3199.62	99.0506
3199.41	96.1794
3199.21	99.0553
3199	95.2339
3198.8	105.765
3198.59	96.2136
3198.39	91.4588
