#Acq. time (s)=	60
#Accumulations=	2
#Range (cm-¹)=	1200...2360
#Windows=	3
#Auto scanning=	Off
#Autofocus=	Off
#Macrospot=	Off
#AutoExposure=	Off
#Spike filter=	Multiple accum.
#Delay time (s)=	2
#Binning=	1
#Readout mode=	Signal
#DeNoise=	Off
#ICS correction=	On
#Dark correction=	Off
#Inst. Process=	Off
#Detector Gain=	Best Dynamic
#Detector ADC=	50 kHz HS
#Detector temperature (°C)=	-60.09
#Instrument=	LabRAM HR Evol
#Detector=	SIN-EM FIVIS
#Objective=	x100_VIS_LWD
#Grating=	1800 (450-850nm)
#ND Filter=	100%
#Laser=	532nm_Edge
#Hole=	30.0125
#Temperature=	0
#Range=	Visible
#StageXY=	75x50mm Scan+
#StageZ=	Z motor
#X (µm)=	0
#Y (µm)=	0
#Z (µm)=	-17.3
#Full time(mm:ss)=	6:23
#Project=	21_08_11
#Sample=	BU20
#Site=	
#Title=	BU20-J-FF1-FI02-V_1800 (450-850nm)_532nm_Edge_100%_x100_VIS_LWD_H30um_60sX2
#Remark=	
#Date=	11.08.2021 17:12
#Acquired=	11.08.2021 17:12:55
1201.69	34.9324
1201.97	33.8697
1202.25	34.9896
1202.52	33.9416
1202.8	37.1484
1203.08	34.9727
1203.36	33.8742
1203.63	36.0143
1203.91	34.9342
1204.19	38.1671
1204.47	32.7862
1204.75	32.7749
1205.02	35.9836
1205.3	35.9675
1205.58	37.0232
1205.86	35.9332
1206.14	35.9163
1206.41	41.2576
1206.69	34.8136
1206.97	40.1583
1207.25	31.5837
1207.52	36.9302
1207.8	36.9232
1208.08	36.9128
1208.36	35.8327
1208.63	40.1009
1208.91	35.818
1209.19	30.4705
1209.47	39.0206
1209.74	33.6693
1210.02	32.5881
1210.3	30.4388
1210.58	34.6992
1210.86	31.4848
1211.13	33.6088
1211.41	32.5295
1211.69	35.7153
1211.96	34.639
1212.24	33.5636
1212.52	35.6839
1212.8	35.6761
1213.08	33.5415
1213.35	37.7931
1213.63	33.5349
1213.91	33.5362
1214.19	31.4075
1214.46	36.7307
1214.74	35.6649
1215.02	33.534
1215.29	35.661
1215.57	34.5885
1215.85	32.449
1216.13	29.2447
1216.41	34.5476
1216.68	34.5368
1216.96	32.4023
1217.24	33.4546
1217.51	33.4467
1217.79	37.6856
1218.07	37.677
1218.35	31.3049
1218.62	33.4252
1218.9	29.1779
1219.18	36.6014
1219.45	31.2904
1219.73	32.3495
1220.01	30.2288
1220.29	27.0453
1220.56	33.4064
1220.84	31.2795
1221.12	36.5752
1221.4	34.4457
1221.67	31.2543
1221.95	34.4173
1222.23	32.2833
1222.5	34.3833
1222.78	33.3107
1223.06	32.2387
1223.33	38.5679
1223.61	33.2723
1223.89	31.1515
1224.16	40.6477
1224.44	42.7524
1224.72	35.3616
1225	36.4202
1225.27	36.4249
1225.55	40.653
1225.83	36.4288
1226.1	39.5935
1226.38	40.6427
1226.66	43.8019
1226.93	39.5624
1227.21	43.7441
1227.49	44.7676
1227.76	40.5308
1228.04	45.7544
1228.32	43.6158
1228.6	46.7591
1228.87	55.2757
1229.15	53.2892
1229.43	50.1019
1229.7	52.1611
1229.98	52.1369
1230.26	57.4076
1230.53	59.4912
1230.81	67.7809
1231.08	65.6766
1231.36	70.9309
1231.64	70.9294
1231.91	71.9711
1232.19	74.0704
1232.47	77.2187
1232.74	74.0592
1233.02	73.0055
1233.3	79.3117
1233.57	79.3188
1233.85	82.4781
1234.13	77.2352
1234.4	71.9946
1234.68	75.1536
1234.96	72.0064
1235.23	75.1695
1235.51	69.9197
1235.79	66.7659
1236.06	67.8095
1236.34	62.5433
1236.62	54.1239
1236.89	60.4096
1237.17	54.0866
1237.44	55.1171
1237.72	55.0974
1238	50.8808
1238.27	52.9628
1238.55	43.516
1238.83	44.5582
1239.1	40.3601
1239.38	49.7912
1239.66	45.5966
1239.93	41.4033
1240.21	42.4525
1240.48	40.358
1240.76	46.6498
1241.04	46.6473
1241.31	42.4463
1241.59	39.297
1241.86	40.3444
1242.14	42.4433
1242.42	43.4957
1242.69	40.3583
1242.97	42.4551
1243.25	46.6476
1243.52	39.3123
1243.8	43.5062
1244.07	40.3585
1244.35	47.6923
1244.63	41.3954
1244.9	43.4801
1245.18	46.6085
1245.46	50.78
1245.73	41.3494
1246.01	46.58
1246.28	46.5791
1246.56	47.6257
1246.83	50.762
1247.11	50.76
1247.39	55.9887
1247.66	48.6477
1247.94	53.8647
1248.21	54.9071
1248.49	57.001
1248.77	55.9595
1249.04	59.0954
1249.32	53.863
1249.59	51.7715
1249.87	59.0835
1250.15	58.0227
1250.42	60.0997
1250.7	64.2677
1250.97	53.808
1251.25	63.2004
1251.52	64.2335
1251.8	65.2659
1252.07	57.9454
1252.35	60.0211
1252.63	54.7912
1252.9	58.9589
1253.18	61.045
1253.45	51.6602
1253.73	55.845
1254	48.5484
1254.28	54.8189
1254.56	49.5988
1254.83	47.5135
1255.11	51.6913
1255.38	48.5563
1255.66	49.602
1255.93	47.5168
1256.21	44.3902
1256.48	45.4378
1256.76	49.6144
1257.03	44.3857
1257.31	42.2929
1257.59	41.2455
1257.86	44.3744
1258.14	46.4587
1258.41	52.7089
1258.69	54.7929
1258.96	45.4058
1259.24	44.364
1259.51	47.5228
1259.79	47.5099
1260.07	41.2363
1260.34	41.2206
1260.61	42.2531
1260.89	40.1595
1261.17	48.503
1261.44	41.2354
1261.72	48.6005
1261.99	46.5715
1262.27	53.8019
1262.54	53.7383
1262.82	55.775
1263.09	69.3993
1263.37	79.8976
1263.64	85.1899
1263.92	104.099
1264.19	107.162
1264.47	92.4966
1264.74	87.2689
1265.02	69.5
1265.29	55.9009
1265.57	54.8549
1265.84	50.6785
1266.12	41.2794
1266.39	38.151
1266.67	38.1595
1266.94	38.1696
1267.22	40.2726
1267.49	37.1463
1267.77	38.2085
1268.04	36.13
1268.32	37.1849
1268.59	31.9529
1268.87	34.0528
1269.14	39.2914
1269.42	37.1881
1269.69	34.0357
1269.97	38.2156
1270.24	30.8795
1270.52	39.2461
1270.79	36.1033
1271.07	37.1455
1271.34	35.0537
1271.62	38.2008
1271.89	39.2583
1272.17	36.1306
1272.44	36.1411
1272.72	33.007
1272.99	36.1601
1273.27	35.1213
1273.54	34.0819
1273.82	33.0394
1274.09	39.3354
1274.36	41.4323
1274.64	37.2364
1274.92	37.2398
1275.19	39.3439
1275.46	37.252
1275.74	36.211
1276.01	41.4669
1276.29	38.325
1276.56	35.1801
1276.84	33.0874
1277.11	38.3488
1277.39	35.2053
1277.66	37.3149
1277.93	41.5269
1278.21	39.4355
1278.48	41.546
1278.76	38.3978
1279.03	39.4485
1279.31	41.5495
1279.58	41.5443
1279.86	45.7485
1280.13	45.752
1280.41	49.9625
1280.68	49.9739
1280.95	60.5153
1281.23	64.7369
1281.5	76.3125
1281.78	86.845
1282.05	103.705
1282.33	130.01
1282.6	187.841
1282.87	258.099
1283.15	344.14
1283.42	549.085
1283.7	781.281
1283.97	1106.71
1284.25	1318.69
1284.52	1179.74
1284.79	788.391
1285.07	454.309
1285.34	265.835
1285.62	173.229
1285.89	118.478
1286.17	96.3394
1286.44	81.5983
1286.71	76.3306
1286.99	66.8463
1287.26	56.3092
1287.53	54.1972
1287.81	47.8819
1288.08	45.7785
1288.36	44.7286
1288.63	42.6297
1288.91	39.4791
1289.18	35.2744
1289.45	39.4944
1289.73	37.3952
1290	36.3435
1290.27	36.3393
1290.55	34.2305
1290.82	38.4428
1291.1	31.0699
1291.37	31.0691
1291.65	34.2282
1291.92	36.337
1292.19	33.1767
1292.47	39.4922
1292.74	32.1212
1293.01	36.3432
1293.29	28.9817
1293.56	34.2652
1293.84	34.2727
1294.11	38.4902
1294.38	35.3254
1294.66	34.2741
1294.93	34.2878
1295.2	32.1946
1295.48	32.2165
1295.75	28.0057
1296.03	26.953
1296.3	32.2389
1296.57	34.3504
1296.85	31.1744
1297.12	31.1684
1297.39	32.2178
1297.67	35.3779
1297.94	29.0422
1298.21	31.1543
1298.49	30.0933
1298.76	30.0891
1299.04	31.1401
1299.31	30.0832
1299.58	27.9761
1299.86	30.0914
1300.13	30.0926
1300.4	30.0917
1300.68	32.2022
1300.95	29.0357
1301.22	31.152
1301.5	32.2133
1301.77	31.1603
1302.04	29.049
1302.32	31.1615
1302.59	24.8223
1302.86	32.213
1303.14	31.1517
1303.41	29.0379
1303.68	32.2062
1303.96	29.0386
1304.23	23.7587
1304.5	25.868
1304.78	34.3092
1305.05	29.0246
1305.32	25.8526
1305.6	34.2859
1305.87	26.8957
1306.14	27.9475
1306.42	30.0561
1306.69	27.9493
1306.96	26.8958
1307.24	29.0051
1307.51	30.0593
1307.78	33.2258
1308.06	25.8406
1308.33	31.1152
1308.6	25.8455
1308.88	27.9593
1309.15	24.7979
1309.42	27.967
1309.69	25.856
1309.97	30.0751
1310.24	30.0749
1310.51	30.0762
1310.79	32.1886
1311.06	23.7468
1311.33	26.9147
1311.61	29.0307
1311.88	27.9797
1312.15	27.982
1312.43	27.9821
1312.7	26.9217
1312.97	26.9201
1313.24	33.2519
1313.52	24.8051
1313.79	25.8602
1314.06	29.0283
1314.34	26.9197
1314.61	26.923
1314.88	25.8703
1315.15	30.098
1315.43	23.7647
1315.7	25.8771
1315.97	24.8194
1316.24	29.0427
1316.52	23.7615
1316.79	30.0978
1317.06	29.0451
1317.33	29.0483
1317.61	30.1068
1317.88	26.9389
1318.15	27.9961
1318.43	26.94
1318.7	26.9394
1318.97	25.882
1319.24	32.2193
1319.52	30.1082
1319.79	22.7138
1320.06	27.995
1320.33	25.8789
1320.61	25.8736
1320.88	29.034
1321.15	25.8584
1321.43	24.7983
1321.7	25.8464
1321.97	30.0617
1322.24	30.0576
1322.52	27.9445
1322.79	28.9925
1323.06	24.7779
1323.33	26.8881
1323.61	26.8889
1323.88	26.8879
1324.15	27.9432
1324.42	28.996
1324.69	26.8906
1324.97	27.9393
1325.24	26.8734
1325.51	30.0195
1325.78	27.8906
1326.06	26.8295
1326.33	24.7217
1326.6	25.7795
1326.87	24.7455
1327.15	26.8611
1327.42	27.9241
1327.69	27.9348
1327.96	25.8369
1328.23	27.9554
1328.51	27.9608
1328.78	24.7904
1329.05	29.0143
1329.32	27.9583
1329.6	23.7365
1329.87	26.8982
1330.14	26.8936
1330.41	23.7243
1330.68	25.8258
1330.96	24.7628
1331.23	23.6985
1331.5	30.0071
1331.77	26.8411
1332.04	27.8856
1332.32	29.9802
1332.59	27.8662
1332.86	27.8571
1333.13	24.6959
1333.4	25.7395
1333.68	24.6821
1333.95	25.7256
1334.22	23.6197
1334.49	26.7633
1334.76	28.8569
1335.04	28.8514
1335.31	24.6505
1335.58	28.8416
1335.85	27.7886
1336.12	27.7848
1336.4	27.7815
1336.67	26.7306
1336.94	31.9692
1337.21	25.6777
1337.48	23.5766
1337.75	26.7132
1338.03	23.567
1338.3	27.7524
1338.57	24.6074
1338.84	25.6536
1339.11	28.7955
1339.38	25.6557
1339.66	26.7037
1339.93	29.8462
1340.2	28.8002
1340.47	28.8
1340.74	24.6099
1341.01	24.6083
1341.29	28.794
1341.56	25.6491
1341.83	25.6439
1342.1	29.8231
1342.37	25.6306
1342.64	28.7643
1342.92	27.7161
1343.19	23.5316
1343.46	26.6688
1343.73	28.7609
1344	25.6235
1344.27	27.7133
1344.54	24.5723
1344.82	22.4763
1345.09	29.7854
1345.36	30.8222
1345.63	24.5456
1345.9	27.6663
1346.17	27.6562
1346.44	27.6481
1346.72	27.6396
1346.99	31.8026
1347.26	24.4988
1347.53	27.6225
1347.8	27.6199
1348.07	28.6601
1348.34	28.6562
1348.61	30.7348
1348.89	27.6039
1349.16	27.5988
1349.43	26.5526
1349.7	27.589
1349.97	32.7886
1350.24	25.4963
1350.51	24.4496
1350.79	25.4854
1351.06	27.5593
1351.33	26.5164
1351.6	25.4758
1351.87	25.4782
1352.14	29.6437
1352.41	25.4909
1352.68	27.5756
1352.95	27.5959
1353.23	27.6251
1353.5	24.4815
1353.77	25.486
1354.04	28.5727
1354.31	29.6119
1354.58	31.6943
1354.85	27.5297
1355.12	28.5601
1355.39	26.49
1355.66	29.6137
1355.94	28.5673
1356.21	29.6032
1356.48	33.7551
1356.75	26.4824
1357.02	28.5559
1357.29	25.4369
1357.56	26.4707
1357.83	25.4281
1358.1	25.4237
1358.37	25.419
1358.64	25.4138
1358.92	27.4843
1359.19	31.6289
1359.46	23.3277
1359.73	28.5029
1360	26.4228
1360.27	28.489
1360.54	28.4863
1360.81	29.5215
1361.08	29.5207
1361.35	25.376
1361.62	30.5518
1361.89	24.335
1362.16	30.5454
1362.43	26.4022
1362.7	29.5097
1362.98	28.4786
1363.25	28.4828
1363.52	33.6654
1363.79	27.451
1364.06	29.5209
1364.33	36.7682
1364.6	31.5844
1364.87	34.6837
1365.14	37.7808
1365.41	36.7374
1365.68	33.6254
1365.95	30.5145
1366.22	27.4038
1366.49	35.6648
1366.76	26.3556
1367.03	34.6206
1367.3	29.4557
1367.57	33.5932
1367.85	33.5953
1368.12	32.5636
1368.38	33.5994
1368.66	34.636
1368.93	44.9784
1369.2	65.653
1369.47	89.4222
1369.74	62.5368
1370.01	39.7871
1370.28	35.6478
1370.55	35.6418
1370.82	31.5013
1371.09	34.5887
1371.36	31.4792
1371.63	36.6257
1371.9	33.5188
1372.17	29.3852
1372.44	31.4415
1372.71	38.6523
1372.98	30.4027
1373.25	39.6738
1373.52	35.5488
1373.79	28.334
1374.06	36.5742
1374.33	38.6319
1374.6	34.507
1374.87	33.4773
1375.14	33.4813
1375.41	32.4509
1375.68	32.453
1375.95	41.7164
1376.22	35.5278
1376.49	37.5758
1376.76	40.6459
1377.03	36.532
1377.3	38.5989
1377.57	36.554
1377.84	37.6012
1378.11	41.7468
1378.38	40.7251
1378.65	45.8799
1378.92	38.658
1379.19	44.8374
1379.46	42.7682
1379.73	46.8751
1380	43.7463
1380.27	45.7846
1380.54	42.6756
1380.81	51.9439
1381.08	52.9614
1381.35	51.9097
1381.62	50.856
1381.89	47.7532
1382.16	51.8429
1382.43	54.9001
1382.7	56.9374
1382.97	52.8168
1383.24	61.0112
1383.51	65.1007
1383.78	63.0522
1384.05	66.1322
1384.32	64.0929
1384.59	80.519
1384.86	84.6582
1385.13	109.314
1385.39	127.823
1385.66	154.533
1385.93	194.623
1386.2	277.843
1386.47	422.679
1386.74	700.735
1387.01	1239.39
1387.28	2092.37
1387.55	2727.89
1387.82	2212
1388.09	1114.22
1388.36	531.895
1388.63	301.343
1388.9	193.537
1389.17	142.231
1389.44	112.421
1389.71	89.7729
1389.98	77.4109
1390.25	71.2713
1390.51	63.0366
1390.78	60.9794
1391.05	53.8026
1391.32	55.8404
1391.59	50.7044
1391.86	50.6926
1392.13	46.5881
1392.4	39.4152
1392.67	45.5525
1392.94	39.4067
1393.21	45.5438
1393.48	41.4466
1393.75	41.4437
1394.02	42.4644
1394.28	39.393
1394.55	41.4421
1394.82	40.4261
1395.09	38.3841
1395.36	39.4104
1395.63	44.5279
1395.9	36.3362
1396.17	34.2853
1396.44	37.351
1396.71	35.2985
1396.98	36.3147
1397.25	35.2878
1397.51	31.1958
1397.78	38.3575
1398.05	37.3388
1398.32	34.2727
1398.59	33.2516
1398.86	37.3496
1399.13	34.284
1399.4	37.358
1399.66	28.1468
1399.93	39.4099
1400.2	36.3475
1400.47	37.3768
1400.74	35.3287
1401.01	37.3801
1401.28	35.3326
1401.55	35.3422
1401.82	33.3108
1402.09	35.382
1402.35	34.3728
1402.62	36.4374
1402.89	28.2315
1403.16	28.2328
1403.43	33.3608
1403.7	36.4212
1403.97	34.3709
1404.24	34.3693
1404.51	37.4432
1404.77	40.5141
1405.04	34.3538
1405.31	34.3479
1405.58	39.468
1405.85	42.5387
1406.12	41.5099
1406.39	47.6612
1406.65	44.5894
1406.92	50.7443
1407.19	57.924
1407.46	64.0792
1407.73	71.2605
1408	85.6202
1408.27	116.391
1408.53	137.938
1408.8	161.54
1409.07	169.76
1409.34	149.255
1409.61	109.253
1409.88	85.6438
1410.15	58.9611
1410.41	51.7668
1410.68	45.6053
1410.95	46.622
1411.22	37.3948
1411.49	40.4656
1411.76	42.5196
1412.02	36.3814
1412.29	32.2972
1412.56	34.3908
1412.83	32.3659
1413.1	32.35
1413.36	32.2961
1413.63	33.3252
1413.9	26.1646
1414.17	31.3146
1414.44	33.3649
1414.71	29.2599
1414.97	29.2602
1415.24	29.2608
1415.51	32.3436
1415.78	31.3198
1416.05	30.296
1416.32	30.2992
1416.58	27.2213
1416.85	31.334
1417.12	30.3103
1417.39	29.2849
1417.66	27.2306
1417.92	26.2039
1418.19	30.3165
1418.46	27.2335
1418.73	27.2349
1419	29.288
1419.26	29.283
1419.53	32.3589
1419.8	25.1636
1420.07	28.2394
1420.34	33.3668
1420.61	29.2546
1420.87	30.2776
1421.14	25.1467
1421.41	27.2054
1421.68	31.3237
1421.94	30.3055
1422.21	29.2934
1422.48	27.2582
1422.75	27.2851
1423.02	27.2532
1423.28	27.1602
1423.55	32.3086
1423.82	30.2291
1424.09	27.1449
1424.36	30.2344
1424.62	33.3193
1424.89	27.1869
1425.16	28.1975
1425.43	32.3161
1425.69	27.1847
1425.96	29.2324
1426.23	31.2759
1426.5	29.2174
1426.77	31.2589
1427.03	26.1251
1427.3	32.2601
1427.57	24.0629
1427.84	23.0372
1428.1	29.1806
1428.37	26.1105
1428.64	27.1367
1428.91	25.0915
1429.17	27.144
1429.44	28.174
1429.71	23.0575
1429.98	26.1381
1430.24	30.2463
1430.51	25.1305
1430.78	24.114
1431.05	20.0137
1431.31	24.1201
1431.58	31.3004
1431.85	26.1631
1432.12	31.288
1432.38	25.1269
1432.65	27.168
1432.92	27.1571
1433.19	26.1219
1433.45	22.0183
1433.72	28.1596
1433.99	28.1687
1434.26	25.1042
1434.52	26.1302
1434.79	29.2049
1435.06	26.1304
1435.32	26.1294
1435.59	25.1034
1435.86	26.1264
1436.13	21.0019
1436.4	27.1463
1436.66	25.0955
1436.93	26.1189
1437.2	24.0684
1437.46	26.1151
1437.73	25.0918
1438	18.9496
1438.26	31.2447
1438.53	21.0015
1438.8	26.1253
1439.07	26.1289
1439.33	23.06
1439.6	24.0915
1439.87	23.07
1440.13	22.0464
1440.4	26.1489
1440.67	24.0993
1440.94	29.2255
1441.2	25.1201
1441.47	26.1428
1441.74	25.1217
1442	21.0214
1442.27	24.1021
1442.54	23.075
1442.8	21.0206
1443.07	23.0681
1443.34	24.0909
1443.61	26.14
1443.87	24.0907
1444.14	27.1733
1444.41	25.1287
1444.67	26.1633
1444.94	24.1107
1445.21	23.0827
1445.47	23.0808
1445.74	25.1305
1446.01	25.1287
1446.27	23.0757
1446.54	26.1507
1446.81	24.0975
1447.07	26.1452
1447.34	26.1424
1447.61	25.1165
1447.87	24.095
1448.14	23.0754
1448.41	26.1544
1448.68	20.0006
1448.94	22.0504
1449.21	25.1243
1449.48	21.0192
1449.74	27.1664
1450.01	22.0389
1450.27	23.0623
1450.54	24.0855
1450.81	25.1085
1451.07	25.1061
1451.34	23.0544
1451.61	21.0035
1451.87	23.0515
1452.14	22.0273
1452.41	22.0282
1452.67	21.0061
1452.94	19.9837
1453.21	22.034
1453.47	24.0822
1453.74	19.9818
1454.01	24.0807
1454.27	17.9327
1454.54	23.056
1454.81	25.1037
1455.07	24.0786
1455.34	22.0336
1455.6	23.0611
1455.87	23.0615
1456.14	22.0353
1456.4	22.0318
1456.67	23.0525
1456.94	18.9529
1457.2	26.1227
1457.47	22.024
1457.74	19.9754
1458	22.0246
1458.27	19.977
1458.53	25.1008
1458.8	22.028
1459.07	23.0535
1459.33	23.0529
1459.6	23.0515
1459.86	23.05
1460.13	25.0971
1460.4	23.0461
1460.66	20.995
1460.93	24.0644
1461.2	22.0135
1461.46	25.0811
1461.73	24.0532
1461.99	22.0019
1462.26	20.9742
1462.53	19.9467
1462.79	21.9874
1463.06	20.9601
1463.32	24.0252
1463.59	23.0084
1463.86	18.9273
1464.12	23.0281
1464.39	23.0376
1464.65	24.058
1464.92	21.9648
1465.18	21.9449
1465.45	20.9182
1465.72	26.0296
1465.98	19.9054
1466.25	22.9582
1466.52	19.8918
1466.78	21.9354
1467.05	21.9342
1467.31	23.9729
1467.58	20.9115
1467.84	20.9112
1468.11	23.9709
1468.38	22.9499
1468.64	21.928
1468.91	21.9254
1469.17	26.0003
1469.44	17.8392
1469.71	22.9315
1469.97	21.9093
1470.24	20.8879
1470.5	20.8861
1470.77	22.9215
1471.03	22.917
1471.3	20.8768
1471.56	19.8569
1471.83	21.8926
1472.1	22.9103
1472.36	21.8915
1472.63	21.8903
1472.89	21.8875
1473.16	22.902
1473.42	19.846
1473.69	19.8444
1473.95	22.897
1474.22	21.8809
1474.48	21.8829
1474.75	20.8655
1475.02	20.8651
1475.28	22.899
1475.55	18.8257
1475.81	22.8937
1476.08	20.857
1476.34	17.8024
1476.61	21.8678
1476.88	20.8486
1477.14	22.8818
1477.41	22.8812
1477.67	25.9298
1477.94	18.8085
1478.2	23.8881
1478.47	20.8356
1478.73	22.8646
1479	21.8445
1479.26	16.7609
1479.53	22.851
1479.79	19.7979
1480.06	22.8369
1480.32	22.832
1480.59	23.8442
1480.85	21.8116
1481.12	20.798
1481.38	21.8157
1481.65	20.8048
1481.91	22.8391
1482.18	21.8277
1482.44	22.8436
1482.71	19.7998
1482.97	18.7859
1483.24	24.879
1483.51	21.8321
1483.77	20.8099
1484.04	21.8138
1484.3	21.7928
1484.57	22.7767
1484.83	20.7393
1485.1	19.7117
1485.36	19.7482
1485.62	20.7735
1485.89	21.7961
1486.15	23.8026
1486.42	20.7697
1486.69	20.7745
1486.95	20.7697
1487.22	23.8035
1487.48	22.7872
1487.75	19.7459
1488.01	22.779
1488.28	22.7736
1488.54	19.7333
1488.8	18.7191
1489.07	17.7057
1489.33	18.716
1489.6	22.7625
1489.86	26.8091
1490.13	25.7948
1490.39	20.7331
1490.66	20.7289
1490.92	20.7267
1491.19	23.7587
1491.45	18.7034
1491.72	18.7043
1491.98	22.748
1492.25	17.692
1492.51	21.735
1492.78	21.7352
1493.04	19.712
1493.3	18.7003
1493.57	18.7004
1493.83	22.745
1494.1	19.7144
1494.36	19.7141
1494.63	19.7115
1494.89	23.7486
1495.16	20.7093
1495.42	24.7426
1495.69	20.699
1495.95	21.7057
1496.22	21.7032
1496.48	20.6904
1496.74	22.7088
1497.01	17.6625
1497.27	18.6706
1497.54	22.7068
1497.8	19.6794
1498.07	20.689
1498.33	20.6897
1498.59	21.6999
1498.86	19.6825
1499.12	20.6936
1499.39	22.7147
1499.65	17.6678
1499.92	19.687
1500.18	20.6959
1500.45	17.6668
1500.71	20.6939
1500.97	21.6986
1501.24	21.6971
1501.5	21.6965
1501.77	20.6867
1502.03	19.6763
1502.29	20.6812
1502.56	20.6765
1502.82	21.6833
1503.09	19.6621
1503.35	21.6779
1503.62	18.6551
1503.88	23.6983
1504.14	19.6649
1504.41	22.6896
1504.67	22.6875
1504.94	22.6843
1505.2	22.6793
1505.47	22.6696
1505.73	17.6306
1505.99	27.7044
1506.26	19.6449
1506.52	21.6636
1506.78	23.6796
1507.05	20.6578
1507.31	21.6657
1507.58	21.6644
1507.84	23.678
1508.1	23.6783
1508.37	18.6411
1508.63	17.6339
1508.9	18.6414
1509.16	23.6792
1509.42	18.6425
1509.69	17.6374
1509.95	18.6417
1510.22	20.6533
1510.48	22.6631
1510.74	19.6363
1511.01	22.6491
1511.27	22.6375
1511.53	21.62
1511.8	25.63
1512.06	17.5811
1512.33	20.5895
1512.59	19.5807
1512.85	19.5767
1513.12	19.5745
1513.38	19.5772
1513.64	19.5857
1513.91	17.5798
1514.17	20.5915
1514.44	21.5917
1514.7	21.5856
1514.96	19.5731
1515.23	20.5707
1515.49	21.5677
1515.75	20.5596
1516.02	18.5519
1516.28	18.5505
1516.54	21.5571
1516.81	22.559
1517.07	18.5487
1517.33	18.5498
1517.6	16.5472
1517.86	17.5515
1518.13	19.5587
1518.39	22.5691
1518.65	22.571
1518.92	20.5664
1519.18	18.5609
1519.44	19.5641
1519.71	20.5659
1519.97	19.5612
1520.23	17.5555
1520.5	19.5637
1520.76	19.5655
1521.02	18.563
1521.29	17.5592
1521.55	19.5644
1521.81	16.5528
1522.08	19.5601
1522.34	19.5581
1522.6	18.5523
1522.87	23.5601
1523.13	17.5382
1523.39	20.5389
1523.66	20.5344
1523.92	18.5277
1524.18	23.5315
1524.45	18.5259
1524.71	19.5285
1524.97	20.5308
1525.24	18.5301
1525.5	21.5389
1525.76	22.5463
1526.03	21.549
1526.29	17.5417
1526.55	20.5488
1526.81	17.5396
1527.08	19.5426
1527.34	17.5369
1527.6	19.5395
1527.87	19.5374
1528.13	18.5335
1528.39	18.5318
1528.66	18.5307
1528.92	19.532
1529.18	20.5326
1529.44	21.531
1529.71	18.5254
1529.97	20.5295
1530.23	17.5285
1530.5	16.5303
1530.76	20.541
1531.02	17.5359
1531.28	20.5408
1531.55	21.5434
1531.81	15.5294
1532.07	19.5384
1532.34	17.5387
1532.6	19.5499
1532.86	18.5534
1533.13	19.5596
1533.39	19.5615
1533.65	17.5553
1533.91	20.5638
1534.18	19.5593
1534.44	20.5603
1534.7	19.5557
1534.96	23.5637
1535.23	18.5413
1535.49	21.5409
1535.75	19.5329
1536.01	20.5279
1536.28	20.5204
1536.54	16.5106
1536.8	17.5088
1537.06	19.5049
1537.33	17.5046
1537.59	19.502
1537.85	18.4958
1538.11	18.4937
1538.38	21.4898
1538.64	20.4944
1538.9	18.5046
1539.17	19.5193
1539.43	19.5297
1539.69	18.5359
1539.95	20.5492
1540.22	18.5498
1540.48	16.548
1540.74	17.5431
1541	20.5499
1541.27	16.5359
1541.53	19.5376
1541.79	15.526
1542.05	27.5394
1542.32	16.5198
1542.58	19.5191
1542.84	18.5139
1543.1	20.5092
1543.36	21.5008
1543.63	16.5012
1543.89	18.502
1544.15	17.5051
1544.41	17.5107
1544.67	18.5146
1544.94	20.5249
1545.2	16.524
1545.46	20.5325
1545.72	19.5339
1545.99	19.5324
1546.25	16.528
1546.51	22.5407
1546.77	17.5336
1547.04	18.5385
1547.3	16.5325
1547.56	19.5258
1547.82	16.5222
1548.08	19.5246
1548.35	18.5341
1548.61	19.5194
1548.87	18.4967
1549.13	17.49
1549.39	18.4984
1549.66	18.5143
1549.92	17.5424
1550.18	17.5594
1550.44	18.5899
1550.71	17.5696
1550.97	16.568
1551.23	16.5662
1551.49	23.5827
1551.75	21.5843
1552.01	16.5739
1552.28	19.5846
1552.54	17.5739
1552.8	18.562
1553.06	18.5586
1553.32	21.5669
1553.58	15.5454
1553.85	17.5464
1554.11	17.5411
1554.37	18.5358
1554.63	18.5333
1554.89	18.5319
1555.16	19.5332
1555.42	17.5308
1555.68	17.5321
1555.94	14.5238
1556.2	16.5271
1556.46	19.5332
1556.73	16.5292
1556.99	16.5297
1557.25	18.5326
1557.51	17.5286
1557.77	13.5174
1558.04	19.5209
1558.3	17.5128
1558.56	17.5073
1558.82	16.5024
1559.08	21.4983
1559.34	16.4957
1559.61	19.4921
1559.87	18.4904
1560.13	18.489
1560.39	15.4897
1560.65	17.488
1560.91	15.4901
1561.17	18.4913
1561.44	15.4965
1561.7	16.5019
1561.96	18.5029
1562.22	17.5021
1562.48	17.5005
1562.74	21.5017
1563	14.5
1563.27	19.498
1563.53	21.5041
1563.79	18.5111
1564.05	18.5142
1564.31	20.5155
1564.57	17.5065
1564.83	16.4808
1565.09	16.4415
1565.36	18.3981
1565.62	17.47
1565.88	15.4993
1566.14	17.494
1566.4	16.4811
1566.66	17.4911
1566.92	19.5095
1567.18	18.508
1567.45	18.4943
1567.71	15.4958
1567.97	18.4976
1568.23	14.4995
1568.49	16.4987
1568.75	12.4946
1569.01	16.4886
1569.27	18.4869
1569.54	18.4883
1569.8	17.4895
1570.06	16.4904
1570.32	16.4902
1570.58	17.4889
1570.84	16.4883
1571.1	18.4842
1571.36	19.4796
1571.62	16.4821
1571.89	19.4768
1572.15	16.4772
1572.41	19.4701
1572.67	16.4725
1572.93	18.4662
1573.19	15.4691
1573.45	17.4649
1573.71	14.4733
1573.97	16.4733
1574.23	17.4758
1574.49	17.4802
1574.76	16.4853
1575.02	17.488
1575.28	18.4887
1575.54	18.4874
1575.8	18.4872
1576.06	19.4849
1576.32	17.4814
1576.58	17.4749
1576.84	17.4685
1577.1	15.4667
1577.36	14.4643
1577.62	14.4598
1577.88	17.4478
1578.14	18.4435
1578.41	16.4494
1578.67	18.443
1578.93	16.4492
1579.19	14.4559
1579.45	17.4494
1579.71	17.4509
1579.97	16.4542
1580.23	18.4482
1580.49	15.455
1580.75	19.4402
1581.01	18.4411
1581.27	17.4409
1581.53	17.4368
1581.79	17.4354
1582.05	19.4267
1582.31	18.429
1582.57	16.4356
1582.84	17.4311
1583.1	18.427
1583.36	17.429
1583.62	15.4368
1583.88	17.4301
1584.14	17.4313
1584.4	18.4283
1584.66	16.4361
1584.92	14.4429
1585.18	19.4229
1585.44	18.4256
1585.7	17.4258
1585.96	19.4124
1586.22	15.4274
1586.48	16.4205
1586.74	20.3989
1587	14.4272
1587.26	17.4111
1587.52	14.4262
1587.78	17.4122
1588.04	18.4091
1588.3	15.4262
1588.56	14.4327
1588.82	18.4165
1589.08	21.4052
1589.34	18.4193
1589.6	17.4233
1589.87	17.4245
1590.13	19.4181
1590.39	15.4368
1590.65	19.4198
1590.91	16.4322
1591.17	16.4312
1591.43	16.4299
1591.69	17.4222
1591.95	18.4118
1592.21	17.4119
1592.47	15.4204
1592.73	16.4094
1592.99	17.3973
1593.25	17.3895
1593.51	18.3781
1593.77	15.3954
1594.03	18.3747
1594.29	17.383
1594.55	18.3804
1594.81	18.3827
1595.07	19.3792
1595.33	16.3886
1595.59	18.3746
1595.85	18.3745
1596.11	18.3746
1596.37	17.3819
1596.63	18.3763
1596.89	17.3844
1597.15	19.3733
1597.41	16.3926
1597.66	16.3913
1597.92	18.3753
1598.18	19.3633
1598.44	17.3729
1598.7	20.3472
1598.96	23.3209
1599.22	17.3637
1599.48	20.3369
1599.74	17.358
1600	15.3714
1600.26	16.3593
1600.52	20.3191
1600.78	17.3399
1601.04	22.2867
1601.3	16.339
1601.56	15.3455
1601.82	18.3121
1602.08	14.3498
1602.34	17.3144
1602.6	17.3105
1602.86	19.285
1603.12	15.3271
1603.38	15.3256
1603.64	19.28
1603.9	15.3253
1604.16	14.337
1604.41	17.3034
1604.67	15.3262
1604.93	18.2981
1605.19	15.3302
1605.45	20.1999
1605.71	18.3764
1605.97	17.3274
1606.23	17.3774
1606.49	17.353
1606.75	13.6579
1607.01	20.0295
1607.27	16.4208
1607.53	17.384
1607.79	18.3041
1608.05	16.4956
1608.31	13.8116
1608.56	17.3405
1608.82	18.7582
1609.08	18.741
1609.34	17.9087
1609.6	16.9204
1609.86	17.2155
1610.12	16.4825
1610.38	17.1748
1610.64	16.626
1610.9	17.5054
1611.16	17.2771
1611.42	16.4044
1611.68	17.0258
1611.93	16.3566
1612.19	18.4602
1612.45	17.4209
1612.71	14.6938
1612.97	18.3659
1613.23	17.0366
1613.49	19.8266
1613.75	15.9481
1614.01	16.559
1614.27	16.9137
1614.53	16.8805
1614.78	16.4214
1615.04	16.5964
1615.3	17.3238
1615.56	17.0091
1615.82	16.6496
1616.08	15.4963
1616.34	16.824
1616.6	17.6643
1616.86	17.6708
1617.12	16.5056
1617.37	14.3453
1617.63	16.1494
1617.89	15.3977
1618.15	17.9889
1618.41	17.9111
1618.67	15.2048
1618.93	16.2037
1619.19	17.5009
1619.44	16.0705
1619.7	14.799
1619.96	17.4707
1620.22	17.0103
1620.48	16.4251
1620.74	17.5164
1621	16.0391
1621.26	17.5782
1621.51	15.3251
1621.77	14.6286
1622.03	18.1834
1622.29	16.5847
1622.55	16.8889
1622.81	17.2626
1623.07	17.6368
1623.33	16.5809
1623.58	18.3073
1623.84	14.9878
1624.1	17.1505
1624.36	16.3674
1624.62	14.0837
1624.88	16.5365
1625.14	15.5766
1625.39	15.7074
1625.65	16.4702
1625.91	16.2576
1626.17	18.3446
1626.43	16.6856
1626.69	16.1978
1626.94	16.5408
1627.2	16.613
1627.46	16.4879
1627.72	17.5026
1627.98	17.8532
1628.24	15.6797
1628.5	15.0488
1628.75	17.0902
1629.01	15.1575
1629.27	15.9402
1629.53	14.2918
1629.79	14.7804
1630.05	16.269
1630.3	16.2474
1630.41	16.2516
1630.67	17.2369
1630.94	21.1789
1631.2	13.3008
1631.46	19.2159
1631.72	20.2033
1631.98	15.2764
1632.24	12.3247
1632.5	18.2443
1632.77	17.2498
1633.03	22.1702
1633.29	15.273
1633.55	19.2176
1633.81	16.263
1634.07	16.2637
1634.33	16.2639
1634.59	18.2349
1634.86	18.2341
1635.12	17.2473
1635.38	16.2603
1635.64	16.2585
1635.9	17.2418
1636.16	18.2247
1636.42	16.2521
1636.68	17.2341
1636.95	19.201
1637.21	17.2307
1637.47	16.2451
1637.73	18.2125
1637.99	16.242
1638.25	17.2259
1638.51	11.32
1638.77	14.2731
1639.04	16.2417
1639.3	15.2573
1639.56	17.2256
1639.82	18.2094
1640.08	16.243
1640.34	16.2459
1640.6	17.2323
1640.86	16.2474
1641.12	17.2304
1641.38	19.198
1641.65	15.259
1641.91	19.196
1642.17	16.242
1642.43	17.2258
1642.69	17.2253
1642.95	16.2409
1643.21	16.24
1643.47	17.2227
1643.73	18.2047
1644	17.2173
1644.26	16.2326
1644.52	17.2159
1644.78	17.2191
1645.04	13.2843
1645.3	18.2063
1645.56	19.1892
1645.82	17.2191
1646.08	16.2332
1646.34	17.2155
1646.6	18.1985
1646.86	15.2451
1647.12	15.244
1647.39	14.2591
1647.65	18.1934
1647.91	21.1455
1648.17	24.1009
1648.43	16.2347
1648.69	20.185
1648.95	16.2436
1649.21	15.2582
1649.47	15.2561
1649.73	16.2422
1649.99	18.2186
1650.25	19.2061
1650.51	17.24
1650.77	20.1991
1651.03	15.2741
1651.29	17.2454
1651.55	18.2309
1651.82	24.144
1652.08	20.2027
1652.34	18.2289
1652.6	22.1683
1652.86	19.2121
1653.12	21.1831
1653.38	18.2287
1653.64	18.2306
1653.9	18.2316
1654.16	18.2325
1654.42	20.2056
1654.68	18.2373
1654.94	18.2418
1655.2	18.2479
1655.46	14.3072
1655.72	17.2708
1655.98	17.2731
1656.24	17.2744
1656.5	18.2619
1656.76	16.2867
1657.02	17.2722
1657.28	19.2443
1657.54	19.2431
1657.8	17.268
1658.06	15.2926
1658.33	18.2499
1658.59	18.2472
1658.85	16.2722
1659.11	19.2279
1659.37	16.2669
1659.63	17.2513
1659.89	15.2814
1660.15	18.2417
1660.41	19.2311
1660.67	13.3163
1660.93	17.2655
1661.19	16.2813
1661.45	17.2708
1661.71	16.2745
1661.97	12.3354
1662.23	15.3206
1662.49	18.2901
1662.75	18.2835
1663.01	16.3079
1663.27	15.2956
1663.53	16.2769
1663.79	17.275
1664.05	16.2897
1664.31	19.2577
1664.57	15.315
1664.83	17.2858
1665.09	16.2686
1665.35	18.2688
1665.61	18.2932
1665.87	15.3248
1666.13	15.3296
1666.39	16.2466
1666.65	18.2433
1666.91	18.2614
1667.17	16.2836
1667.43	16.2822
1667.69	15.2928
1667.95	16.2775
1668.21	15.2937
1668.46	16.2919
1668.72	17.2845
1668.99	17.2853
1669.25	16.2981
1669.5	14.3232
1669.76	14.3196
1670.02	14.324
1670.28	17.299
1670.54	19.2761
1670.8	17.2971
1671.06	16.308
1671.32	16.3073
1671.58	18.2863
1671.84	17.2987
1672.1	14.3337
1672.36	14.3333
1672.62	17.2991
1672.88	15.3227
1673.14	16.3121
1673.4	16.3136
1673.66	13.3492
1673.92	15.3291
1674.18	18.2982
1674.44	17.3117
1674.7	18.305
1674.96	16.328
1675.22	17.3188
1675.47	14.3496
1675.73	17.3185
1675.99	18.3092
1676.25	19.2998
1676.51	16.3309
1676.77	17.3201
1677.03	15.3396
1677.29	18.3066
1677.55	15.3354
1677.81	15.3322
1678.07	15.329
1678.33	16.3153
1678.59	11.3698
1678.85	16.3115
1679.11	15.3217
1679.37	17.2968
1679.63	15.3187
1679.88	16.3057
1680.14	16.304
1680.4	16.3024
1680.66	16.3012
1680.92	16.3007
1681.18	16.3006
1681.44	13.3368
1681.7	18.2764
1681.96	15.3129
1682.22	15.3129
1682.48	16.3003
1682.73	15.3121
1682.99	16.2999
1683.25	14.324
1683.51	15.3112
1683.77	16.2974
1684.03	16.2954
1684.29	16.2943
1684.55	17.2811
1684.81	16.2932
1685.07	11.3557
1685.33	15.3056
1685.58	17.2808
1685.84	17.2816
1686.1	16.2965
1686.36	15.3114
1686.62	16.3004
1686.88	15.3122
1687.14	16.2985
1687.4	15.3089
1687.66	16.2949
1687.92	15.3059
1688.17	15.3041
1688.43	17.2755
1688.69	14.3113
1688.95	14.3088
1689.21	14.3063
1689.47	17.2624
1689.73	16.2726
1689.99	15.2889
1690.25	17.2645
1690.5	15.2931
1690.76	17.2678
1691.02	17.2684
1691.28	13.3235
1691.54	15.298
1691.8	16.2846
1692.06	16.2833
1692.31	21.2135
1692.57	14.304
1692.83	14.3004
1693.09	16.2682
1693.35	15.2778
1693.61	14.2899
1693.87	15.2721
1694.13	15.2691
1694.39	17.2376
1694.64	17.2383
1694.9	18.2246
1695.16	16.2552
1695.42	16.2563
1695.68	15.2725
1695.94	14.2893
1696.19	13.3045
1696.45	14.2894
1696.71	13.3022
1696.97	14.2843
1697.23	14.2805
1697.49	14.277
1697.74	13.2898
1698	16.2404
1698.26	16.2378
1698.52	15.252
1698.78	13.2834
1699.04	17.2193
1699.3	16.2362
1699.55	14.2683
1699.81	15.2515
1700.07	16.233
1700.33	14.2649
1700.59	17.2155
1700.85	11.3122
1701.1	15.2451
1701.36	15.2424
1701.62	14.2563
1701.88	18.1856
1702.14	16.2165
1702.4	14.249
1702.65	17.1963
1702.91	14.2478
1703.17	13.2641
1703.43	13.2631
1703.69	16.2105
1703.94	15.2298
1704.2	14.2486
1704.46	14.2485
1704.72	15.2303
1704.98	15.2298
1705.24	15.23
1705.49	15.2289
1705.75	15.2261
1706.01	14.2406
1706.27	14.2371
1706.53	16.1968
1706.78	15.2117
1707.04	16.1892
1707.3	16.1844
1707.56	15.1987
1707.82	14.2137
1708.07	19.1083
1708.33	16.1628
1708.59	14.1997
1708.85	14.1969
1709.11	12.2373
1709.36	15.1736
1709.62	15.1736
1709.88	16.153
1710.14	13.2166
1710.4	14.1976
1710.65	17.1371
1710.91	14.2007
1711.17	15.1814
1711.43	15.1823
1711.68	13.2229
1711.94	16.1585
1712.2	16.1525
1712.46	14.1888
1712.72	16.1385
1712.97	15.1554
1713.23	16.126
1713.49	13.1905
1713.75	12.2116
1714.01	16.1174
1714.26	16.1163
1714.52	17.0922
1714.78	15.139
1715.04	14.1669
1715.29	14.168
1715.55	16.1215
1715.81	13.1889
1716.07	15.1402
1716.32	15.1365
1716.58	17.0842
1716.84	16.1018
1717.1	19.9961
1717.35	13.1613
1717.61	17.0546
1717.87	14.1252
1718.13	15.0952
1718.38	16.0661
1718.64	15.0912
1718.9	15.0916
1719.16	17.0383
1719.41	15.0901
1719.67	15.0925
1719.93	15.0919
1720.19	15.0898
1720.44	15.0866
1720.7	15.082
1720.96	17.0253
1721.22	14.1035
1721.47	12.1553
1721.73	14.0966
1721.99	17.0087
1722.25	17.9761
1722.5	15.0576
1722.76	16.0259
1723.02	15.0523
1723.27	14.0801
1723.53	13.109
1723.79	14.0786
1724.05	16.9903
1724.3	16.9866
1724.56	16.9813
1724.82	13.0946
1725.08	15.0292
1725.33	15.024
1725.59	14.0521
1725.85	15.0205
1726.11	15.0212
1726.36	15.9884
1726.62	11.1409
1726.88	15.9806
1727.13	12.1077
1727.39	12.1096
1727.65	13.0767
1727.9	15.0102
1728.16	15.9662
1728.42	14.0099
1728.68	16.8886
1728.93	14.9573
1729.19	13.035
1729.45	16.9052
1729.7	16.9048
1729.96	14.9656
1730.22	13.9972
1730.47	14.0034
1730.73	15.9458
1730.99	14.0137
1731.25	14.9802
1731.5	15.9461
1731.76	13.0457
1732.02	15.9432
1732.27	14.009
1732.53	14.9725
1732.79	13.0373
1733.04	13.9982
1733.3	15.922
1733.56	18.8103
1733.81	13.9828
1734.07	14.9424
1734.33	16.8649
1734.59	13.0059
1734.84	15.8911
1735.1	15.8871
1735.36	14.9214
1735.61	17.8073
1735.87	16.8433
1736.13	15.8789
1736.38	13.9523
1736.64	17.7987
1736.9	18.7581
1737.15	14.9085
1737.41	12.0212
1737.67	13.9418
1737.92	12.9776
1738.18	12.9749
1738.44	16.8156
1738.69	14.89
1738.95	14.8853
1739.21	15.8388
1739.46	14.8721
1739.72	14.8661
1739.98	16.7782
1740.23	15.815
1740.49	15.8115
1740.74	16.7659
1741	15.8045
1741.26	17.7166
1741.51	13.8841
1741.77	13.883
1742.03	13.8824
1742.28	12.9236
1742.54	14.8367
1742.8	14.8362
1743.05	15.7931
1743.31	13.8766
1743.57	15.7868
1743.82	12.9149
1744.08	15.7823
1744.33	12.9127
1744.59	13.8693
1744.85	16.7392
1745.1	13.8694
1745.36	15.7812
1745.62	12.9098
1745.87	14.819
1746.13	12.9032
1746.38	17.6768
1746.64	13.852
1746.9	13.8476
1747.15	16.7094
1747.41	16.7055
1747.67	14.7956
1747.92	15.7501
1748.18	13.8414
1748.44	14.7968
1748.69	15.7528
1748.95	17.6647
1749.2	14.8029
1749.46	17.6717
1749.72	16.7205
1749.97	13.8574
1750.23	12.904
1750.48	14.8167
1750.74	14.8183
1751	16.7298
1751.25	16.7265
1751.51	14.8103
1751.76	12.8957
1752.02	13.8479
1752.28	14.7997
1752.53	15.751
1752.79	11.93
1753.04	14.7906
1753.3	11.9259
1753.56	15.7393
1753.81	15.7358
1754.07	12.8722
1754.32	13.8237
1754.58	15.7284
1754.84	16.6797
1755.09	14.7713
1755.35	13.8158
1755.6	13.8126
1755.86	13.8091
1756.12	18.5654
1756.37	11.8971
1756.63	13.7963
1756.88	15.6958
1757.14	14.7428
1757.39	9.98657
1757.65	15.6959
1757.9	15.6993
1758.16	13.7972
1758.42	17.6038
1758.67	15.7009
1758.93	16.6531
1759.18	13.7986
1759.44	17.6044
1759.69	13.797
1759.95	14.7472
1760.21	14.7457
1760.46	13.7925
1760.72	16.6432
1760.97	13.7874
1761.23	17.5881
1761.48	18.537
1761.74	14.7334
1762	12.8332
1762.25	13.786
1762.51	14.7379
1762.76	14.7376
1763.02	15.6884
1763.27	15.6892
1763.53	16.6416
1763.78	14.7415
1764.04	13.7952
1764.29	17.6054
1764.55	14.7527
1764.81	15.7064
1765.06	11.8998
1765.32	15.7087
1765.57	16.6612
1765.83	16.6611
1766.08	12.8522
1766.34	16.6587
1766.59	14.7546
1766.85	14.7539
1767.1	14.7525
1767.36	14.75
1767.61	14.7484
1767.87	12.8434
1768.12	13.795
1768.38	14.7431
1768.64	15.6857
1768.89	17.5783
1769.15	13.7698
1769.4	15.6674
1769.66	14.7189
1769.91	18.5246
1770.17	11.8757
1770.42	16.6265
1770.68	15.6782
1770.93	14.734
1771.19	15.6892
1771.44	12.837
1771.7	15.6913
1771.95	17.5969
1772.21	16.6491
1772.46	16.6514
1772.72	19.5083
1772.97	16.6554
1773.23	17.609
1773.48	16.6587
1773.74	15.708
1773.99	13.8048
1774.25	15.7101
1774.5	15.7124
1774.76	15.714
1775.01	17.6237
1775.27	15.7253
1775.52	18.5881
1775.78	13.8232
1776.03	17.6367
1776.29	15.7288
1776.54	15.7265
1776.8	13.8181
1777.05	16.675
1777.31	15.7192
1777.56	15.7164
1777.82	16.6659
1778.07	14.7584
1778.33	16.6589
1778.58	16.6543
1778.84	16.6504
1779.09	12.8433
1779.35	18.5535
1779.6	15.7025
1779.85	15.7037
1780.11	16.6568
1780.36	18.5623
1780.62	17.6117
1780.87	17.6123
1781.13	19.5176
1781.38	16.6633
1781.64	14.7612
1781.89	16.6692
1782.15	17.6254
1782.4	15.7222
1782.66	16.6771
1782.91	13.8199
1783.17	18.5879
1783.42	14.7771
1783.68	15.733
1783.93	14.7828
1784.18	15.7401
1784.44	14.7881
1784.69	16.6971
1784.95	17.6509
1785.2	13.8335
1785.46	17.6477
1785.71	14.7852
1785.97	15.7398
1786.22	14.7877
1786.47	18.6075
1786.73	16.7031
1786.98	17.6632
1787.24	17.6719
1787.49	17.683
1787.75	17.6949
1788	16.748
1788.25	22.4969
1788.51	18.6712
1788.76	20.5931
1789.02	15.8093
1789.27	19.6457
1789.53	16.7729
1789.78	16.7755
1790.04	15.8183
1790.29	18.6939
1790.54	14.8589
1790.8	15.8087
1791.05	18.6773
1791.31	18.6753
1791.56	15.8015
1791.82	20.5907
1792.07	17.7181
1792.32	22.5094
1792.58	18.68
1792.83	17.7236
1793.09	16.765
1793.34	15.809
1793.59	17.7264
1793.85	16.7695
1794.1	17.7254
1794.36	19.6399
1794.61	17.7358
1794.86	18.7074
1795.12	16.7955
1795.37	14.8789
1795.63	15.8417
1795.88	17.7653
1796.14	19.6898
1796.39	17.7726
1796.64	17.7763
1796.9	16.8185
1797.15	16.8212
1797.4	19.7073
1797.66	16.8252
1797.91	17.7882
1798.17	19.7123
1798.42	17.7889
1798.67	18.749
1798.93	15.8626
1799.18	20.6658
1799.44	15.8565
1799.69	17.7758
1799.94	16.8127
1800.2	16.8109
1800.45	17.7702
1800.7	19.6905
1800.96	20.6506
1801.21	17.7695
1801.47	18.731
1801.72	19.6932
1801.97	19.6955
1802.23	18.7376
1802.48	17.7801
1802.73	16.8227
1802.99	14.9034
1803.24	17.7907
1803.5	14.9066
1803.75	16.8311
1804	15.8722
1804.26	18.7619
1804.51	17.8031
1804.76	18.7702
1805.02	16.8494
1805.27	19.7428
1805.53	21.6734
1805.78	17.8234
1806.03	18.7898
1806.29	18.7922
1806.54	16.866
1806.79	20.7215
1807.05	17.8303
1807.3	19.7581
1807.55	16.867
1807.81	17.8313
1808.06	16.868
1808.31	17.8325
1808.57	17.8333
1808.82	21.6901
1809.07	19.7629
1809.33	19.7639
1809.58	19.7648
1809.83	17.837
1810.09	18.8011
1810.34	19.7642
1810.59	17.8353
1810.85	15.9071
1811.1	19.763
1811.35	18.7989
1811.61	17.8354
1811.86	16.8727
1812.11	21.6962
1812.37	19.7709
1812.62	15.9161
1812.87	17.847
1813.13	17.8488
1813.38	16.887
1813.63	19.7871
1813.89	20.7577
1814.14	17.8675
1814.39	16.9061
1814.65	17.8757
1814.9	18.8443
1815.15	19.8122
1815.4	14.9807
1815.66	20.7809
1815.91	18.8486
1816.16	19.8177
1816.42	21.7506
1816.67	17.8836
1816.92	15.945
1817.18	16.9029
1817.43	20.7639
1817.68	18.8345
1817.94	18.8388
1818.19	22.7102
1818.44	19.8107
1818.7	16.9119
1818.95	17.8801
1819.2	19.8159
1819.45	15.9509
1819.71	18.8531
1819.96	17.8887
1820.21	18.8583
1820.46	14.9913
1820.72	20.7968
1820.97	17.8978
1821.22	19.836
1821.48	15.9678
1821.73	18.8731
1821.98	16.9389
1822.24	20.8119
1822.49	15.9729
1822.74	17.9099
1822.99	20.8128
1823.25	16.9392
1823.5	21.7767
1823.75	17.9061
1824.01	17.9079
1824.26	21.7818
1824.51	18.8793
1824.76	19.8497
1825.02	15.01
1825.27	18.8846
1825.52	21.79
1825.77	18.8846
1826.03	16.9485
1826.28	17.9173
1826.53	16.9494
1826.78	17.9196
1827.04	18.8902
1827.29	17.9237
1827.54	16.9564
1827.8	18.8934
1828.05	16.9551
1828.3	18.8902
1828.55	25.6677
1828.81	18.8864
1829.06	19.8546
1829.31	20.8221
1829.56	17.9156
1829.82	18.8812
1830.07	18.8795
1830.32	19.8457
1830.57	14.0383
1830.83	19.85
1831.08	19.8528
1831.33	17.9185
1831.58	17.9207
1831.83	18.892
1832.09	19.864
1832.34	19.8684
1832.59	18.901
1832.84	20.8395
1833.1	19.8712
1833.35	20.8428
1833.6	20.8435
1833.85	16.9661
1834.11	19.8664
1834.36	19.8552
1834.61	20.8141
1834.86	15.9668
1835.11	19.8326
1835.37	19.8281
1835.62	14.9922
1835.87	18.8737
1836.12	17.9798
1836.37	18.9208
1836.63	19.8699
1836.88	20.8313
1837.13	19.847
1837.38	18.8659
1837.64	20.7802
1837.89	15.9413
1838.14	15.9482
1838.39	19.8482
1838.64	16.9509
1838.9	20.8316
1839.15	23.7411
1839.4	16.961
1839.65	18.8977
1839.91	18.8789
1840.16	18.8672
1840.41	18.8566
1840.66	21.747
1840.91	20.7709
1841.16	19.7963
1841.42	17.858
1841.67	17.8517
1841.92	15.9165
1842.17	20.7364
1842.42	14.9512
1842.68	18.8089
1842.93	20.7397
1843.18	19.7748
1843.43	18.8095
1843.68	17.8437
1843.94	13.9863
1844.19	18.8109
1844.44	19.7745
1844.69	20.7373
1844.94	16.8798
1845.19	16.8826
1845.45	15.9248
1845.7	19.7939
1845.95	18.8383
1846.2	16.9096
1846.45	20.7556
1846.7	19.7595
1846.96	17.8114
1847.21	18.7706
1847.46	18.7748
1847.71	20.7111
1847.96	20.7122
1848.21	18.7776
1848.47	14.9238
1848.72	16.8484
1848.97	15.882
1849.22	16.8395
1849.47	20.6823
1849.72	18.7518
1849.98	18.7457
1850.23	20.6624
1850.48	20.6575
1850.73	17.7714
1850.98	16.8079
1851.23	17.7661
1851.48	16.8044
1851.74	15.8438
1851.99	19.6847
1852.24	18.7246
1852.49	16.804
1852.74	15.8431
1852.99	21.6027
1853.24	17.7598
1853.5	19.6751
1853.75	20.6287
1854	18.7034
1854.25	20.617
1854.5	16.7794
1854.75	13.9002
1855.01	18.6867
1855.26	19.6394
1855.51	20.595
1855.76	16.762
1856.01	17.7194
1856.26	16.7619
1856.51	19.6349
1856.76	17.7184
1857.02	16.7587
1857.27	16.7568
1857.52	18.6695
1857.77	19.6235
1858.02	17.7052
1858.27	19.6147
1858.52	18.6536
1858.77	17.6925
1859.02	18.6441
1859.28	17.686
1859.53	15.7746
1859.78	16.7303
1860.03	19.6009
1860.28	20.5618
1860.53	20.5646
1860.78	23.4379
1861.03	17.7018
1861.28	20.575
1861.53	18.6612
1861.79	18.6596
1862.04	19.6128
1862.29	17.6953
1862.54	15.7785
1862.79	16.7308
1863.04	18.6387
1863.29	17.6792
1863.54	17.676
1863.79	17.6728
1864.04	18.6249
1864.3	18.6215
1864.55	18.6173
1864.8	15.7488
1865.05	17.6522
1865.3	18.5999
1865.55	19.5458
1865.8	17.6314
1866.05	15.7185
1866.3	17.6165
1866.55	20.4646
1866.8	16.6506
1867.05	18.5469
1867.3	17.5914
1867.56	16.6383
1867.81	16.6367
1868.06	18.5373
1868.31	19.4889
1868.56	20.4406
1868.81	17.5878
1869.06	17.5868
1869.31	20.4374
1869.56	14.7332
1869.81	18.5344
1870.06	15.6822
1870.31	17.5825
1870.56	17.5822
1870.82	14.7307
1871.07	16.6299
1871.32	18.5281
1871.57	15.6749
1871.82	16.6233
1872.07	16.6213
1872.32	17.5675
1872.57	19.463
1872.82	17.5625
1873.07	17.5618
1873.32	19.4584
1873.57	18.5062
1873.82	27.0421
1874.07	16.6009
1874.32	18.4935
1874.57	19.4368
1874.82	17.5356
1875.07	20.3731
1875.32	15.6286
1875.58	16.5669
1875.83	17.5081
1876.08	18.4492
1876.33	19.3913
1876.58	16.5498
1876.83	19.3756
1877.08	18.4162
1877.33	22.1799
1877.58	15.6027
1877.83	17.5364
1878.08	19.3991
1878.33	20.3422
1878.58	20.3465
1878.83	19.4178
1879.08	21.3157
1879.33	18.4669
1879.58	16.5693
1879.83	19.4091
1880.08	16.5692
1880.33	17.5178
1880.58	19.4078
1880.83	17.5115
1881.08	20.3418
1881.33	18.4403
1881.58	17.4856
1881.83	17.476
1882.08	19.3532
1882.33	17.4553
1882.58	19.3341
1882.83	18.4261
1883.08	18.4792
1883.33	16.5168
1883.58	19.3183
1883.83	15.554
1884.08	15.5568
1884.33	17.439
1884.58	16.5037
1884.83	18.3968
1885.08	20.2865
1885.33	20.2921
1885.58	16.5233
1885.83	17.4712
1886.08	19.3611
1886.33	17.4682
1886.58	15.5745
1886.83	19.3457
1887.08	16.5107
1887.33	19.3363
1887.58	16.5022
1887.83	17.4395
1888.08	17.4329
1888.33	14.6011
1888.58	18.3631
1888.83	20.2413
1889.08	18.3567
1889.33	16.473
1889.58	16.4732
1889.83	19.3002
1890.08	17.4217
1890.33	17.4246
1890.58	18.3671
1890.83	18.3656
1891.08	20.2484
1891.33	16.4806
1891.58	18.3628
1891.83	14.5958
1892.07	18.3609
1892.33	18.3579
1892.58	21.1771
1892.82	18.3448
1893.07	17.3944
1893.32	20.2068
1893.57	15.5104
1893.82	16.4476
1894.07	18.3223
1894.32	15.5013
1894.57	14.5615
1894.82	17.3807
1895.07	21.1407
1895.32	18.324
1895.57	18.3263
1895.82	17.389
1896.07	18.3324
1896.32	16.4553
1896.57	19.2793
1896.82	20.2222
1897.07	17.4019
1897.32	16.4618
1897.56	21.1646
1897.81	18.3412
1898.06	16.4578
1898.31	17.3949
1898.56	17.3905
1898.81	21.1455
1899.06	17.3839
1899.31	14.5634
1899.56	18.3189
1899.81	14.5601
1900.06	19.2566
1900.31	18.3186
1900.56	20.1999
1900.81	14.5657
1901.05	16.4484
1901.31	20.2124
1901.55	17.3955
1901.8	19.2816
1902.05	16.4621
1902.3	15.5206
1902.55	18.3411
1902.8	17.3984
1903.05	21.158
1903.3	15.5147
1903.55	16.4541
1903.8	15.5133
1904.04	17.3933
1904.29	19.2728
1904.54	17.3916
1904.79	17.3913
1905.04	17.391
1905.29	13.6296
1905.54	17.3819
1905.79	19.2571
1906.04	17.3762
1906.29	17.3742
1906.54	18.3118
1906.78	16.4327
1907.03	20.1902
1907.28	14.5563
1907.53	16.4382
1907.78	19.2589
1908.03	16.4414
1908.28	17.3822
1908.53	16.4448
1908.77	16.4478
1909.02	17.3916
1909.27	14.5754
1909.52	13.6394
1909.77	20.2309
1910.02	15.5317
1910.27	17.4191
1910.52	19.3062
1910.77	16.4832
1911.01	14.6006
1911.26	18.3689
1911.51	17.4266
1911.76	17.4248
1912.01	14.5987
1912.26	16.4822
1912.51	17.4242
1912.76	16.4824
1913	15.5416
1913.25	17.4292
1913.5	17.4351
1913.75	14.6123
1914	18.3867
1914.25	16.5047
1914.5	18.3949
1914.74	17.455
1914.99	17.457
1915.24	15.5702
1915.49	16.513
1915.74	17.455
1915.99	16.5111
1916.24	16.5075
1916.49	19.3335
1916.73	16.5016
1916.98	13.6709
1917.23	17.4408
1917.48	18.3828
1917.73	17.4414
1917.98	16.5018
1918.23	17.4491
1918.47	18.3976
1918.72	17.4597
1918.97	18.4096
1919.22	14.6402
1919.47	16.534
1919.71	14.6464
1919.96	18.426
1920.21	13.6991
1920.46	17.4819
1920.71	15.5965
1920.96	14.655
1921.21	12.7654
1921.45	18.4418
1921.7	15.6054
1921.95	16.5508
1922.2	16.549
1922.45	14.6552
1922.69	16.5442
1922.94	18.4335
1923.19	18.4321
1923.44	15.5948
1923.69	16.5373
1923.94	15.5895
1924.18	17.4777
1924.43	17.4776
1924.68	15.5894
1924.93	13.7021
1925.18	13.7055
1925.42	14.6555
1925.67	16.5509
1925.92	14.6633
1926.17	15.6139
1926.42	16.5652
1926.66	19.4084
1926.91	14.6768
1927.16	13.7319
1927.41	16.5751
1927.66	17.5243
1927.9	15.6313
1928.15	15.6326
1928.4	16.5825
1928.65	16.5848
1928.9	16.5879
1929.15	15.6441
1929.39	14.7006
1929.64	12.8071
1929.89	16.6068
1930.14	15.6617
1930.39	16.6147
1930.63	14.7164
1930.88	12.8176
1931.13	16.6137
1931.38	17.5607
1931.62	15.6602
1931.87	17.5559
1932.12	16.6047
1932.37	12.8077
1932.61	15.6531
1932.86	14.7031
1933.11	17.5516
1933.36	16.6091
1933.61	12.8199
1933.85	15.6804
1934.1	16.6458
1934.35	15.7075
1934.6	16.6712
1934.84	16.6807
1935.09	15.7345
1935.34	15.7351
1935.59	18.5847
1935.83	12.8662
1936.08	12.8651
1936.33	15.7216
1936.58	11.9077
1936.83	17.6193
1937.07	13.8069
1937.32	14.7562
1937.57	12.8498
1937.82	16.6547
1938.06	15.7049
1938.31	12.8535
1938.56	14.7594
1938.81	13.8095
1939.05	12.8592
1939.3	15.719
1939.55	15.7211
1939.8	13.8169
1940.04	12.8674
1940.29	16.6863
1940.54	12.8802
1940.79	14.7919
1941.03	15.7453
1941.28	16.6961
1941.53	15.735
1941.78	14.7769
1942.02	11.9246
1942.27	13.8438
1942.52	15.7552
1942.76	13.844
1943.01	17.6551
1943.26	11.9242
1943.51	11.924
1943.75	13.8397
1944	14.7969
1944.25	12.8905
1944.5	15.7589
1944.74	10.9862
1944.99	16.7224
1945.24	15.7706
1945.49	13.862
1945.73	15.7768
1945.98	14.8228
1946.23	13.8678
1946.47	12.9119
1946.72	14.8241
1946.97	16.7353
1947.21	13.8654
1947.46	15.7777
1947.71	14.8214
1947.96	17.6896
1948.2	16.7328
1948.45	14.822
1948.7	17.6943
1948.94	13.8714
1949.19	14.8315
1949.44	13.8783
1949.69	13.8828
1949.93	11.9733
1950.18	16.7697
1950.43	12.9414
1950.67	14.8647
1950.92	12.9519
1951.17	15.8358
1951.41	16.8001
1951.66	14.8828
1951.91	16.8059
1952.15	13.9262
1952.4	14.8872
1952.65	15.8511
1952.9	15.8522
1953.14	12.9658
1953.39	11.9997
1953.64	13.9111
1953.88	15.8212
1954.13	13.8966
1954.38	14.85
1954.62	12.9326
1954.87	15.8069
1955.12	15.8098
1955.36	15.8151
1955.61	14.8647
1955.86	13.9134
1956.1	13.9176
1956.35	13.9214
1956.6	14.8845
1956.84	15.8484
1957.09	14.891
1957.34	14.8937
1957.58	16.8177
1957.83	15.8582
1958.08	15.8593
1958.32	13.937
1958.57	14.8964
1958.82	12.9723
1959.06	18.7364
1959.31	14.8919
1959.56	13.929
1959.8	13.9269
1960.05	13.9247
1960.3	12.9621
1960.54	14.8798
1960.79	12.9576
1961.04	14.8753
1961.28	16.794
1961.53	14.8754
1961.78	12.9567
1962.02	13.917
1962.27	12.9579
1962.51	14.8782
1962.76	12.959
1963.01	12.9595
1963.25	14.8801
1963.5	13.9213
1963.75	12.9628
1963.99	16.8047
1964.24	13.9234
1964.48	16.8035
1964.73	15.8433
1964.98	16.8033
1965.22	15.844
1965.47	14.8859
1965.72	13.9284
1965.96	15.8532
1966.21	12.9734
1966.46	12.9754
1966.7	16.8211
1966.95	13.9373
1967.19	15.8605
1967.44	14.9005
1967.69	15.8623
1967.93	12.0174
1968.18	13.9395
1968.43	12.9767
1968.67	14.8961
1968.92	14.8921
1969.16	12.9663
1969.41	15.8429
1969.66	14.8793
1969.9	15.8363
1970.15	12.9553
1970.39	13.9124
1970.64	11.0326
1970.89	12.95
1971.13	16.7855
1971.38	11.9891
1971.62	15.8276
1971.87	13.9103
1972.12	13.9108
1972.36	12.951
1972.61	14.8679
1972.85	11.988
1973.1	12.9442
1973.35	14.8594
1973.59	13.8992
1973.84	16.7738
1974.08	11.0226
1974.33	13.8984
1974.58	15.8163
1974.82	14.8593
1975.07	13.9027
1975.31	16.7817
1975.56	12.9475
1975.8	14.8671
1976.05	12.9495
1976.3	14.8684
1976.54	11.9906
1976.79	14.8677
1977.03	15.8257
1977.28	13.9057
1977.53	14.8623
1977.77	12.9426
1978.02	13.8996
1978.26	15.8153
1978.51	13.8977
1978.75	15.815
1979	13.8986
1979.24	13.8986
1979.49	14.858
1979.74	13.8993
1979.98	13.8974
1980.23	16.7695
1980.47	19.6415
1980.72	14.8499
1980.96	14.8475
1981.21	16.7619
1981.45	14.8455
1981.7	16.7606
1981.95	15.8019
1982.19	13.8839
1982.44	16.7537
1982.68	14.8351
1982.93	14.8307
1983.17	12.9149
1983.42	13.8707
1983.66	12.9131
1983.91	15.7811
1984.16	10.9979
1984.4	14.8219
1984.65	12.9067
1984.89	12.9034
1985.14	14.805
1985.38	14.7955
1985.63	13.8464
1985.87	15.6771
1986.12	13.823
1986.36	11.9465
1986.61	12.9534
1986.85	13.0812
1987.1	15.6119
1987.35	14.7279
1987.59	16.4758
1987.84	15.4926
1988.08	13.7249
1988.33	14.4175
1988.57	12.6599
1988.82	15.396
1989.06	13.853
1989.31	14.468
1989.55	13.9036
1989.8	14.7822
1990.04	14.158
1990.29	15.2444
1990.53	12.2599
1990.78	15.3566
1991.02	14.3208
1991.27	12.871
1991.51	13.4347
1991.76	11.1902
1992	15.1341
1992.25	13.4816
1992.49	14.0011
1992.74	11.687
1992.98	12.6757
1993.23	14.0788
1993.47	13.9304
1993.72	12.5541
1993.96	14.4108
1994.21	13.3002
1994.45	15.5213
1994.7	15.1711
1994.94	14.1233
1995.19	15.4875
1995.43	14.2194
1995.68	13.581
1995.92	13.7338
1996.17	13.935
1996.41	15.2144
1996.66	14.2268
1996.9	12.4427
1997.15	13.8524
1997.39	12.8223
1997.64	14.7118
1997.88	14.2571
1998.13	11.9242
1998.37	12.8188
1998.62	13.2528
1998.86	12.8655
1999.11	12.4237
1999.35	14.9823
1999.6	14.1855
1999.84	11.8759
2000.08	13.4948
2000.33	12.6225
2000.57	13.7519
2000.82	14.9524
2001.06	14.2119
2001.31	12.7801
2001.55	11.6794
2001.8	12.6172
2002.04	12.7651
2002.29	13.7011
2002.53	12.7541
2002.78	12.947
2003.02	12.6374
2003.26	13.3028
2003.51	14.1881
2003.76	13.4557
2004	12.7622
2004.24	12.0252
2004.49	12.8683
2004.73	13.7059
2004.98	13.3105
2005.22	12.8001
2005.47	12.4392
2005.71	13.8108
2005.96	13.7657
2006.2	13.63
2006.44	14.3604
2006.69	13.2765
2006.93	14.0981
2007.18	14.2317
2007.42	14.0019
2007.67	14.6398
2007.91	14.0672
2008.15	13.4567
2008.4	13.1841
2008.64	13.9936
2008.89	13.9313
2009.13	12.6864
2009.38	12.7565
2009.62	12.491
2009.86	12.1388
2010.11	13.0457
2010.27	13.6572
2010.52	14.5986
2010.77	12.7146
2011.01	11.7725
2011.26	14.5975
2011.51	12.7132
2011.75	16.4795
2012	13.6534
2012.25	13.6522
2012.5	14.5905
2012.74	13.6439
2012.99	13.6375
2013.24	12.6932
2013.48	11.7485
2013.73	15.501
2013.98	15.4925
2014.23	13.6089
2014.47	11.7306
2014.72	13.6083
2014.97	13.6103
2015.21	14.5515
2015.46	16.431
2015.71	13.612
2015.96	13.618
2016.2	16.4462
2016.45	13.6284
2016.7	12.6877
2016.94	13.6253
2017.19	14.5614
2017.44	11.7393
2017.69	11.7346
2017.93	14.5449
2018.18	12.6636
2018.43	12.6588
2018.67	12.6537
2018.92	13.5861
2019.17	12.6471
2019.41	12.6452
2019.66	14.5177
2019.91	14.5174
2020.15	13.5801
2020.4	14.5162
2020.65	13.5807
2020.89	14.5181
2021.14	12.6448
2021.39	13.5808
2021.64	13.5795
2021.88	13.5775
2022.13	11.7024
2022.38	13.5714
2022.62	13.5675
2022.87	12.6292
2023.12	11.6911
2023.36	14.4938
2023.61	10.7511
2023.86	12.6184
2024.1	12.614
2024.35	14.4778
2024.6	13.5391
2024.84	14.4683
2025.09	12.5977
2025.34	12.5943
2025.58	14.4548
2025.83	14.4572
2026.08	20.9949
2026.32	16.3404
2026.57	14.4844
2026.82	15.4321
2027.06	14.5037
2027.31	16.3718
2027.56	16.3606
2027.8	15.4082
2028.05	13.5113
2028.3	16.353
2028.54	14.5281
2028.79	14.504
2029.04	12.6404
2029.28	16.358
2029.53	14.4722
2029.78	14.4577
2030.02	15.3879
2030.27	15.3782
2030.52	15.3895
2030.76	16.3304
2031.01	14.4622
2031.25	15.3954
2031.5	16.3295
2031.75	15.401
2031.99	13.5389
2032.24	13.5439
2032.49	13.5484
2032.73	15.4211
2032.98	14.4897
2033.23	13.5591
2033.47	15.43
2033.72	14.4874
2033.97	14.4763
2034.21	14.4623
2034.46	15.3932
2034.7	13.5329
2034.95	14.4716
2035.2	14.4805
2035.44	12.6212
2035.69	14.4981
2035.93	14.4958
2036.18	16.3585
2036.43	13.5556
2036.67	13.5583
2036.92	13.5582
2037.17	15.4275
2037.41	13.5561
2037.66	13.5544
2037.9	14.4871
2038.15	11.6813
2038.4	12.6138
2038.64	12.6118
2038.89	10.7415
2039.13	11.6736
2039.38	11.6708
2039.63	14.4676
2039.87	15.3968
2040.12	13.527
2040.36	11.6584
2040.61	14.4535
2040.86	11.654
2041.1	13.5178
2041.35	14.4491
2041.6	14.447
2041.84	13.5134
2042.09	14.442
2042.33	11.6463
2042.58	13.5096
2042.82	14.4429
2043.07	12.583
2043.32	14.4533
2043.56	14.4593
2043.81	14.4611
2044.05	13.5273
2044.3	14.4564
2044.55	11.6528
2044.79	12.573
2045.04	12.5926
2045.28	13.5268
2045.53	12.6148
2045.77	10.7634
2046.02	12.6205
2046.27	11.6747
2046.51	15.3995
2046.76	12.6013
2047	12.5969
2047.25	15.383
2047.49	13.5165
2047.74	13.5174
2047.99	15.3826
2048.23	13.5191
2048.48	13.5213
2048.72	14.457
2048.97	12.5944
2049.21	12.5982
2049.46	10.7359
2049.71	15.4078
2049.95	11.676
2050.2	16.3488
2050.44	13.5467
2050.69	13.5457
2050.93	12.6088
2051.18	13.539
2051.42	10.7379
2051.67	13.5396
2051.92	13.5416
2052.16	14.4763
2052.41	12.61
2052.65	13.5464
2052.9	14.4837
2053.14	15.4226
2053.39	14.4945
2053.63	14.4973
2053.88	13.5637
2054.12	17.306
2054.37	11.6929
2054.61	13.5631
2054.86	13.5619
2055.11	13.5589
2055.35	12.6225
2055.6	15.4267
2055.84	14.4903
2056.09	14.4888
2056.33	11.6839
2056.58	13.5533
2056.82	12.6193
2057.07	15.425
2057.31	14.4921
2057.56	12.6241
2057.8	14.4968
2058.05	13.565
2058.29	10.7609
2058.54	14.507
2058.78	14.5091
2059.03	13.5739
2059.28	14.511
2059.52	16.3834
2059.77	13.5732
2060.01	13.571
2060.26	10.7624
2060.5	14.5078
2060.75	9.82931
2060.99	11.7027
2061.24	13.5758
2061.48	14.5124
2061.73	13.5767
2061.97	10.7686
2062.22	15.4524
2062.46	15.4548
2062.71	14.5208
2062.95	15.4603
2063.2	10.7769
2063.44	12.6525
2063.69	12.6537
2063.93	15.4669
2064.18	11.7189
2064.42	13.596
2064.67	13.5995
2064.91	12.6656
2065.16	16.4229
2065.4	14.5496
2065.65	10.7971
2065.89	12.6766
2066.14	13.6161
2066.38	13.6179
2066.63	10.8015
2066.87	15.4994
2067.11	12.6831
2067.36	14.5646
2067.61	11.7473
2067.85	17.388
2068.1	13.6292
2068.34	12.6915
2068.58	15.5116
2068.83	11.7494
2069.07	11.7459
2069.32	13.619
2069.56	12.6782
2069.81	15.4974
2070.05	12.6856
2070.3	11.752
2070.54	14.5803
2070.79	12.6971
2071.03	15.5139
2071.28	13.6519
2071.52	13.6557
2071.77	10.8293
2072.01	16.4784
2072.25	13.6532
2072.5	10.8274
2072.74	12.7106
2072.99	11.7683
2073.23	15.5352
2073.48	12.711
2073.72	16.4784
2073.97	15.5387
2074.21	14.5999
2074.45	12.7196
2074.7	13.6668
2074.94	13.6732
2075.19	12.7371
2075.43	12.7415
2075.68	16.5197
2075.92	14.6321
2076.17	14.6326
2076.41	14.6309
2076.66	11.7967
2076.9	12.7372
2077.14	11.7886
2077.39	10.8446
2077.63	12.7323
2077.88	10.8483
2078.12	13.6796
2078.37	14.6245
2078.61	14.6268
2078.85	12.743
2079.1	15.5818
2079.34	14.6405
2079.59	12.7537
2079.83	13.7006
2080.08	16.5374
2080.32	11.8124
2080.56	12.7562
2080.81	11.8105
2081.05	12.7551
2081.3	11.8101
2081.54	10.8651
2081.78	13.7006
2082.03	13.7017
2082.27	10.8675
2082.52	13.7028
2082.76	17.4825
2083.01	13.702
2083.25	12.7566
2083.49	13.7017
2083.74	13.7018
2083.98	14.6467
2084.23	14.647
2084.47	14.6476
2084.71	14.6477
2084.96	15.5928
2085.2	14.6478
2085.45	14.6492
2085.69	13.7079
2085.93	12.7667
2086.18	12.7695
2086.42	15.6088
2086.67	10.8803
2086.91	15.6136
2087.15	12.7759
2087.4	15.6152
2087.64	11.8299
2087.89	13.7232
2088.13	11.8309
2088.37	13.7247
2088.62	14.672
2088.86	12.7811
2089.11	14.6771
2089.35	17.5229
2089.59	13.7352
2089.84	13.736
2090.08	14.6844
2090.32	15.6334
2090.57	14.6876
2090.81	11.8463
2091.06	15.6388
2091.3	14.6951
2091.54	11.8545
2091.79	11.8584
2092.03	11.8623
2092.27	12.816
2092.52	13.769
2092.76	14.7224
2093	14.7263
2093.25	13.7797
2093.49	13.7826
2093.73	18.5387
2093.98	12.8352
2094.22	14.7366
2094.47	14.7359
2094.71	16.636
2094.95	16.6332
2095.2	13.7793
2095.44	12.8273
2095.68	13.7759
2095.93	13.775
2096.17	16.6244
2096.42	11.874
2096.66	16.6213
2096.9	11.87
2097.15	13.7666
2097.39	17.5629
2097.63	15.6634
2097.88	11.8656
2098.12	13.7623
2098.36	14.7114
2098.61	11.8638
2098.85	13.7612
2099.09	12.8116
2099.34	14.7095
2099.58	15.6587
2099.82	15.6593
2100.07	14.7111
2100.31	13.7637
2100.55	13.7671
2100.8	12.8202
2101.04	10.9223
2101.28	12.8226
2101.53	15.672
2101.77	14.722
2102.01	13.7722
2102.26	12.8216
2102.5	14.7186
2102.74	14.7157
2102.99	12.8156
2103.23	15.663
2103.47	14.7131
2103.72	13.7642
2103.96	12.8162
2104.2	13.7678
2104.44	13.7699
2104.69	13.7719
2104.93	13.7745
2105.17	15.6781
2105.42	13.7803
2105.66	15.6829
2105.9	13.7833
2106.15	14.7347
2106.39	15.6861
2106.63	11.8846
2106.88	12.8357
2107.12	12.8342
2107.36	11.8811
2107.6	16.6292
2107.85	13.7747
2108.09	13.771
2108.33	15.6673
2108.58	15.6662
2108.82	12.8185
2109.06	16.6214
2109.31	13.7745
2109.55	12.8247
2109.79	13.7747
2110.03	17.5747
2110.28	13.7748
2110.52	14.7248
2110.76	14.7247
2111.01	13.7737
2111.25	15.6713
2111.49	13.7705
2111.73	14.7193
2111.98	12.8201
2112.22	13.7713
2112.46	14.7226
2112.71	15.6745
2112.95	14.7284
2113.19	11.8801
2113.43	13.7822
2113.68	16.6325
2113.92	14.7304
2114.16	13.7799
2114.4	14.7311
2114.65	13.781
2114.89	12.8298
2115.13	16.6299
2115.38	11.8776
2115.62	13.7768
2115.86	15.6737
2116.1	11.8718
2116.35	18.5185
2116.59	12.8199
2116.83	12.8194
2117.07	13.7697
2117.32	15.6672
2117.56	14.7153
2117.8	13.7637
2118.04	12.8109
2118.29	13.7558
2118.53	17.5466
2118.77	13.7498
2119.01	12.7989
2119.26	15.6399
2119.5	13.7416
2119.74	17.5299
2119.99	15.6341
2120.23	15.6348
2120.47	16.5853
2120.71	12.7956
2120.95	11.8506
2121.2	12.8019
2121.44	14.7018
2121.68	14.7049
2121.92	14.7077
2122.17	11.8629
2122.41	13.7629
2122.65	14.7138
2122.89	13.7656
2123.14	12.8167
2123.38	13.765
2123.62	13.7634
2123.86	12.812
2124.1	12.8085
2124.35	16.5969
2124.59	15.641
2124.83	13.7391
2125.07	11.84
2125.32	12.7833
2125.56	12.7796
2125.8	12.7763
2126.04	15.6121
2126.28	15.6088
2126.53	10.8765
2126.77	17.4935
2127.01	15.601
2127.25	14.6548
2127.5	15.5993
2127.74	13.707
2127.98	14.6515
2128.22	17.4874
2128.46	13.7064
2128.71	11.8154
2128.95	14.6499
2129.19	14.649
2129.43	14.6483
2129.67	16.5377
2129.92	15.5917
2130.16	13.7008
2130.4	14.6442
2130.64	13.6977
2130.88	12.7512
2131.13	14.6379
2131.37	13.6917
2131.61	14.6346
2131.85	14.6328
2132.09	10.8544
2132.34	14.6273
2132.58	16.5132
2132.82	12.7387
2133.06	16.5138
2133.3	14.6271
2133.54	15.571
2133.79	11.7969
2134.03	12.7409
2134.27	15.5719
2134.51	12.7403
2134.75	13.6836
2135	16.5139
2135.24	11.7944
2135.48	15.5658
2135.72	13.6747
2135.96	13.6707
2136.2	14.6115
2136.45	14.6124
2136.69	12.7274
2136.93	14.6133
2137.17	14.6151
2137.41	16.5047
2137.65	15.5598
2137.9	17.4408
2138.14	14.6096
2138.38	14.6129
2138.62	16.5038
2138.86	14.621
2139.1	15.5554
2139.35	13.6652
2139.59	18.3743
2139.83	13.6609
2140.07	12.7171
2140.31	14.5996
2140.55	15.5404
2140.8	14.5973
2141.04	14.5977
2141.28	16.4776
2141.52	15.5326
2141.76	15.5314
2142	14.5902
2142.24	15.5349
2142.49	13.654
2142.73	17.4361
2142.97	15.543
2143.21	15.5013
2143.45	12.6859
2143.69	16.4473
2143.93	16.4536
2144.18	14.5782
2144.42	15.5217
2144.66	15.5118
2144.9	15.5141
2145.14	15.5147
2145.38	15.5137
2145.62	12.692
2145.87	15.5111
2146.11	15.5099
2146.35	15.5086
2146.59	16.4469
2146.83	16.4445
2147.07	16.4423
2147.31	16.4403
2147.55	15.4993
2147.79	14.5582
2148.04	15.4956
2148.28	15.4936
2148.52	15.4912
2148.76	14.5493
2149	17.3609
2149.24	18.2919
2149.48	15.4741
2149.72	13.5948
2149.97	19.2164
2150.21	15.4654
2150.45	14.528
2150.69	16.4041
2150.93	15.4693
2151.17	17.3463
2151.41	16.4111
2151.65	17.3503
2151.89	19.2284
2152.14	15.4742
2152.38	14.5343
2152.62	16.4067
2152.86	14.5293
2153.1	13.5908
2153.34	17.3383
2153.58	16.3982
2153.82	13.5837
2154.06	16.3883
2154.3	13.5731
2154.55	15.439
2154.78	14.4968
2155.03	16.3622
2155.27	16.3573
2155.51	19.1565
2155.75	17.2844
2155.99	17.2827
2156.23	16.3478
2156.47	15.4133
2156.71	17.2817
2156.95	12.612
2157.19	15.4169
2157.43	16.3544
2157.68	14.4876
2157.92	19.1618
2158.16	15.4228
2158.4	18.2261
2158.64	21.0283
2158.88	17.2877
2159.12	20.0878
2159.36	16.3472
2159.6	18.2109
2159.84	17.2727
2160.08	15.4019
2160.32	17.2655
2160.56	15.3974
2160.8	17.2628
2161.04	18.1942
2161.29	19.1255
2161.53	16.3261
2161.77	15.3932
2162.01	14.4603
2162.25	17.2588
2162.49	22.8541
2162.73	16.3222
2162.97	20.0508
2163.21	17.2513
2163.45	17.2494
2163.69	17.2473
2163.93	16.3113
2164.17	19.1026
2164.41	19.0996
2164.65	16.3055
2164.89	15.3752
2165.14	15.3754
2165.37	18.1713
2165.61	19.1034
2165.86	19.101
2166.1	20.0306
2166.34	16.3015
2166.58	19.0922
2166.82	16.2958
2167.06	18.1539
2167.3	18.1483
2167.54	19.0694
2167.78	16.2715
2168.02	19.0583
2168.26	20.9173
2168.5	19.989
2168.74	15.3425
2168.98	19.9961
2169.22	20.0019
2169.46	19.0784
2169.7	19.0859
2169.94	19.0901
2170.18	16.2978
2170.42	19.0902
2170.66	17.2243
2170.9	17.2228
2171.14	19.0765
2171.38	18.1331
2171.62	17.1971
2171.86	17.1939
2172.1	20.9079
2172.34	17.1887
2172.58	19.0464
2172.82	19.9753
2173.06	19.046
2173.3	17.1892
2173.54	20.9086
2173.78	19.0518
2174.02	18.1233
2174.26	18.1236
2174.5	19.0528
2174.74	19.0525
2174.98	20.9099
2175.22	17.1916
2175.46	18.1202
2175.7	18.1193
2175.94	21.8341
2176.18	19.0439
2176.42	19.0428
2176.66	19.0429
2176.9	19.0435
2177.14	18.1148
2177.38	19.0435
2177.62	17.1862
2177.86	16.2555
2178.1	18.1084
2178.34	21.8188
2178.58	17.1761
2178.82	19.9624
2179.06	18.1057
2179.3	17.1774
2179.54	18.1059
2179.78	16.2488
2180.02	18.1053
2180.26	19.0325
2180.5	22.7448
2180.74	19.9592
2180.98	19.0297
2181.22	19.9555
2181.46	21.8095
2181.7	19.9523
2181.94	19.9497
2182.18	19.9479
2182.42	18.0905
2182.66	19.0144
2182.9	18.0827
2183.14	18.0775
2183.38	18.0737
2183.62	18.9976
2183.85	22.7012
2184.09	18.0676
2184.33	20.8481
2184.57	18.0702
2184.81	20.8518
2185.05	20.8536
2185.29	21.7832
2185.53	19.0057
2185.77	19.9364
2186.01	21.7951
2186.25	18.0906
2186.49	24.5922
2186.73	18.1016
2186.97	19.0355
2187.21	19.9684
2187.45	18.1117
2187.69	18.1097
2187.93	19.0351
2188.17	19.9598
2188.41	20.8836
2188.64	18.0948
2188.88	19.0175
2189.12	17.1563
2189.36	17.1518
2189.6	16.2226
2189.84	20.8569
2190.08	19.9304
2190.32	17.1511
2190.56	19.0067
2190.8	19.0069
2191.04	18.0809
2191.28	19.0098
2191.52	18.0842
2191.76	19.0133
2192	17.1598
2192.23	18.0891
2192.47	20.8758
2192.71	23.6634
2192.95	16.2424
2193.19	19.0312
2193.43	19.0398
2193.67	21.8367
2193.91	18.1257
2194.15	19.0586
2194.39	19.0573
2194.63	18.1257
2194.86	19.0533
2195.1	19.0503
2195.34	19.9752
2195.58	19.0407
2195.82	19.9625
2196.06	19.0279
2196.3	19.9513
2196.54	19.0198
2196.78	25.5101
2197.02	20.8688
2197.26	18.0867
2197.49	19.9423
2197.73	18.0893
2197.97	19.9496
2198.21	19.9548
2198.45	21.8178
2198.69	19.9681
2198.93	20.903
2199.17	16.2634
2199.41	20.9171
2199.64	20.9276
2199.88	21.8696
2200.12	20.0178
2200.36	20.0261
2200.6	20.0321
2200.84	24.6969
2201.08	20.9596
2201.32	21.8681
2201.55	20.8917
2201.79	20.8626
2202.03	22.7342
2202.27	21.8445
2202.51	25.5814
2202.75	20.9244
2202.99	22.7796
2203.23	20.0121
2203.47	17.2712
2203.7	20.9807
2203.94	20.0473
2204.18	19.1173
2204.42	20.9678
2204.66	21.8802
2204.9	20.0022
2205.14	19.0616
2205.38	20.9183
2205.61	19.9893
2205.85	19.0641
2206.09	17.2043
2206.33	23.7058
2206.57	19.9887
2206.81	22.7813
2207.05	19.9956
2207.28	21.8604
2207.52	19.0739
2207.76	22.8007
2208	20.9438
2208.24	20.9477
2208.48	20.9508
2208.71	20.0218
2208.95	21.8857
2209.19	20.0233
2209.43	20.9541
2209.67	18.1611
2209.91	22.8208
2210.15	20.9611
2210.38	20.0328
2210.62	17.2404
2210.86	20.0393
2211.1	18.1784
2211.34	19.115
2211.57	20.9844
2211.81	18.1894
2212.05	20.0564
2212.29	18.1895
2212.53	21.9185
2212.77	19.1187
2213	20.048
2213.24	19.1124
2213.48	17.2489
2213.72	20.9828
2213.96	20.0589
2214.2	20.0665
2214.43	18.2019
2214.67	21.9377
2214.91	18.2049
2215.15	21.0067
2215.39	18.2063
2215.63	21.9412
2215.86	19.14
2216.1	17.2723
2216.34	19.1388
2216.58	17.271
2216.82	21.0053
2217.05	16.3382
2217.29	18.2064
2217.53	20.0737
2217.77	20.0736
2218.01	20.0746
2218.24	20.0767
2218.48	21.0137
2218.72	17.2811
2218.96	20.0873
2219.2	19.1552
2219.44	21.0269
2219.67	18.2251
2219.91	19.1593
2220.15	19.1586
2220.39	19.158
2220.63	21.0249
2220.86	21.0198
2221.1	21.0143
2221.34	21.0098
2221.58	21.9395
2221.81	21.9369
2222.05	19.136
2222.29	20.0711
2222.53	21.9416
2222.77	21.945
2223	17.2789
2223.24	23.8228
2223.48	18.2229
2223.72	19.1635
2223.95	19.1691
2224.19	19.174
2224.43	19.1784
2224.67	21.0542
2224.91	19.1876
2225.14	21.0658
2225.38	19.1977
2225.62	21.0752
2225.86	22.0168
2226.1	18.2722
2226.33	19.2135
2226.57	20.1548
2226.81	17.3454
2227.05	19.223
2227.28	20.1622
2227.52	20.1617
2227.76	22.0356
2228	19.2213
2228.23	18.2825
2228.47	18.2816
2228.71	21.0931
2228.95	18.2808
2229.18	20.1595
2229.42	19.2271
2229.66	21.1081
2229.9	17.3588
2230.13	22.0547
2230.37	16.4272
2230.61	23.0032
2230.85	22.0697
2231.08	20.1965
2231.32	18.3214
2231.56	19.2649
2231.8	16.449
2232.03	22.0932
2232.27	20.2168
2232.51	21.1614
2232.75	20.2246
2232.98	23.0511
2233.22	21.1735
2233.46	19.2943
2233.7	23.0618
2233.93	19.2955
2234.17	20.2352
2234.41	21.1739
2234.65	20.2293
2234.88	20.222
2235.12	17.3961
2235.36	21.1581
2235.59	18.3379
2235.83	16.4582
2236.07	19.2808
2236.31	19.2817
2236.54	18.3422
2236.78	23.0511
2237.02	18.3508
2237.25	17.4167
2237.49	19.3078
2237.73	19.3154
2237.97	19.3208
2238.2	18.3833
2238.44	22.1612
2238.68	19.3393
2238.92	20.284
2239.15	18.3956
2239.39	20.2797
2239.63	24.0459
2239.86	20.2693
2240.1	18.3817
2240.34	18.3901
2240.57	18.397
2240.81	20.2853
2241.05	20.2868
2241.28	16.5139
2241.52	17.4588
2241.76	19.3481
2242	19.3503
2242.23	22.185
2242.47	18.4093
2242.71	18.4087
2242.94	24.0697
2243.18	18.4036
2243.42	20.2897
2243.66	19.3456
2243.89	20.2901
2244.13	22.1812
2244.37	20.2997
2244.6	19.3636
2244.84	20.3157
2245.08	20.3206
2245.31	20.3247
2245.55	23.1659
2245.79	21.2793
2246.02	20.3372
2246.26	19.3933
2246.5	18.4503
2246.73	19.3995
2246.97	22.2408
2247.21	20.349
2247.44	19.4024
2247.68	19.4015
2247.92	18.4541
2248.15	19.3993
2248.39	19.3984
2248.63	19.3974
2248.86	19.3967
2249.1	17.5077
2249.34	21.2958
2249.57	18.4562
2249.81	18.454
2250.05	20.3428
2250.28	22.2307
2250.52	19.3882
2250.76	18.4391
2250.99	21.273
2251.23	17.4903
2251.47	15.6002
2251.7	17.4932
2251.94	19.3875
2252.18	21.2835
2252.41	20.3443
2252.65	15.6218
2252.89	18.4693
2253.12	21.3171
2253.36	18.4794
2253.59	19.4308
2253.83	21.3308
2254.07	18.4893
2254.3	12.8006
2254.54	19.4361
2254.78	17.5409
2255.01	16.5929
2255.25	13.7491
2255.49	16.5945
2255.72	16.5975
2255.96	18.498
2256.2	20.399
2256.43	20.4025
2256.67	20.4061
2256.91	18.511
2257.14	20.4129
2257.38	24.2134
2257.61	18.5173
2257.85	17.5686
2258.09	20.4191
2258.32	20.4212
2258.56	18.5244
2258.79	14.7268
2259.03	16.6288
2259.27	18.5309
2259.5	17.5828
2259.74	16.6342
2259.98	22.3398
2260.21	18.5392
2260.45	16.6404
2260.68	21.4019
2260.92	20.4552
2261.16	17.6019
2261.39	18.5546
2261.63	16.6531
2261.86	15.703
2262.1	20.4645
2262.34	16.6608
2262.57	19.5215
2262.81	19.5269
2263.04	18.5802
2263.28	19.5402
2263.52	21.4552
2263.75	22.4175
2263.99	17.6541
2264.23	16.7048
2264.46	19.5734
2264.7	19.5776
2264.93	20.5364
2265.17	16.7163
2265.4	17.6724
2265.64	19.5815
2265.88	19.5772
2266.11	16.7084
2266.35	17.6589
2266.58	15.7464
2266.82	13.8356
2267.06	17.6497
2267.29	16.6932
2267.53	19.5506
2267.76	20.501
2268	14.779
2268.24	16.6866
2268.47	17.6427
2268.71	15.7389
2268.94	16.6974
2269.18	17.6567
2269.41	17.6622
2269.65	19.5786
2269.89	16.7188
2270.12	19.5888
2270.36	16.7245
2270.59	18.64
2270.83	16.7314
2271.06	16.7336
2271.3	21.5179
2271.53	18.6525
2271.77	17.6979
2272.01	19.6118
2272.24	18.6562
2272.48	21.5276
2272.71	18.6585
2272.95	18.6597
2273.18	21.5317
2273.42	18.662
2273.66	17.706
2273.89	17.7069
2274.13	19.6224
2274.36	18.6664
2274.6	17.7105
2274.83	16.7543
2275.07	17.7129
2275.3	15.7976
2275.54	16.7577
2275.78	18.6775
2276.01	17.7242
2276.25	18.6866
2276.48	18.6906
2276.72	17.7362
2276.95	18.7013
2277.19	19.6679
2277.42	14.8768
2277.66	18.7242
2277.89	16.8064
2278.13	16.8078
2278.36	19.6895
2278.6	16.8076
2278.84	20.6481
2279.07	17.7638
2279.31	19.6755
2279.54	18.7103
2279.78	13.9091
2280.01	15.824
2280.25	16.7798
2280.48	17.7362
2280.72	18.6932
2280.95	17.7324
2281.19	18.6893
2281.42	16.7744
2281.66	17.7344
2281.89	15.8196
2282.13	15.8228
2282.36	19.6635
2282.6	18.7088
2282.83	17.7546
2283.07	13.9214
2283.3	20.652
2283.54	17.778
2283.77	17.7865
2284.01	15.868
2284.24	17.7937
2284.48	17.798
2284.71	20.689
2284.95	13.9542
2285.19	16.8419
2285.42	17.8005
2285.65	15.8702
2285.89	16.8316
2286.13	14.9092
2286.36	18.7601
2286.59	15.8815
2286.83	14.925
2287.06	17.8165
2287.3	17.8186
2287.53	14.9333
2287.77	16.859
2288	15.8933
2288.24	14.928
2288.47	15.8883
2288.71	13.9582
2288.94	15.8776
2289.18	14.9103
2289.41	15.8657
2289.65	27.4006
2289.88	17.7847
2290.12	16.8235
2290.35	19.7081
2290.59	17.7881
2290.82	17.793
2291.06	15.8749
2291.29	18.7656
2291.53	15.8815
2291.76	14.9217
2292	17.8134
2292.23	16.8546
2292.47	13.9685
2292.7	16.8617
2292.93	15.9006
2293.17	15.9025
2293.41	13.9759
2293.64	14.9387
2293.87	14.937
2294.11	13.9712
2294.34	16.8587
2294.58	13.9667
2294.81	16.8542
2295.05	15.8889
2295.28	16.8496
2295.52	17.8104
2295.75	18.7687
2295.99	13.9506
2296.22	16.8361
2296.45	12.0269
2296.69	12.991
2296.92	13.956
2297.16	17.8101
2297.39	14.9263
2297.63	16.8582
2297.86	15.8985
2298.09	17.8283
2298.33	20.7237
2298.56	15.9085
2298.8	14.9477
2299.03	15.915
2299.27	16.8813
2299.5	14.9519
2299.74	18.8107
2299.97	13.9872
2300.21	16.8832
2300.44	15.9213
2300.67	14.9584
2300.91	13.995
2301.14	13.0309
2301.38	15.9271
2301.61	13.9962
2301.85	14.9602
2302.08	14.9592
2302.31	13.9945
2302.55	14.9594
2302.78	16.8888
2303.02	14.9585
2303.25	15.924
2303.49	13.9953
2303.72	13.9978
2303.95	12.0691
2304.19	15.9331
2304.42	15.9355
2304.66	16.9047
2304.89	13.0423
2305.12	16.9077
2305.36	15.943
2305.59	14.0124
2305.83	16.9137
2306.06	15.948
2306.29	14.9819
2306.53	14.9818
2306.76	13.0483
2307	16.913
2307.23	14.012
2307.46	18.8423
2307.7	14.976
2307.93	12.0764
2308.17	17.8732
2308.4	14.0094
2308.64	14.0117
2308.87	14.0142
2309.1	14.0178
2309.34	19.8247
2309.57	13.0582
2309.8	14.0269
2310.04	16.9297
2310.27	15.9619
2310.51	16.9276
2310.74	13.0555
2310.97	15.9476
2311.21	18.835
2311.44	15.9317
2311.68	13.9971
2311.91	14.9603
2312.14	13.0277
2312.38	15.9207
2312.61	13.9908
2312.84	14.9575
2313.08	15.9274
2313.31	14.9681
2313.55	14.0067
2313.78	13.0447
2314.01	13.0488
2314.25	14.9877
2314.48	15.9602
2314.71	14.9956
2314.95	16.9262
2315.18	13.0541
2315.41	14.0183
2315.65	12.0815
2315.88	13.041
2316.12	14.003
2316.35	17.8634
2316.58	14.9664
2316.82	16.8985
2317.05	15.9339
2317.28	14.9723
2317.52	14.009
2317.75	16.9017
2317.98	18.8303
2318.22	16.8968
2318.45	14.9634
2318.69	16.8914
2318.92	18.8192
2319.15	16.8872
2319.39	13.0264
2319.62	16.8862
2319.85	18.8167
2320.09	15.9218
2320.32	17.8535
2320.55	16.8911
2320.79	16.894
2321.02	18.8284
2321.25	18.8326
2321.49	16.906
2321.72	16.9114
2321.95	15.9494
2322.19	19.8181
2322.42	19.8173
2322.65	17.8848
2322.89	16.9194
2323.12	22.7218
2323.35	18.8557
2323.59	22.7244
2323.82	18.8557
2324.05	20.7888
2324.29	28.5173
2324.52	26.5758
2324.75	27.5324
2324.99	26.5601
2325.22	31.3831
2325.45	27.5152
2325.69	28.4749
2325.92	32.329
2326.15	35.2166
2326.39	41.9615
2326.62	44.8457
2326.85	56.4062
2327.09	67.9667
2327.32	86.2698
2327.55	119.029
2327.79	172.047
2328.02	232.773
2328.25	281.938
2328.48	260.682
2328.72	217.273
2328.95	142.081
2329.18	91.9829
2329.42	65.0115
2329.65	51.5345
2329.88	40.9361
2330.11	33.2278
2330.35	28.4096
2330.58	24.5567
2330.81	20.7062
2331.05	21.6725
2331.28	17.8227
2331.51	18.7907
2331.75	18.7858
2331.98	15.8925
2332.21	16.8533
2332.45	17.8139
2332.68	16.8488
2332.91	12.996
2333.14	15.8823
2333.38	14.9184
2333.61	15.8787
2333.84	15.8761
2334.07	15.8721
2334.31	12.0225
2334.54	13.9447
2334.77	13.9442
2335.01	14.9051
2335.24	14.9057
2335.47	12.9834
2335.7	15.8681
2335.94	14.9049
2336.17	15.8656
2336.4	15.8649
2336.64	16.8258
2336.87	15.8636
2337.1	13.9402
2337.33	15.8617
2337.57	16.8219
2337.8	13.9376
2338.03	13.937
2338.26	13.9366
2338.5	15.8595
2338.73	12.9764
2338.96	12.0152
2339.19	15.8596
2339.43	15.8584
2339.66	15.8565
2339.89	12.9713
2340.12	11.0478
2340.36	14.8872
2340.59	21.6045
2340.82	13.9184
2341.05	15.8322
2341.29	15.8276
2341.52	15.8248
2341.75	17.74
2341.98	16.7786
2342.22	13.9007
2342.45	19.6516
2342.68	14.8583
2342.91	16.7757
2343.15	11.0236
2343.38	12.9402
2343.61	12.9404
2343.84	13.9
2344.08	14.8592
2344.31	14.8589
2344.54	13.8994
2344.77	13.898
2345	15.8124
2345.24	14.8503
2345.47	15.8054
2345.7	14.8448
2345.93	14.8437
2346.17	12.9277
2346.4	14.8423
2346.63	14.841
2346.86	11.9676
2347.1	16.7544
2347.33	15.7974
2347.56	13.8835
2347.79	12.9276
2348.02	14.8441
2348.26	13.8864
2348.49	13.8852
2348.72	13.883
2348.95	13.8772
2349.19	16.7412
2349.42	15.7766
2349.65	14.8116
2349.88	14.8009
2350.11	13.828
2350.35	16.6537
2350.58	13.8194
2350.81	14.8233
2351.04	16.7545
2351.27	12.8995
2351.51	15.7476
2351.74	11.9308
2351.97	16.7053
2352.2	13.8333
2352.43	14.774
2352.67	10.9534
2352.9	15.7195
2353.13	13.8132
2353.36	13.8106
2353.59	13.8107
2353.83	13.8103
2354.06	14.7663
2354.29	15.723
2354.52	10.9582
2354.75	12.8631
2354.99	15.7203
2355.22	14.7662
2355.45	15.7171
2355.68	16.6668
2355.91	12.8532
2356.15	14.7503
2356.38	11.8909
2356.61	14.7417
2356.84	14.7392
2357.07	13.786
2357.3	12.8334
2357.54	13.7821
2357.77	13.7807
2358	14.73
2358.23	13.7767
2358.46	10.9253
2358.69	14.7244
2358.93	13.7737
2359.16	12.8223
2359.39	13.7698
2359.62	13.7668
2359.85	12.8144
