#Acq. time (s)=	60
#Accumulations=	2
#Range (cm-¹)=	100...4000
#Windows=	1
#Auto scanning=	Off
#Autofocus=	Off
#Macrospot=	Off
#AutoExposure=	Off
#Spike filter=	Multiple accum.
#Delay time (s)=	2
#Binning=	1
#Readout mode=	Signal
#DeNoise=	Off
#ICS correction=	On
#Dark correction=	Off
#Inst. Process=	Off
#Detector Gain=	Best Dynamic
#Detector ADC=	50 kHz HS
#Detector temperature (°C)=	-60.09
#Instrument=	LabRAM HR Evol
#Detector=	SIN-EM FIVIS
#Objective=	x100_VIS_LWD
#Grating=	150 (500nm)
#ND Filter=	100%
#Laser=	633nm_Edge
#Hole=	30.0125
#Temperature=	39.9
#Range=	Visible
#StageXY=	75x50mm Scan+
#StageZ=	Z motor
#X (µm)=	0
#Y (µm)=	0
#Z (µm)=	469.1
#Full time(mm:ss)=	2:05
#Project=	21_08_11
#Sample=	BU20
#Site=	
#Title=	BU20-B-FF4-FI01-V_150 (500nm)_633nm_Edge_100%_x100_VIS_LWD_H30um_60sX2
#Remark=	
#Date=	13.08.2021 11:43
#Acquired=	13.08.2021 11:43:40
100.12	674.345
103.379	581.134
106.638	486.963
109.896	461.449
113.152	400.566
116.407	369.229
119.66	346.409
122.912	291.1
126.162	266.319
129.412	250.151
132.659	221.492
135.906	213.869
139.151	196.64
142.396	195.69
145.637	186.146
148.878	179.46
152.118	166.09
155.356	159.436
158.594	154.687
161.829	143.238
165.064	138.489
168.297	137.557
171.529	140.448
174.759	131.816
177.989	126.039
181.216	110.671
184.441	114.439
187.667	124.893
190.89	116.181
194.114	116.09
197.334	103.596
200.553	112.139
203.772	110.233
206.989	112.125
210.205	114.964
213.419	107.309
216.631	107.291
219.844	112.034
223.054	120.582
226.262	110.046
229.471	123.284
232.677	136.53
235.881	162.135
239.086	176.316
242.288	207.588
245.488	195.231
248.689	163.843
251.887	141.953
255.083	136.206
258.28	130.48
261.474	133.298
264.667	141.811
267.858	136.102
271.05	149.371
274.238	147.471
277.426	165.491
280.613	174.009
283.798	200.523
286.982	228.912
290.164	220.306
293.346	224.943
296.526	201.181
299.704	170.815
302.881	148.035
306.058	143.232
309.233	131.826
312.406	125.156
315.577	123.216
318.749	129.773
321.918	130.694
325.086	155.206
328.253	180.651
331.418	212.714
334.584	227.783
337.746	211.724
340.908	166.437
344.068	147.557
347.227	129.608
350.384	122.042
353.542	130.475
356.697	115.353
359.851	129.417
363.003	137.818
366.154	149.969
369.304	161.17
372.452	151.698
375.601	152.549
378.747	142.153
381.892	131.763
385.035	119.546
388.177	114.879
391.318	109.3
394.457	112.188
397.596	101.007
400.733	98.3157
403.868	111.6
407.004	96.6361
410.137	109.004
413.269	105.318
416.4	107.269
419.529	115.868
422.657	115.908
425.784	114.001
428.91	116.718
432.034	127.914
435.157	145.681
438.279	158.687
441.399	156.614
444.518	173.319
447.636	167.444
450.753	174.683
453.868	164.152
456.982	163.947
460.095	156.313
463.207	162.725
466.317	150.537
469.426	139.284
472.534	136.459
475.64	125.284
478.746	113.194
481.85	115.995
484.952	115.069
488.054	104.825
491.154	104.834
494.253	114.171
497.351	102.993
500.447	101.145
503.541	110.498
506.635	112.39
509.728	105.892
512.819	97.5332
515.91	98.5075
518.999	106.045
522.086	105.198
525.173	102.486
528.258	100.722
531.342	98.972
534.423	106.626
537.505	108.655
540.585	105.95
543.664	106.052
546.742	101.413
549.819	103.325
552.894	105.265
555.966	99.632
559.039	103.392
562.111	101.437
565.181	103.245
568.25	97.4826
571.317	90.7717
574.383	97.2086
577.449	98.9205
580.513	98.7609
583.576	105.175
586.636	104.108
589.697	116.129
592.756	106.736
595.814	110.405
598.871	137.413
601.925	151.461
604.979	170.23
608.032	173.163
611.084	160.254
614.133	141.72
617.183	145.682
620.231	159.024
623.277	148.01
626.322	140.743
629.367	151.261
632.41	154.194
635.451	157.057
638.492	154.195
641.532	149.399
644.569	143.591
647.606	132.201
650.642	133.03
653.675	130.05
656.709	147.692
659.741	152.177
662.771	158.514
665.801	162.99
668.829	147.862
671.856	140.313
674.882	122.636
677.907	117.969
680.929	112.37
683.952	105.885
686.972	100.342
689.992	91.094
693.011	91.1964
696.028	92.2371
699.045	88.5891
702.059	89.62
705.073	90.6458
708.086	88.8366
711.096	88.8809
714.107	89.7706
717.115	84.1122
720.123	84.0774
723.129	85.0042
726.135	91.5199
729.139	88.6267
732.141	88.5473
735.143	85.6595
738.143	87.4516
741.143	86.4421
744.14	88.2393
747.138	85.3832
750.133	83.4658
753.128	86.2464
756.12	90.877
759.113	88.1143
762.103	83.5223
765.093	77.0846
768.081	84.6807
771.069	81.0526
774.054	82.1112
777.04	87.8548
780.023	87.9483
783.005	86.1386
785.987	86.195
788.966	88.1294
791.946	84.3949
794.923	82.5275
797.9	84.4165
800.875	81.5656
803.848	79.647
806.822	79.6012
809.793	85.2046
812.765	81.3676
815.733	85.9851
818.701	69.9305
821.669	82.0367
824.634	80.062
827.6	85.5721
830.563	78.9547
833.525	83.6112
836.487	82.6853
839.446	81.796
842.404	85.6286
845.363	87.5679
848.319	89.5298
851.273	88.6915
854.228	89.7378
857.181	85.1497
860.132	82.4396
863.083	90.1009
866.032	86.4463
868.98	88.4566
871.927	86.6588
874.874	85.7755
877.818	85.8179
880.761	91.5469
883.704	92.5195
886.645	86.8305
889.585	94.4109
892.523	98.1805
895.462	90.5591
898.398	90.4901
901.333	96.0673
904.267	86.4972
907.2	91.1119
910.133	90.988
913.063	89.9281
915.992	90.7557
918.92	92.5714
921.849	92.5231
924.774	96.2744
927.699	91.5896
930.622	85.0783
933.545	103.937
936.466	97.4781
939.387	106.137
942.306	99.7145
945.224	103.686
948.141	110.541
951.056	119.318
953.97	133.829
956.884	130.243
959.797	141.901
962.708	141.135
965.617	156.603
968.526	154.848
971.434	150.161
974.34	163.669
977.245	174.236
980.149	179.917
983.052	204.737
985.955	235.244
988.856	274.304
991.755	301.802
994.654	326.366
997.551	315.589
1000.45	296.281
1003.34	248.421
1006.24	234.028
1009.13	225.421
1012.02	222.666
1014.91	221.823
1017.8	232.418
1020.69	225.866
1023.57	245.197
1026.46	263.672
1029.35	287.96
1032.23	280.658
1035.11	265.694
1037.99	226.65
1040.87	199.048
1043.75	166.529
1046.63	156.163
1049.51	149.58
1052.38	133.266
1055.26	135.335
1058.13	129.61
1061	120.93
1063.88	118.045
1066.74	118.012
1069.61	121.882
1072.48	114.095
1075.35	119.888
1078.21	114.986
1081.08	118.81
1083.94	131.356
1086.8	140.015
1089.67	146.763
1092.53	140.905
1095.38	151.516
1098.24	136.943
1101.1	153.348
1103.95	172.673
1106.81	158.243
1109.66	145.662
1112.51	121.564
1115.36	113.032
1118.22	115.173
1121.06	101.703
1123.91	102.792
1126.76	98.0246
1129.6	98.1536
1132.45	93.3848
1135.29	105.255
1138.13	94.5957
1140.98	102.574
1143.81	112.505
1146.65	120.443
1149.49	113.657
1152.33	120.602
1155.16	127.512
1158	138.319
1160.83	137.274
1163.66	123.372
1166.49	91.8298
1169.32	93.7073
1172.15	93.6173
1174.98	88.6262
1177.81	82.6613
1180.63	83.5697
1183.46	83.5125
1186.28	81.5436
1189.1	85.4526
1191.93	82.5319
1194.75	80.6316
1197.56	73.8371
1200.38	85.6713
1203.2	71.0968
1206.02	85.9493
1208.83	78.2414
1211.64	76.4124
1214.46	75.5868
1217.27	77.737
1220.08	73.9499
1222.89	76.1193
1225.69	67.3264
1228.5	74.4835
1231.31	75.6475
1234.11	74.7923
1236.92	73.9207
1239.72	76.0475
1242.52	73.1083
1245.32	76.1992
1248.12	79.2738
1250.92	90.4058
1253.72	83.3591
1256.51	82.3332
1259.31	89.3674
1262.1	98.3826
1264.89	118.484
1267.69	96.2378
1270.48	91.1228
1273.27	90.0224
1276.05	93.9462
1278.84	119.932
1281.63	264.165
1284.41	519.323
1287.2	242.692
1289.98	121.516
1292.76	95.466
1295.55	95.4447
1298.33	87.4422
1301.1	89.4414
1303.88	79.4793
1306.66	82.5352
1309.43	81.6182
1312.21	75.7238
1314.98	74.8371
1317.76	67.9157
1320.53	83.1526
1323.3	76.2384
1326.07	79.4265
1328.84	78.5731
1331.6	72.6375
1334.37	75.8201
1337.13	72.8933
1339.9	74.0305
1342.66	78.2108
1345.42	74.2011
1348.18	76.3223
1350.94	81.5202
1353.7	72.3504
1356.46	85.7466
1359.22	75.514
1361.97	88.8975
1364.73	87.8772
1367.48	85.8131
1370.23	94.0194
1372.98	82.699
1375.73	81.6588
1378.48	91.9121
1381.23	94.9718
1383.98	165.776
1386.72	637.802
1389.47	645.858
1392.21	194.429
1394.95	102.109
1397.7	81.6572
1400.44	91.9897
1403.18	84.8539
1405.92	103.449
1408.65	123.113
1411.39	117.041
1414.13	89.2915
1416.86	80.093
1419.59	77.0786
1422.32	66.8131
1425.06	75.1969
1427.79	70.0988
1430.52	71.2324
1433.24	67.1577
1435.97	73.498
1438.7	61.0641
1441.42	65.3133
1444.15	70.6357
1446.87	66.5251
1449.59	64.4853
1452.31	68.7215
1455.03	55.1087
1457.75	67.7223
1460.47	56.1799
1463.19	61.4295
1465.9	66.6726
1468.62	57.2138
1471.33	62.4545
1474.04	61.4001
1476.75	64.5527
1479.46	59.3177
1482.17	65.6306
1484.88	64.6019
1487.59	66.733
1490.3	66.7722
1493	68.9247
1495.7	64.7736
1498.41	61.6689
1501.11	68.0658
1503.81	60.7448
1506.51	61.8752
1509.21	69.3732
1511.91	66.2865
1514.61	56.8281
1517.3	59.0464
1520	62.3429
1522.69	57.1097
1525.39	61.4909
1528.08	62.6649
1530.77	65.9983
1533.46	54.3009
1536.15	64.0886
1538.83	60.941
1541.52	64.2655
1544.21	60.002
1546.89	64.3568
1549.58	64.366
1552.26	57.8648
1554.94	55.6685
1557.62	57.7878
1560.3	55.6001
1562.98	58.8114
1565.66	57.703
1568.33	57.6725
1571.01	63.0283
1573.69	65.1502
1576.36	57.5905
1579.03	52.2075
1581.7	55.4375
1584.38	60.826
1587.04	67.2974
1589.71	55.4674
1592.38	66.2637
1595.05	63.0637
1597.71	63.1064
1600.38	56.6732
1603.04	58.8855
1605.7	62.1889
1608.37	56.8525
1611.03	55.8495
1613.68	55.9437
1616.34	60.399
1619	57.2452
1621.66	61.7256
1624.31	61.843
1626.97	58.6695
1629.62	59.8781
1632.27	61.0859
1634.93	56.7695
1637.58	54.6358
1640.23	57.9729
1642.88	62.4376
1645.52	61.3826
1648.17	59.2111
1650.81	53.7088
1653.46	54.8455
1656.1	60.4071
1658.75	60.4206
1661.39	53.7771
1664.03	62.6566
1666.67	53.787
1669.31	56.0068
1671.94	60.4434
1674.58	56.0076
1677.22	60.4344
1679.85	60.4334
1682.48	57.0884
1685.12	53.738
1687.75	58.1435
1690.38	49.2661
1693.01	59.2188
1695.64	57.008
1698.26	53.7084
1700.89	53.7617
1703.52	55.0294
1706.14	52.924
1708.77	60.8572
1711.39	56.3069
1714.01	55.1893
1716.63	59.7039
1719.25	58.6979
1721.87	58.7524
1724.49	54.3094
1727.1	61.0922
1729.72	60.0334
1732.34	56.7261
1734.95	62.4051
1737.56	53.461
1740.18	58.0187
1742.79	51.308
1745.4	58.1295
1748.01	50.2678
1750.61	54.8231
1753.22	52.5935
1755.83	66.2001
1758.43	52.636
1761.04	57.1726
1763.64	53.785
1766.24	48.1343
1768.84	58.3435
1771.44	51.5622
1774.04	53.8467
1776.64	52.738
1779.24	58.446
1781.84	59.6263
1784.43	50.5816
1787.02	50.6273
1789.62	52.9623
1792.21	57.5816
1794.8	57.6476
1797.39	52.0023
1799.98	57.7969
1802.57	57.8754
1805.16	47.628
1807.75	58.0303
1810.33	52.3411
1812.92	52.3972
1815.5	58.2175
1818.08	50.2042
1820.67	54.877
1823.25	59.5657
1825.83	59.6332
1828.41	56.2243
1830.98	57.4537
1833.56	52.8735
1836.14	56.4355
1838.71	54.1638
1841.29	51.8832
1843.86	55.4304
1846.43	53.1419
1849	54.3527
1851.58	57.9078
1854.14	50.9124
1856.71	53.296
1859.28	47.4789
1861.85	52.2205
1864.41	41.6985
1866.98	51.154
1869.54	54.733
1872.1	52.4199
1874.67	58.3477
1877.23	53.6693
1879.79	59.6007
1882.35	58.4571
1884.9	52.5761
1887.46	52.6023
1890.02	46.6976
1892.57	62.0685
1895.13	52.6111
1897.68	52.619
1900.23	55.0033
1902.79	51.4956
1905.34	50.3609
1907.89	46.8517
1910.43	43.3513
1912.98	49.3671
1915.53	55.4115
1918.07	48.3329
1920.62	48.3419
1923.16	53.1626
1925.71	53.2146
1928.25	53.2668
1930.79	56.9128
1933.33	56.9662
1935.87	54.6142
1938.41	53.4557
1940.94	52.2905
1943.48	49.9169
1946.02	47.5362
1948.55	47.5594
1951.08	54.8014
1953.62	57.2238
1956.15	50.005
1958.68	53.6274
1961.21	58.454
1963.74	50.0197
1966.27	52.4306
1968.79	56.0365
1971.32	47.5883
1973.85	47.5741
1976.37	53.5818
1978.89	52.3635
1981.42	51.1445
1983.94	45.1153
1986.46	51.1185
1988.98	48.7034
1991.5	53.5042
1994.01	45.082
1996.53	49.8869
1999.05	47.483
2001.56	55.9013
2004.08	51.1003
2006.59	53.5202
2009.1	53.5364
2011.61	51.153
2014.12	51.1729
2016.63	45.1715
2019.14	54.8209
2021.65	48.8131
2024.16	48.839
2026.66	48.8696
2029.17	53.7349
2031.67	50.1555
2034.17	53.8338
2036.68	47.8302
2039.18	49.0888
2041.68	51.5647
2044.18	47.9747
2046.68	49.2431
2049.17	54.1673
2051.67	53.0072
2054.17	43.2845
2056.66	49.4324
2059.15	49.4875
2061.65	48.3195
2064.14	43.475
2066.63	48.4297
2069.12	50.9355
2071.61	47.3033
2074.1	48.5839
2076.59	54.7887
2079.07	52.377
2081.56	49.958
2084.04	57.4056
2086.53	54.9756
2089.01	51.3001
2091.49	47.6326
2093.97	47.679
2096.46	42.7751
2098.94	49.0305
2101.41	52.8177
2103.89	47.9073
2106.37	51.7086
2108.84	49.2849
2111.32	48.1069
2113.79	58.1932
2116.26	50.7633
2118.74	53.3531
2121.21	49.663
2123.68	52.2554
2126.15	52.3317
2128.62	49.8796
2131.09	48.6817
2133.55	48.743
2136.02	43.7309
2138.48	51.3945
2140.95	43.8284
2143.41	51.5066
2145.87	52.8295
2148.33	51.601
2150.79	45.2626
2153.25	59.3266
2155.71	50.4241
2158.17	50.4489
2160.63	47.9138
2163.08	51.7624
2165.54	49.2156
2167.99	50.4992
2170.45	55.625
2172.9	51.8093
2175.35	51.829
2177.8	53.1248
2180.25	48.0075
2182.7	54.4104
2185.15	49.2819
2187.59	46.7227
2190.04	51.8499
2192.49	45.4604
2194.93	46.754
2197.38	50.621
2199.82	51.9338
2202.26	51.9709
2204.7	49.4448
2207.14	49.4893
2209.58	50.826
2212.02	54.7457
2214.46	52.2269
2216.89	52.2911
2219.33	51.0645
2221.76	55.0131
2224.2	52.491
2226.63	49.9623
2229.06	53.924
2231.49	55.2935
2233.92	50.1531
2236.35	51.5208
2238.78	54.1978
2241.21	52.9573
2243.64	49.0975
2246.06	50.472
2248.49	54.4745
2250.91	58.4858
2253.34	51.9776
2255.76	61.2641
2258.18	57.3877
2260.6	53.4983
2263.02	53.5613
2265.44	54.9409
2267.86	49.6922
2270.27	47.0809
2272.69	51.0972
2275.11	56.4419
2277.52	55.146
2279.94	53.8425
2282.35	60.5092
2284.76	48.5497
2287.17	57.8662
2289.58	52.5539
2291.99	52.5597
2294.4	57.8883
2296.81	53.9071
2299.21	57.9228
2301.62	53.9509
2304.03	52.6502
2306.43	47.3553
2308.83	52.7378
2311.24	48.7826
2313.64	56.8625
2316.04	48.8936
2318.44	50.2985
2320.84	50.3617
2323.24	51.7682
2325.63	50.4923
2328.03	59.9988
2330.43	58.7322
2332.82	46.6515
2335.21	46.723
2337.61	59.0042
2340	50.9458
2342.39	45.5889
2344.78	57.9363
2347.17	52.5855
2349.56	49.939
2351.95	47.285
2354.33	48.7331
2356.72	58.4232
2359.11	50.2424
2361.49	48.9067
2363.87	43.4436
2366.26	44.8721
2368.64	46.303
2371.02	44.9675
2373.4	47.7828
2375.78	49.2165
2378.16	49.266
2380.54	49.302
2382.91	46.5563
2385.29	43.7968
2387.66	46.5986
2390.04	49.3966
2392.41	49.4051
2394.78	46.6292
2397.16	43.8443
2399.53	50.8031
2401.9	45.2368
2404.27	45.2303
2406.64	46.6181
2409	52.1966
2411.37	42.4857
2413.73	42.5332
2416.1	46.8129
2418.46	44.1512
2420.83	45.6399
2423.19	45.6841
2425.55	44.2997
2427.91	44.3532
2430.27	48.6386
2432.63	44.4691
2434.99	43.1204
2437.35	40.3554
2439.7	48.9247
2442.06	41.8962
2444.41	46.2254
2446.77	44.8702
2449.12	46.3646
2451.47	45.006
2453.83	45.0708
2456.18	36.5386
2458.53	43.7675
2460.88	46.7046
2463.22	43.8946
2465.57	43.9562
2467.92	44.0158
2470.26	46.9633
2472.61	48.4687
2474.95	44.1847
2477.3	41.3428
2479.64	44.302
2481.98	47.2654
2484.32	41.4967
2486.66	47.3695
2489	44.5009
2491.34	46.0062
2493.67	47.5145
2496.01	54.8847
2498.35	47.6138
2500.68	46.193
2503.02	43.2998
2505.35	43.3374
2507.68	43.3726
2510.01	37.5195
2512.34	43.4343
2514.67	40.515
2517	43.4882
2519.33	44.9962
2521.66	45.0336
2523.99	40.6365
2526.31	43.6236
2528.64	39.2176
2530.96	40.7283
2533.28	46.694
2535.61	39.3191
2537.93	37.8726
2540.25	46.8312
2542.57	43.9029
2544.89	36.4997
2547.21	43.9994
2549.53	44.0471
2551.84	51.57
2554.16	39.6545
2556.47	48.6778
2558.79	41.225
2561.1	41.27
2563.42	42.8175
2565.73	44.3757
2568.04	44.4307
2570.35	41.4737
2572.66	40.0182
2574.97	38.5569
2577.27	40.1164
2579.58	44.7055
2581.89	44.7481
2584.19	43.261
2586.5	41.7704
2588.8	46.3519
2591.1	40.2813
2593.41	43.3461
2595.71	46.4193
2598.01	46.4603
2600.31	41.9203
2602.61	43.4732
2604.91	34.3418
2607.2	41.9971
2609.5	38.9649
2611.8	40.5063
2614.09	42.0517
2616.38	39.0084
2618.68	45.1497
2620.97	40.5746
2623.26	43.6578
2625.55	37.551
2627.84	39.1067
2630.13	42.2097
2632.42	42.2546
2634.71	40.766
2637	43.9051
2639.28	42.4338
2641.57	42.4985
2643.85	37.9235
2646.14	41.0887
2648.42	39.5986
2650.7	34.9936
2652.98	36.6068
2655.26	41.3228
2657.54	41.3601
2659.82	42.957
2662.1	41.4265
2664.38	38.325
2666.65	38.3465
2668.93	43.0799
2671.2	38.4145
2673.48	41.6025
2675.75	43.2408
2678.02	37.0333
2680.29	40.2931
2682.57	38.8009
2684.84	38.8891
2687.1	42.1598
2689.37	32.6863
2691.64	43.9306
2693.91	39.2116
2696.17	40.8323
2698.44	39.274
2700.7	44.1326
2702.97	44.1782
2705.23	39.3962
2707.49	41.0431
2709.76	39.4679
2712.02	34.6644
2714.28	39.5384
2716.53	41.2047
2718.79	39.6246
2721.05	36.4262
2723.31	38.0783
2725.56	38.1042
2727.82	42.9967
2730.07	43.0199
2732.33	36.5384
2734.58	41.4304
2736.83	41.4441
2739.08	43.0821
2741.33	34.9739
2743.58	38.2502
2745.83	41.535
2748.08	38.3083
2750.33	41.6104
2752.57	35.1448
2754.82	36.8256
2757.06	35.2245
2759.31	43.4524
2761.55	43.4801
2763.79	43.5188
2766.04	38.6305
2768.28	40.3166
2770.52	40.3497
2772.76	42.0406
2775	42.0901
2777.23	42.1469
2779.47	37.2397
2781.71	42.279
2783.94	37.3664
2786.18	44.085
2788.41	30.8274
2790.65	35.8843
2792.88	39.2837
2795.11	34.3206
2797.34	42.7476
2799.57	36.0897
2801.8	39.4939
2804.03	32.8078
2806.26	39.5781
2808.48	39.6167
2810.71	44.7157
2812.94	36.311
2815.16	34.6469
2817.38	41.4378
2819.61	44.8551
2821.83	36.4209
2824.05	33.061
2826.27	33.0893
2828.49	39.9088
2830.71	34.8408
2832.93	46.7717
2835.15	39.9957
2837.37	38.321
2839.58	40.0528
2841.8	36.6708
2844.01	43.5266
2846.23	36.7323
2848.44	38.4754
2850.65	26.5316
2852.87	38.5578
2855.08	40.3219
2857.29	36.937
2859.5	35.262
2861.71	40.4775
2863.91	42.2622
2866.12	38.8738
2868.33	42.3959
2870.53	38.9952
2872.74	39.0547
2874.94	35.6386
2877.15	35.6952
2879.35	39.2425
2881.55	39.31
2883.75	37.6298
2885.95	41.2058
2888.15	36.008
2890.35	37.8286
2892.55	36.129
2894.75	32.658
2896.94	38.0254
2899.14	41.6413
2901.33	38.166
2903.53	48.8938
2905.72	36.5037
2907.91	34.7749
2910.11	45.5404
2912.3	40.2284
2914.49	42.0634
2916.68	36.733
2918.87	40.366
2921.05	42.2124
2923.24	40.4668
2925.43	40.5229
2927.61	36.9745
2929.8	37.0288
2931.99	40.7027
2934.17	42.566
2936.35	38.9886
2938.53	31.7665
2940.72	35.429
2942.9	35.463
2945.08	40.9538
2947.26	37.3377
2949.44	39.1868
2951.61	39.2161
2953.79	39.2443
2955.97	39.272
2958.14	35.6432
2960.32	41.1564
2962.49	41.1879
2964.66	37.5562
2966.84	41.2563
2969.01	37.6229
2971.18	39.4946
2973.35	35.8544
2975.52	37.7287
2977.69	35.9219
2979.86	37.7994
2982.03	43.3766
2984.19	39.7321
2986.36	39.7816
2988.52	47.2451
2990.69	36.1779
2992.85	39.946
2995.01	38.1405
2997.18	36.3347
2999.34	30.7927
3001.5	40.1885
3003.66	36.5114
3005.82	40.3253
3007.98	36.6355
3010.14	42.3411
3012.29	38.633
3014.45	40.5863
3016.6	42.5489
3018.76	36.9435
3020.91	44.6026
3023.07	40.8755
3025.22	40.9381
3027.37	40.9936
3029.52	37.2282
3031.67	41.0965
3033.82	39.2272
3035.97	33.5185
3038.12	39.2956
3040.27	41.2624
3042.41	37.4614
3044.56	35.5727
3046.71	35.6038
3048.85	41.4129
3051	37.5923
3053.14	41.4827
3055.28	39.59
3057.42	45.4258
3059.56	41.5963
3061.7	41.6327
3063.84	51.3597
3065.98	49.4655
3068.12	43.684
3070.26	35.9494
3072.39	43.7605
3074.53	32.1205
3076.67	41.8929
3078.8	41.9323
3080.93	41.971
3083.07	38.1019
3085.2	36.189
3087.33	40.1479
3089.46	50.0069
3091.59	44.1872
3093.72	40.3211
3095.85	40.3878
3097.98	42.4271
3100.11	44.4723
3102.23	38.6082
3104.36	40.6611
3106.48	44.7115
3108.61	48.7779
3110.73	36.905
3112.85	44.9746
3114.98	51.0687
3117.1	43.1433
3119.22	41.2175
3121.34	45.3343
3123.46	39.3737
3125.58	51.6024
3127.7	41.5788
3129.81	51.8425
3131.93	45.8572
3134.05	39.8397
3136.16	44.0321
3138.27	46.1885
3140.39	42.1773
3142.5	42.2684
3144.61	46.4876
3146.73	46.5796
3148.84	50.8195
3150.95	42.5972
3153.06	46.8243
3155.16	40.6428
3157.27	42.7895
3159.38	38.6716
3161.49	49.1967
3163.59	45.0773
3165.7	43.0394
3167.8	45.1979
3169.91	43.1486
3172.01	45.3237
3174.11	45.3804
3176.21	51.7642
3178.31	45.466
3180.41	43.3853
3182.51	54.0051
3184.61	47.6828
3186.71	56.1943
3188.81	43.4865
3190.9	54.1332
3193	39.3059
3195.1	47.8466
3197.19	43.6433
3199.28	45.8387
3201.38	54.4696
3203.47	46.0045
3205.56	54.6637
3207.65	39.7388
3209.74	52.7317
3211.83	46.3691
3213.92	52.9507
3216.01	44.4042
3218.1	48.839
3220.18	46.7604
3222.27	51.2129
3224.36	49.131
3226.44	49.2315
3228.52	47.1366
3230.61	53.816
3232.69	49.5213
3234.77	45.197
3236.85	49.6932
3238.93	49.7871
3241.01	45.4541
3243.09	38.8815
3245.17	47.8804
3247.25	41.2752
3249.33	39.119
3251.4	43.6511
3253.48	45.9552
3255.55	48.251
3257.63	55.0463
3259.7	43.8857
3261.77	55.2289
3263.85	48.5537
3265.92	53.1808
3267.99	42.0021
3270.06	42.056
3272.13	51.2879
3274.2	46.7957
3276.26	39.9824
3278.33	46.8875
3280.4	40.066
3282.47	49.2743
3284.53	40.1479
3286.59	37.8917
3288.66	44.8249
3290.72	40.2657
3292.79	47.2108
3294.85	40.337
3296.91	42.6786
3298.97	40.4088
3301.03	45.0795
3303.09	40.4931
3305.15	35.9012
3307.2	42.892
3309.26	42.9324
3311.32	45.293
3313.37	43.0052
3315.43	43.0476
3317.48	38.4271
3319.54	38.4675
3321.59	38.5086
3323.64	47.9047
3325.69	31.5852
3327.74	43.3427
3329.79	38.7078
3331.84	43.4763
3333.89	41.2023
3335.94	43.6326
3337.99	38.9848
3340.04	46.1329
3342.08	31.9757
3344.13	41.4919
3346.17	41.5344
3348.22	46.3137
3350.26	46.3593
3352.3	67.8146
3354.34	41.6755
3356.39	41.7236
3358.43	41.7706
3360.47	37.0377
3362.51	51.4355
3364.54	39.5156
3366.58	49.1459
3368.62	41.9985
3370.66	46.8493
3372.69	44.4886
3374.73	49.3406
3376.76	44.5604
3378.8	47.0024
3380.83	49.4472
3382.86	47.0662
3384.89	47.0963
3386.93	42.2917
3388.96	49.5704
3390.99	44.7573
3393.02	44.781
3395.04	47.2325
3397.07	52.1158
3399.1	47.3036
3401.13	49.7617
3403.15	47.3567
3405.18	49.8078
3407.2	47.4021
3409.23	37.6965
3411.25	42.575
3413.27	47.4597
3415.29	49.9128
3417.31	47.498
3419.34	49.9529
3421.36	45.0953
3423.37	40.2332
3425.39	57.323
3427.41	67.1133
3429.43	42.7322
3431.44	40.3155
3433.46	40.3428
3435.48	52.6079
3437.49	47.7539
3439.5	45.3456
3441.52	42.9331
3443.53	42.9757
3445.54	45.4841
3447.55	35.6961
3449.56	45.5998
3451.57	40.7208
3453.58	43.2494
3455.59	48.2654
3457.6	43.3882
3459.61	40.9797
3461.61	41.0516
3463.62	41.1241
3465.63	36.2033
3467.63	36.2674
3469.63	41.3392
3471.64	46.4263
3473.64	43.9646
3475.64	44.0324
3477.64	34.0195
3479.64	41.6425
3481.64	34.1219
3483.64	39.2339
3485.64	46.8945
3487.64	34.268
3489.64	41.9403
3491.63	39.4521
3493.63	44.6007
3495.63	47.2046
3497.62	49.8121
3499.62	39.6359
3501.61	37.1148
3503.6	42.2687
3505.59	42.3046
3507.59	50.0286
3509.58	39.7842
3511.57	47.5
3513.56	34.6736
3515.55	44.9612
3517.53	39.8342
3519.52	39.8458
3521.51	47.571
3523.49	39.8687
3525.48	39.884
3527.47	42.4745
3529.45	39.9073
3531.43	39.9295
3533.42	39.9626
3535.4	34.8395
3537.38	37.4625
3539.36	40.0964
3541.34	34.9586
3543.32	45.359
3545.3	45.3976
3547.28	37.645
3549.26	37.6713
3551.24	42.8898
3553.21	35.0909
3555.19	32.504
3557.16	40.3252
3559.14	40.3486
3561.11	32.5605
3563.09	37.7981
3565.06	50.8736
3567.03	40.4768
3569	40.5272
3570.97	43.1836
3572.94	53.7078
3574.91	56.3915
3576.88	43.3304
3578.85	48.648
3580.82	48.7174
3582.78	54.0647
3584.75	54.1459
3586.72	59.5167
3588.68	54.3057
3590.65	51.7318
3592.61	62.4339
3594.57	57.203
3596.54	54.622
3598.5	49.3612
3600.46	54.7658
3602.42	54.8359
3604.38	41.5129
3606.34	41.5605
3608.3	36.2372
3610.26	36.2737
3612.21	44.3792
3614.17	44.4288
3616.13	39.0787
3618.08	36.4197
3620.04	33.7495
3621.99	31.0672
3623.94	33.7808
3625.9	39.1982
3627.85	41.9153
3629.8	36.5167
3631.75	33.8159
3633.7	39.2349
3635.65	36.5411
3637.6	41.9747
3639.55	31.1629
3641.5	33.9027
3643.44	33.9357
3645.39	36.6869
3647.34	34.0121
3649.28	36.7353
3651.23	28.588
3653.17	42.2259
3655.12	36.7937
3657.06	34.0841
3659	39.5547
3660.94	36.8422
3662.88	34.1243
3664.82	42.3324
3666.76	34.1569
3668.7	42.3776
3670.64	36.9268
3672.58	36.9448
3674.52	39.7101
3676.45	39.7422
3678.39	31.5491
3680.32	31.5816
3682.26	39.8661
3684.19	34.4109
3686.13	34.4592
3688.06	34.5072
3689.99	34.5559
3691.92	40.1428
3693.85	31.8786
3695.78	29.1408
3697.71	40.2983
3699.64	43.1347
3701.57	37.6211
3703.5	40.4549
3705.43	32.1303
3707.35	43.367
3709.28	43.4274
3711.2	35.0697
3713.13	32.3081
3715.05	35.1596
3716.98	29.5672
3718.9	35.2362
3720.82	40.9155
3722.74	35.3061
3724.66	35.3378
3726.59	38.197
3728.5	29.7348
3730.42	35.4296
3732.34	41.1388
3734.26	35.4982
3736.18	32.6897
3738.09	35.5648
3740.01	32.7481
3741.93	38.4743
3743.84	29.9488
3745.75	35.6804
3747.67	32.8491
3749.58	47.1612
3751.49	32.8879
3753.41	38.6261
3755.32	32.917
3757.23	41.5178
3759.14	35.8013
3761.05	35.8097
3762.96	32.9529
3764.86	30.0935
3766.77	35.8339
3768.68	44.4492
3770.58	35.8607
3772.49	35.8769
3774.4	35.8924
3776.3	35.9079
3778.2	41.6749
3780.11	35.9485
3782.01	50.363
3783.91	36.0022
3785.81	30.2657
3787.71	36.0569
3789.61	33.1942
3791.51	33.217
3793.41	41.9163
3795.31	33.2748
3797.21	50.6862
3799.1	36.2407
3801	42.0832
3802.9	30.5065
3804.79	36.358
3806.69	33.4884
3808.58	36.4427
3810.48	39.4013
3812.37	30.6769
3814.26	30.7079
3816.15	36.5932
3818.04	39.56
3819.93	36.6647
3821.82	30.8264
3823.71	36.7295
3825.6	39.697
3827.49	30.9005
3829.38	36.8181
3831.26	42.75
3833.15	33.9376
3835.04	33.9685
3836.92	42.8663
3838.8	34.0246
3840.69	37.0153
3842.57	34.0927
3844.46	40.0497
3846.34	43.0377
3848.22	37.1114
3850.1	34.1551
3851.98	37.138
3853.86	40.1159
3855.74	37.1549
3857.62	43.102
3859.49	34.1831
3861.37	40.1338
3863.25	34.1962
3865.12	43.1497
3867	40.2174
3868.87	37.2888
3870.75	31.3529
3872.62	34.3439
3874.5	40.3289
3876.37	31.3768
3878.24	34.3755
3880.11	37.3766
3881.98	43.372
3883.85	34.4121
3885.72	34.4275
3887.59	37.4395
3889.46	34.4623
3891.33	37.4808
3893.19	34.5077
3895.06	34.5434
3896.93	37.5767
3898.79	37.6053
3900.66	37.6353
3902.52	34.6513
3904.38	37.6897
3906.25	40.736
3908.11	46.8001
3909.97	31.7272
3911.83	40.8282
3913.69	28.7547
3915.55	31.8111
3917.41	34.8761
3919.27	34.9148
3921.13	31.9184
3922.99	41.0882
3924.84	31.9944
3926.7	44.2315
3928.56	41.2242
3930.41	35.1527
3932.27	35.1838
3934.12	32.1478
3935.97	38.2996
3937.83	38.3256
3939.68	29.1525
3941.53	26.1082
3943.38	32.2868
3945.23	41.5508
3947.08	35.4293
3948.93	35.4609
3950.78	35.488
3952.63	35.5135
3954.48	32.4466
3956.33	38.6523
3958.17	35.5791
3960.02	44.8783
3961.86	35.6072
3963.71	29.4259
3965.55	41.8279
3967.4	35.6381
3969.24	38.7404
3971.08	41.8456
3972.92	29.452
3974.77	35.659
3976.6	38.7657
3978.45	35.6681
3980.29	38.7695
3982.12	35.6653
3983.96	35.6639
3985.8	38.7649
3987.64	32.5605
3989.47	41.8646
3991.31	35.6671
3993.15	35.6756
3994.98	38.7895
3996.82	35.702
3998.65	35.7193
