#Acq. time (s)=	30
#Accumulations=	2
#Range (cm-¹)=	1200...2999
#Windows=	5
#Auto scanning=	Off
#Autofocus=	Off
#Macrospot=	Off
#AutoExposure=	Off
#Spike filter=	Multiple accum.
#Delay time (s)=	2
#Binning=	1
#Readout mode=	Signal
#DeNoise=	Off
#ICS correction=	On
#Dark correction=	Off
#Inst. Process=	Off
#Detector Gain=	Best Dynamic
#Detector ADC=	50 kHz EM
#Detector EM gain=	150
#Detector temperature (°C)=	-60.09
#Instrument=	LabRAM HR Evol
#Detector=	SIN-EM FIVIS
#Objective=	x100_VIS_LWD
#Grating=	1800 (450-850nm)
#ND Filter=	100%
#Laser=	532nm_Edge
#Hole=	30.0125
#Temperature=	40
#Range=	Visible
#StageXY=	75x50mm Scan+
#StageZ=	Z motor
#X (µm)=	0
#Y (µm)=	0
#Z (µm)=	71.2
#Full time(mm:ss)=	5:34
#Project=	21_08_11
#Sample=	BU32
#Site=	
#Title=	BU32-B-FF2-FI04-V_1800 (450-850nm)_532nm_Edge_100%_x100_VIS_LWD_H30um_30sX2
#Remark=	
#Date=	13.08.2021 15:57
#Acquired=	13.08.2021 15:57:04
1200.05	337.31
1200.33	323.224
1200.61	331.746
1200.89	332.611
1201.16	328.074
1201.44	332.198
1201.72	335.353
1202	326.907
1202.28	335.973
1202.55	332.917
1202.83	337.013
1203.11	334.622
1203.39	332.287
1203.67	338.619
1203.94	332.161
1204.22	331.137
1204.5	332.152
1204.78	338.478
1205.06	335.115
1205.33	326.373
1205.61	328.362
1205.89	332.498
1206.17	337.702
1206.44	335.401
1206.72	330.983
1207	329.825
1207.28	330.817
1207.55	335.042
1207.83	327.485
1208.11	324.179
1208.39	332.646
1208.67	329.352
1208.94	333.585
1209.22	339.985
1209.5	328.197
1209.78	331.34
1210.05	337.618
1210.33	332.142
1210.61	325.627
1210.89	334.044
1211.16	328.608
1211.44	332.745
1211.72	331.551
1212	326.129
1212.27	335.624
1212.55	334.459
1212.83	336.519
1213.11	325.828
1213.38	335.34
1213.66	336.415
1213.94	333.235
1214.22	328.981
1214.49	328.979
1214.77	339.613
1215.05	331.08
1215.33	328.928
1215.6	332.039
1215.88	325.54
1216.16	324.336
1216.44	319.953
1216.71	321.979
1216.99	319.763
1217.27	338.785
1217.54	329.15
1217.82	332.262
1218.1	334.312
1218.38	325.782
1218.65	328.943
1218.93	326.79
1219.21	334.178
1219.49	329.873
1219.76	324.556
1220.04	324.56
1220.32	324.542
1220.59	330.876
1220.87	333.996
1221.15	329.698
1221.43	324.307
1221.7	331.598
1221.98	327.212
1222.26	321.757
1222.53	319.486
1222.81	322.515
1223.09	322.376
1223.36	326.492
1223.64	325.319
1223.92	329.46
1224.2	325.174
1224.47	325.127
1224.75	327.227
1225.03	330.428
1225.3	335.746
1225.58	323.117
1225.86	327.328
1226.13	330.471
1226.41	326.19
1226.69	320.856
1226.96	319.645
1227.24	320.404
1227.52	335.999
1227.79	329.49
1228.07	324.98
1228.35	316.32
1228.63	324.684
1228.9	326.473
1229.18	322.973
1229.45	326.95
1229.73	327.687
1230.01	326.501
1230.28	334.97
1230.56	320.079
1230.84	324.646
1231.11	328.915
1231.39	329.959
1231.67	320.494
1231.94	326.756
1232.22	329.901
1232.5	317.277
1232.77	322.497
1233.05	330.889
1233.33	323.553
1233.6	321.481
1233.88	338.323
1234.16	325.76
1234.43	325.817
1234.71	323.741
1234.99	322.719
1235.26	322.759
1235.54	330.148
1235.82	329.094
1236.09	323.798
1236.37	333.208
1236.65	322.63
1236.92	322.523
1237.2	330.809
1237.47	331.74
1237.75	319.028
1238.03	325.206
1238.3	326.161
1238.58	328.2
1238.86	325.009
1239.13	323.926
1239.41	330.193
1239.68	317.603
1239.96	332.275
1240.24	316.56
1240.51	324.962
1240.79	322.879
1241.07	332.29
1241.34	320.7
1241.62	326.949
1241.89	324.854
1242.17	317.54
1242.45	319.675
1242.72	321.82
1243	329.156
1243.27	322.866
1243.55	344.902
1243.83	328.129
1244.1	322.866
1244.38	332.269
1244.65	322.77
1244.93	324.784
1245.21	315.249
1245.48	322.471
1245.76	325.559
1246.03	319.253
1246.31	319.251
1246.59	324.481
1246.86	322.362
1247.14	323.399
1247.41	325.462
1247.69	343.134
1247.97	320.047
1248.24	324.213
1248.52	326.321
1248.79	316.932
1249.07	325.283
1249.34	326.315
1249.62	330.502
1249.9	331.486
1250.17	321.992
1250.45	331.325
1250.72	317.675
1251	325.977
1251.27	325.921
1251.55	328.995
1251.83	318.492
1252.1	325.741
1252.38	322.541
1252.65	324.567
1252.93	328.706
1253.2	325.573
1253.48	325.621
1253.76	331.945
1254.03	318.443
1254.31	325.783
1254.58	317.432
1254.86	325.81
1255.13	319.546
1255.41	327.884
1255.68	332.074
1255.96	335.231
1256.23	318.57
1256.51	323.812
1256.79	323.798
1257.06	326.883
1257.34	327.898
1257.61	331.006
1257.89	328.89
1258.16	335.122
1258.44	324.6
1258.71	329.804
1258.99	332.977
1259.27	321.526
1259.54	323.773
1259.82	330.997
1260.09	331.966
1260.37	333.93
1260.64	328.63
1260.92	333.79
1261.19	326.508
1261.47	326.786
1261.74	333.466
1262.02	327.512
1262.29	326.953
1262.57	325.522
1262.84	345.111
1263.12	342.326
1263.39	350.947
1263.67	355.438
1263.94	360.919
1264.22	356.497
1264.49	356.398
1264.77	346.987
1265.04	352.194
1265.32	336.449
1265.59	323.906
1265.87	328.107
1266.14	337.555
1266.42	325.074
1266.7	330.375
1266.97	325.234
1267.24	330.559
1267.52	326.48
1267.79	329.76
1268.07	327.795
1268.35	336.241
1268.62	326.867
1268.89	324.815
1269.17	330.042
1269.44	333.115
1269.72	323.591
1269.99	330.847
1270.27	332.863
1270.54	326.523
1270.82	324.405
1271.09	327.504
1271.37	329.613
1271.64	329.685
1271.92	330.825
1272.19	335.137
1272.47	338.372
1272.74	334.269
1273.02	318.637
1273.29	335.495
1273.57	329.292
1273.84	317.812
1274.12	323.076
1274.39	332.506
1274.66	327.261
1274.94	343.029
1275.21	323.149
1275.49	325.304
1275.76	325.381
1276.04	330.691
1276.31	329.705
1276.59	330.802
1276.86	329.831
1277.14	326.76
1277.41	329.991
1277.69	327.956
1277.96	329.066
1278.23	330.215
1278.51	332.373
1278.78	321.915
1279.06	327.158
1279.33	321.875
1279.61	337.61
1279.88	332.335
1280.15	330.258
1280.43	335.543
1280.7	341.936
1280.98	348.364
1281.25	334.736
1281.53	336.83
1281.8	333.7
1282.08	359.017
1282.35	365.281
1282.62	371.44
1282.9	381.611
1283.17	406.667
1283.45	489.694
1283.72	547.602
1284	628.951
1284.27	793.441
1284.54	776.624
1284.82	653.017
1285.09	527.478
1285.37	428.504
1285.64	391.744
1285.91	369.643
1286.19	365.353
1286.46	343.239
1286.74	340.063
1287.01	338.963
1287.28	339.956
1287.56	343.072
1287.83	337.805
1288.11	338.867
1288.38	334.679
1288.66	333.675
1288.93	335.841
1289.2	330.638
1289.48	329.653
1289.75	336.034
1290.02	333.936
1290.3	332.845
1290.57	332.825
1290.85	324.394
1291.12	323.338
1291.39	330.7
1291.67	334.912
1291.94	326.508
1292.22	334.923
1292.49	330.681
1292.76	333.853
1293.04	328.682
1293.31	325.659
1293.59	331.068
1293.86	333.234
1294.13	331.122
1294.41	336.379
1294.68	321.658
1294.95	322.845
1295.23	333.573
1295.5	328.523
1295.77	329.735
1296.05	327.665
1296.32	325.56
1296.6	319.191
1296.87	325.478
1297.14	330.696
1297.42	333.792
1297.69	327.37
1297.96	328.447
1298.24	343.221
1298.51	331.55
1298.78	327.282
1299.06	337.787
1299.33	330.388
1299.6	337.83
1299.88	324.144
1300.15	327.324
1300.43	324.145
1300.7	324.133
1300.97	332.593
1301.25	329.477
1301.52	325.306
1301.79	332.731
1302.07	321.124
1302.34	333.798
1302.61	333.779
1302.89	330.576
1303.16	317.848
1303.43	333.671
1303.71	324.174
1303.98	330.512
1304.25	327.342
1304.53	332.586
1304.8	333.586
1305.07	336.679
1305.35	322.887
1305.62	333.359
1305.89	323.798
1306.17	330.094
1306.44	324.817
1306.71	322.738
1306.98	332.243
1307.26	326.966
1307.53	326.961
1307.8	324.875
1308.08	328.016
1308.35	331.195
1308.62	320.699
1308.9	324.965
1309.17	330.29
1309.44	335.603
1309.71	334.543
1309.99	330.298
1310.26	321.855
1310.53	330.312
1310.81	328.22
1311.08	327.18
1311.35	331.425
1311.63	321.982
1311.9	330.479
1312.17	329.449
1312.45	325.221
1312.72	326.224
1312.99	328.32
1313.26	323.016
1313.54	329.325
1313.81	331.434
1314.08	327.229
1314.36	328.317
1314.63	325.19
1314.9	334.734
1315.17	331.609
1315.45	334.822
1315.72	322.142
1315.99	324.235
1316.26	319.996
1316.54	326.324
1316.81	327.379
1317.08	329.534
1317.36	324.287
1317.63	319.028
1317.9	326.437
1318.17	326.446
1318.45	338.07
1318.72	325.385
1318.99	335.937
1319.26	329.587
1319.54	328.55
1319.81	327.501
1320.08	331.713
1320.35	329.556
1320.63	327.375
1320.9	324.118
1321.17	336.679
1321.44	321.847
1321.72	324.919
1321.99	330.148
1322.26	327.993
1322.53	331.113
1322.81	335.253
1323.08	325.806
1323.35	327.931
1323.62	324.776
1323.9	327.927
1324.17	328.991
1324.44	337.41
1324.71	326.901
1324.99	320.501
1325.26	330.9
1325.53	322.295
1325.8	326.26
1326.08	327.211
1326.35	327.173
1326.62	327.261
1326.89	329.598
1327.16	325.501
1327.44	337.205
1327.71	325.739
1327.98	323.761
1328.25	323.867
1328.53	320.752
1328.8	332.301
1329.07	324.959
1329.34	324.947
1329.61	333.363
1329.89	332.268
1330.16	325.882
1330.43	337.406
1330.7	325.714
1330.98	328.755
1331.25	327.557
1331.52	330.598
1331.79	327.35
1332.06	333.567
1332.33	328.195
1332.61	336.49
1332.88	330.074
1333.15	329.973
1333.42	322.526
1333.69	325.587
1333.97	330.752
1334.24	323.323
1334.51	318.007
1334.78	329.489
1335.05	331.525
1335.33	323.076
1335.6	328.266
1335.87	334.508
1336.14	331.318
1336.41	330.231
1336.69	319.717
1336.96	317.594
1337.23	321.754
1337.5	324.827
1337.77	322.651
1338.04	321.556
1338.32	326.741
1338.59	328.795
1338.86	325.643
1339.13	329.841
1339.4	318.341
1339.67	330.917
1339.95	325.692
1340.22	327.799
1340.49	330.937
1340.76	321.498
1341.03	327.76
1341.3	330.867
1341.58	327.676
1341.85	326.562
1342.12	326.478
1342.39	324.301
1342.66	332.617
1342.93	326.316
1343.2	323.166
1343.48	327.346
1343.75	320.031
1344.02	325.262
1344.29	322.1
1344.56	326.233
1344.83	314.663
1345.1	327.11
1345.38	320.755
1345.65	329.008
1345.92	319.457
1346.19	326.651
1346.46	332.814
1346.73	316.024
1347	327.405
1347.28	325.257
1347.55	322.087
1347.82	324.142
1348.09	327.245
1348.36	333.45
1348.63	322.972
1348.9	323.951
1349.18	315.56
1349.45	319.669
1349.72	320.654
1349.99	327.882
1350.26	325.724
1350.53	320.441
1350.8	318.305
1351.07	320.307
1351.34	326.515
1351.62	320.267
1351.89	327.579
1352.16	327.645
1352.43	320.463
1352.7	328.828
1352.97	331.168
1353.24	320.056
1353.51	321.889
1353.78	324.526
1354.06	328.303
1354.33	318.979
1354.6	335.65
1354.87	330.349
1355.14	321.953
1355.41	316.852
1355.68	328.342
1355.95	325.146
1356.22	320.959
1356.49	325.086
1356.76	318.825
1357.04	325.015
1357.3	326.005
1357.58	326.988
1357.85	326.929
1358.12	329.987
1358.39	323.699
1358.66	317.41
1358.93	322.549
1359.2	312.138
1359.47	326.582
1359.74	330.629
1360.01	325.357
1360.28	333.578
1360.56	314.903
1360.83	329.398
1361.1	324.209
1361.37	323.155
1361.64	326.228
1361.91	321.013
1362.18	323.054
1362.45	320.968
1362.72	325.126
1362.99	317.928
1363.26	309.687
1363.53	322.154
1363.8	332.519
1364.07	327.318
1364.34	322.108
1364.61	322.054
1364.89	327.161
1365.16	325.015
1365.43	324.941
1365.7	325.904
1365.97	317.553
1366.24	325.738
1366.51	328.73
1366.78	326.601
1367.05	329.669
1367.32	314.197
1367.59	324.563
1367.86	320.448
1368.13	338.042
1368.4	318.42
1368.67	327.751
1368.94	324.673
1369.21	349.457
1369.48	341.146
1369.75	345.243
1370.02	337.927
1370.29	318.245
1370.56	321.29
1370.83	327.402
1371.1	323.166
1371.37	319.946
1371.64	324.982
1371.91	325.9
1372.18	320.656
1372.45	318.536
1372.72	316.431
1372.99	323.606
1373.26	316.358
1373.54	324.574
1373.8	327.642
1374.07	321.44
1374.34	326.567
1374.61	322.406
1374.89	315.202
1375.16	322.453
1375.42	330.69
1375.69	321.441
1375.96	322.397
1376.24	324.38
1376.51	325.308
1376.77	324.131
1377.04	319.013
1377.31	321.147
1377.58	329.507
1377.86	316.27
1378.12	318.522
1378.39	324.773
1378.66	326.829
1378.93	321.633
1379.2	321.59
1379.47	320.5
1379.74	319.359
1380.01	329.376
1380.28	328.2
1380.55	323.928
1380.82	322.975
1381.09	321.875
1381.36	325.841
1381.63	333.896
1381.9	326.565
1382.17	331.583
1382.44	332.475
1382.71	327.257
1382.98	337.41
1383.25	333.251
1383.52	338.319
1383.79	332.178
1384.06	339.379
1384.33	325.082
1384.6	337.469
1384.87	332.48
1385.14	348.99
1385.41	373.718
1385.68	361.437
1385.95	367.68
1386.21	390.317
1386.48	433.462
1386.76	519.47
1387.03	656.785
1387.29	950.231
1387.56	1230.38
1387.83	1188.7
1388.1	824.827
1388.37	576.546
1388.64	471.263
1388.91	406.588
1389.18	370.722
1389.45	344.955
1389.72	347.788
1389.99	334.258
1390.26	343.529
1390.53	329.018
1390.8	350.504
1391.06	342.284
1391.33	342.211
1391.6	342.122
1391.87	334.876
1392.14	338.914
1392.41	317.367
1392.68	317.331
1392.95	331.629
1393.22	327.505
1393.49	324.408
1393.76	333.595
1394.03	322.32
1394.3	333.561
1394.56	330.516
1394.83	321.364
1395.1	314.239
1395.37	324.496
1395.64	325.514
1395.91	320.372
1396.18	332.617
1396.45	319.272
1396.72	319.218
1396.99	330.41
1397.26	318.101
1397.52	316.049
1397.79	329.364
1398.06	323.264
1398.33	330.451
1398.6	322.285
1398.87	329.497
1399.14	326.467
1399.41	319.335
1399.68	318.315
1399.95	324.494
1400.22	324.571
1400.48	322.569
1400.75	328.71
1401.02	331.814
1401.29	322.602
1401.56	326.792
1401.83	325.94
1402.1	315.882
1402.37	320.135
1402.63	325.375
1402.9	330.568
1403.17	313.127
1403.44	327.447
1403.71	330.348
1403.98	317.035
1404.25	325.225
1404.51	320.061
1404.78	325.136
1405.05	325.077
1405.32	318.869
1405.59	332.144
1405.86	333.133
1406.13	323.879
1406.39	323.892
1406.66	326.99
1406.93	335.221
1407.2	331.142
1407.47	323.986
1407.74	331.182
1408.01	347.608
1408.27	354.813
1408.54	356.897
1408.81	345.646
1409.08	379.525
1409.35	349.8
1409.62	362.125
1409.89	339.495
1410.15	335.306
1410.42	334.174
1410.69	335.12
1410.96	318.668
1411.23	330.918
1411.5	320.653
1411.76	327.865
1412.03	319.751
1412.3	332.214
1412.57	321.334
1412.84	315.435
1413.11	319.372
1413.37	321.937
1413.64	323.005
1413.91	322.192
1414.18	322.385
1414.45	322.357
1414.72	315.186
1414.98	325.455
1415.25	324.436
1415.52	312.142
1415.79	318.333
1416.06	313.231
1416.33	320.454
1416.59	320.493
1416.86	321.56
1417.13	321.598
1417.4	322.648
1417.67	320.602
1417.93	325.751
1418.2	322.691
1418.47	324.747
1418.74	322.707
1419.01	327.818
1419.27	319.542
1419.54	321.532
1419.81	318.395
1420.08	318.333
1420.35	321.346
1420.61	331.551
1420.88	317.146
1421.15	322.29
1421.42	319.283
1421.69	311.185
1421.95	320.525
1422.22	314.523
1422.49	330.197
1422.76	324.339
1423.02	319.791
1423.29	321.839
1423.56	323.077
1423.83	324.823
1424.1	314.479
1424.36	317.714
1424.63	313.728
1424.9	325.205
1425.17	327.1
1425.43	322.134
1425.7	325.19
1425.97	325.145
1426.24	326.087
1426.51	320.877
1426.77	314.636
1427.04	318.619
1427.31	314.406
1427.58	319.472
1427.84	320.472
1428.11	315.356
1428.38	322.542
1428.65	317.45
1428.91	321.582
1429.18	320.607
1429.45	315.551
1429.72	319.734
1429.98	317.759
1430.25	317.846
1430.52	312.853
1430.79	317.077
1431.05	331.509
1431.32	309.968
1431.59	317.107
1431.86	319.086
1432.12	313.904
1432.39	317.928
1432.66	323.962
1432.93	323.832
1433.19	320.63
1433.46	323.616
1433.73	314.363
1434	313.447
1434.26	320.719
1434.53	334.056
1434.8	316.642
1435.07	313.564
1435.33	328.923
1435.6	315.585
1435.87	310.443
1436.13	323.736
1436.4	318.584
1436.67	321.631
1436.94	305.232
1437.2	311.351
1437.47	327.718
1437.74	318.513
1438	315.486
1438.27	323.716
1438.54	321.682
1438.81	320.675
1439.07	326.869
1439.34	322.841
1439.61	327.031
1439.87	310.677
1440.14	316.854
1440.41	315.838
1440.67	318.932
1440.94	319.942
1441.21	328.098
1441.48	318.839
1441.74	320.943
1442.01	308.656
1442.28	312.816
1442.54	312.794
1442.81	322.998
1443.08	319.877
1443.34	313.693
1443.61	315.73
1443.88	314.718
1444.15	313.777
1444.41	320.008
1444.68	320.118
1444.95	321.133
1445.21	312.898
1445.48	320.053
1445.75	325.157
1446.01	317.955
1446.28	317.932
1446.55	316.884
1446.81	328.135
1447.08	322.969
1447.35	316.784
1447.61	332.152
1447.88	314.774
1448.15	314.853
1448.41	323.085
1448.68	318.983
1448.95	318.961
1449.21	314.822
1449.48	309.647
1449.75	318.82
1450.01	325.97
1450.28	318.771
1450.55	316.698
1450.81	313.599
1451.08	326.891
1451.35	316.614
1451.61	313.516
1451.88	318.623
1452.15	313.506
1452.41	308.395
1452.68	316.629
1452.94	322.814
1453.21	312.576
1453.48	315.63
1453.75	312.536
1454.01	317.661
1454.28	318.689
1454.54	315.611
1454.81	315.59
1455.08	316.61
1455.34	315.644
1455.61	322.856
1455.88	315.687
1456.14	322.842
1456.41	317.668
1456.68	310.44
1456.94	311.442
1457.21	320.643
1457.47	318.579
1457.74	313.46
1458.01	311.418
1458.27	320.657
1458.54	314.528
1458.8	311.466
1459.07	317.626
1459.34	323.765
1459.6	313.501
1459.87	320.651
1460.13	320.627
1460.4	315.475
1460.67	313.387
1460.93	305.157
1461.2	322.522
1461.47	313.257
1461.73	312.179
1462	322.352
1462.26	321.263
1462.53	315.054
1462.79	305.777
1463.06	311.844
1463.33	314.884
1463.59	320.074
1463.86	319.208
1464.13	320.347
1464.39	319.457
1464.66	308.136
1464.92	306.481
1465.19	317.433
1465.45	315.306
1465.72	318.48
1465.99	318.484
1466.25	315.29
1466.52	318.27
1466.78	323.419
1467.05	311.159
1467.32	320.318
1467.58	319.283
1467.85	314.177
1468.11	328.453
1468.38	307.018
1468.64	313.11
1468.91	310.015
1469.18	314.042
1469.44	317.027
1469.71	306.773
1469.97	304.692
1470.24	310.771
1470.51	308.707
1470.77	305.619
1471.04	321.856
1471.3	311.624
1471.57	315.673
1471.83	317.698
1472.1	311.58
1472.36	324.809
1472.63	309.518
1472.9	312.532
1473.16	312.484
1473.43	313.464
1473.69	308.351
1473.96	319.541
1474.22	318.546
1474.49	310.432
1474.75	310.438
1475.02	315.521
1475.28	319.568
1475.55	314.441
1475.82	318.477
1476.08	304.207
1476.35	317.39
1476.61	317.337
1476.88	306.119
1477.14	310.175
1477.41	309.151
1477.67	311.158
1477.94	312.118
1478.2	314.103
1478.47	314.058
1478.73	315.023
1479	309.886
1479.27	307.79
1479.53	314.836
1479.79	313.719
1480.06	311.596
1480.32	310.515
1480.59	310.482
1480.85	315.507
1481.12	318.564
1481.39	312.523
1481.65	314.609
1481.92	310.612
1482.18	318.786
1482.45	315.75
1482.71	310.704
1482.98	318.852
1483.24	310.734
1483.51	305.65
1483.77	307.579
1484.04	317.567
1484.3	323.345
1484.57	313.812
1484.83	314.63
1485.1	312.355
1485.36	323.065
1485.63	308.057
1485.89	314.271
1486.16	325.13
1486.42	311.04
1486.69	309.084
1486.95	304.96
1487.22	314.003
1487.48	316.995
1487.75	310.871
1488.01	308.782
1488.28	316.806
1488.54	310.672
1488.81	311.647
1489.07	311.62
1489.34	312.608
1489.6	310.581
1489.86	308.557
1490.13	318.642
1490.39	307.457
1490.66	304.361
1490.92	313.428
1491.19	311.39
1491.45	307.342
1491.72	309.38
1491.98	313.417
1492.25	312.39
1492.51	312.378
1492.78	308.337
1493.04	312.36
1493.3	320.432
1493.57	314.368
1493.83	315.397
1494.1	311.386
1494.36	317.448
1494.63	310.33
1494.89	320.352
1495.16	314.175
1495.42	303.98
1495.69	309.98
1495.95	307.918
1496.22	304.855
1496.48	310.861
1496.74	306.82
1497.01	317.925
1497.27	313.868
1497.54	303.767
1497.8	305.788
1498.07	313.868
1498.33	312.869
1498.59	308.845
1498.86	313.91
1499.12	313.938
1499.39	313.968
1499.65	310.953
1499.92	305.906
1500.18	313.971
1500.44	312.956
1500.71	313.943
1500.97	309.836
1501.24	311.833
1501.5	309.806
1501.77	306.769
1502.03	307.758
1502.29	314.758
1502.56	312.669
1502.82	310.627
1503.09	311.568
1503.35	305.508
1503.62	311.591
1503.88	308.582
1504.14	302.537
1504.41	306.561
1504.67	301.491
1504.93	308.508
1505.2	309.447
1505.46	313.345
1505.73	306.268
1505.99	315.327
1506.26	307.265
1506.52	313.367
1506.78	316.4
1507.05	315.41
1507.31	314.405
1507.58	308.34
1507.84	307.31
1508.1	320.413
1508.37	318.411
1508.63	311.364
1508.89	316.4
1509.16	311.357
1509.42	314.403
1509.69	315.458
1509.95	308.344
1510.21	308.288
1510.48	312.248
1510.74	310.154
1511.01	316.082
1511.27	310.889
1511.53	304.691
1511.8	312.587
1512.06	306.414
1512.32	306.333
1512.59	304.254
1512.85	305.197
1513.12	316.203
1513.38	310.222
1513.64	307.345
1513.91	304.381
1514.17	309.375
1514.43	312.328
1514.7	307.219
1514.96	304.137
1515.22	311.07
1515.49	307.968
1515.75	313.911
1516.02	302.847
1516.28	309.843
1516.54	303.805
1516.81	310.813
1517.07	306.806
1517.33	315.848
1517.6	313.894
1517.86	303.891
1518.12	307.924
1518.39	308.946
1518.65	304.959
1518.91	316.02
1519.18	322.057
1519.44	307.006
1519.7	309.993
1519.97	302.948
1520.23	310.983
1520.49	302.986
1520.76	309.034
1521.02	307.042
1521.28	322.086
1521.55	309.018
1521.81	307.982
1522.07	309.953
1522.34	302.9
1522.6	311.88
1522.86	304.778
1523.13	311.68
1523.39	304.577
1523.65	310.521
1523.92	311.467
1524.18	306.41
1524.44	307.43
1524.71	309.452
1524.97	305.458
1525.23	306.497
1525.5	310.559
1525.76	317.651
1526.02	300.682
1526.28	310.738
1526.55	311.741
1526.81	312.706
1527.07	305.667
1527.34	309.651
1527.6	308.625
1527.86	304.583
1528.13	312.565
1528.39	309.531
1528.65	309.513
1528.91	309.507
1529.18	306.486
1529.44	309.446
1529.7	304.418
1529.97	305.439
1530.23	309.502
1530.49	305.558
1530.76	306.612
1531.02	307.629
1531.28	305.608
1531.54	303.612
1531.81	305.579
1532.07	307.604
1532.33	308.679
1532.59	310.791
1532.86	305.879
1533.12	304.928
1533.38	312.983
1533.65	299.945
1533.91	314.978
1534.17	305.928
1534.43	305.897
1534.7	307.877
1534.96	309.839
1535.22	314.705
1535.48	308.588
1535.75	300.507
1536.01	307.419
1536.27	313.314
1536.54	308.2
1536.8	311.157
1537.06	308.079
1537.32	298.079
1537.59	303.031
1537.85	307.932
1538.11	305.897
1538.37	322.847
1538.63	308.914
1538.9	305.072
1539.16	303.295
1539.42	310.469
1539.69	308.595
1539.95	300.717
1540.21	308.827
1540.47	306.889
1540.74	304.753
1541	298.726
1541.26	312.68
1541.52	301.582
1541.79	313.527
1542.05	304.437
1542.31	301.362
1542.57	307.302
1542.83	306.231
1543.1	311.142
1543.36	306.014
1543.62	305.022
1543.88	309.033
1544.14	314.089
1544.41	307.186
1544.67	304.239
1544.93	302.365
1545.19	316.459
1545.46	309.488
1545.72	307.533
1545.98	307.511
1546.24	306.518
1546.51	307.555
1546.77	309.592
1547.03	301.625
1547.29	315.624
1547.55	310.412
1547.82	310.418
1548.08	317.397
1548.34	312.578
1548.6	308.315
1548.86	309.95
1549.13	308.82
1549.39	312.965
1549.65	307.227
1549.91	303.728
1550.17	306.021
1550.44	310.508
1550.7	304.203
1550.96	311.279
1551.22	304.22
1551.48	305.067
1551.74	315.226
1552.01	314.403
1552.27	301.301
1552.53	309.308
1552.79	309.034
1553.05	308.976
1553.32	308.959
1553.58	319.937
1553.84	304.809
1554.1	312.736
1554.36	312.605
1554.63	302.544
1554.89	309.533
1555.15	301.513
1555.41	313.55
1555.67	307.564
1555.93	302.496
1556.2	310.508
1556.46	310.528
1556.72	308.545
1556.98	306.552
1557.24	312.551
1557.5	310.509
1557.77	308.398
1558.03	304.328
1558.29	304.224
1558.55	305.13
1558.81	302.046
1559.07	300.978
1559.33	304.922
1559.6	310.874
1559.86	307.842
1560.12	305.818
1560.38	312.792
1560.64	307.789
1560.9	307.801
1561.17	304.854
1561.43	309.926
1561.69	307.034
1561.95	309.048
1562.21	311.037
1562.47	312.01
1562.74	299.023
1563	299
1563.26	306.969
1563.52	301.054
1563.78	305.179
1564.04	304.232
1564.3	307.232
1564.56	306.119
1564.82	307.659
1565.09	304.936
1565.35	307.318
1565.61	312.415
1565.87	303.971
1566.13	311.896
1566.39	304.658
1566.65	306.835
1566.91	307.139
1567.18	305.134
1567.44	308.911
1567.7	309.914
1567.96	307.958
1568.22	300.988
1568.48	315.975
1568.74	313.867
1569	318.783
1569.27	305.783
1569.53	302.808
1569.79	304.816
1570.05	315.816
1570.31	305.818
1570.57	305.807
1570.83	304.784
1571.09	308.738
1571.35	307.679
1571.62	303.671
1571.88	309.633
1572.14	303.582
1572.4	305.533
1572.66	304.493
1572.92	305.442
1573.18	306.39
1573.44	307.383
1573.7	308.429
1573.96	304.504
1574.22	304.575
1574.48	301.655
1574.74	302.728
1575.01	309.785
1575.27	307.812
1575.53	312.787
1575.79	301.79
1576.05	303.766
1576.31	307.677
1576.57	304.566
1576.83	303.458
1577.09	301.356
1577.35	310.238
1577.61	313.133
1577.87	301.102
1578.14	302.075
1578.4	307.055
1578.66	303.064
1578.92	315.028
1579.18	302.079
1579.44	313.091
1579.7	310.126
1579.96	316.12
1580.22	306.14
1580.48	306.11
1580.74	305.064
1581	303.033
1581.26	303.973
1581.52	302.906
1581.78	306.864
1582.04	298.873
1582.3	309.807
1582.57	303.811
1582.83	310.772
1583.09	298.817
1583.35	306.752
1583.61	301.764
1583.87	311.749
1584.13	310.775
1584.39	300.829
1584.65	303.819
1584.91	310.773
1585.17	302.799
1585.43	307.759
1585.69	305.701
1585.95	305.623
1586.21	305.565
1586.47	305.522
1586.73	307.478
1586.99	305.46
1587.25	302.456
1587.51	307.428
1587.77	307.449
1588.03	307.48
1588.29	304.54
1588.55	299.6
1588.81	307.604
1589.07	300.666
1589.33	305.66
1589.59	303.663
1589.85	301.692
1590.11	301.726
1590.37	300.767
1590.63	305.737
1590.89	305.739
1591.15	310.699
1591.41	306.692
1591.67	307.629
1591.94	300.564
1592.2	302.473
1592.46	311.394
1592.72	306.313
1592.98	303.214
1593.23	304.075
1593.49	302.994
1593.75	305.923
1594.01	293.995
1594.27	297.993
1594.53	300.044
1594.79	307.039
1595.05	297.146
1595.31	301.954
1595.57	302.933
1595.83	299.952
1596.09	300.946
1596.35	296.981
1596.61	305.94
1596.87	308.944
1597.13	310.965
1597.39	307.983
1597.65	310.939
1597.91	306.92
1598.17	303.858
1598.43	306.758
1598.69	299.752
1598.95	308.632
1599.21	303.62
1599.47	299.618
1599.73	305.499
1599.99	305.307
1600.25	305.342
1600.51	306.201
1600.77	304.84
1601.03	307.585
1601.29	302.013
1601.55	304.155
1601.81	298.917
1602.07	306.451
1602.33	301.719
1602.59	299.552
1602.85	304.77
1603.1	301.329
1603.36	304.419
1603.62	302.373
1603.88	304.759
1604.14	304.723
1604.4	296.551
1604.66	300.591
1604.92	304.917
1605.18	305.669
1605.44	300.724
1605.7	305.965
1605.96	301.786
1606.22	309.234
1606.48	300.649
1606.74	303.571
1607	301.307
1607.26	303.621
1607.52	307.686
1607.77	297.943
1608.03	308.156
1608.29	301.573
1608.55	305.359
1608.81	301.113
1609.07	300.206
1609.33	301.578
1609.59	301.087
1609.85	299.208
1610.11	298.224
1610.37	300.974
1610.63	299.601
1610.88	305.439
1611.14	297.611
1611.4	304.086
1611.66	305.069
1611.92	304.495
1612.18	301.731
1612.44	298.961
1612.7	301.537
1612.96	305.401
1613.22	302.35
1613.48	301.849
1613.73	305.735
1613.99	302.13
1614.25	302.034
1614.51	306.877
1614.77	301.018
1615.03	301.339
1615.29	300.882
1615.55	302.897
1615.81	305.444
1616.07	297.998
1616.32	303.313
1616.58	299.265
1616.84	304.124
1617.1	304.785
1617.36	299.027
1617.62	299.674
1617.88	301.499
1618.14	300.415
1618.4	300.8
1618.65	305.84
1618.91	299.311
1619.17	299.91
1619.43	299.041
1619.69	301.502
1619.95	299.275
1620.21	302.101
1620.47	309.424
1620.72	300.549
1620.98	300.02
1621.24	303.844
1621.5	303.769
1621.76	302.658
1622.02	301.873
1622.28	296.223
1622.54	300.454
1622.79	303.704
1623.05	302.372
1623.31	303.303
1623.57	300.793
1623.83	296.725
1624.09	300.66
1624.35	302.885
1624.6	297.864
1624.86	296.885
1625.12	302.237
1625.38	302.278
1625.64	299.634
1625.9	299.842
1626.16	300.158
1626.41	297.785
1626.67	296.619
1626.77	296.594
1627.04	306.448
1627.3	298.569
1627.56	303.505
1627.82	299.577
1628.08	296.637
1628.34	306.511
1628.6	303.531
1628.87	301.524
1629.13	300.514
1629.39	301.481
1629.65	300.483
1629.91	309.333
1630.17	301.424
1630.44	297.453
1630.7	299.431
1630.96	302.419
1631.22	304.445
1631.48	303.518
1631.74	298.613
1632	308.495
1632.27	291.863
1632.53	301.758
1632.79	310.481
1633.05	295.601
1633.31	306.45
1633.57	296.645
1633.83	295.692
1634.1	303.59
1634.36	301.621
1634.62	301.614
1634.88	300.614
1635.14	299.608
1635.4	308.45
1635.66	298.563
1635.92	296.556
1636.18	302.428
1636.45	305.339
1636.71	298.392
1636.97	294.413
1637.23	300.306
1637.49	302.256
1637.75	296.32
1638.01	294.323
1638.27	302.193
1638.53	296.29
1638.8	298.258
1639.06	300.226
1639.32	307.115
1639.58	301.2
1639.84	302.177
1640.1	302.224
1640.36	304.246
1640.62	294.428
1640.88	305.254
1641.15	298.329
1641.41	303.227
1641.67	297.303
1641.93	304.182
1642.19	301.215
1642.45	304.158
1642.71	320.881
1642.97	306.117
1643.23	302.161
1643.49	304.101
1643.75	301.112
1644.02	300.069
1644.28	300.056
1644.54	298.081
1644.8	304.046
1645.06	297.176
1645.32	300.16
1645.58	305.057
1645.84	308.956
1646.1	301.05
1646.36	302.991
1646.62	301.994
1646.88	304.9
1647.15	301.926
1647.41	304.85
1647.67	300.929
1647.93	298.997
1648.19	303.971
1648.45	293.225
1648.71	297.356
1648.97	299.274
1649.23	308.114
1649.49	305.125
1649.75	300.244
1650.01	306.272
1650.27	298.438
1650.53	308.355
1650.79	299.54
1651.05	300.555
1651.31	296.621
1651.57	305.49
1651.83	299.584
1652.1	309.442
1652.36	298.558
1652.62	310.355
1652.88	306.408
1653.14	302.477
1653.4	302.5
1653.66	303.516
1653.92	300.575
1654.18	299.606
1654.44	302.594
1654.7	297.716
1654.96	299.764
1655.22	295.919
1655.48	304.896
1655.74	304.957
1656	301.047
1656.26	300.081
1656.52	302.06
1656.78	306.978
1657.04	299.053
1657.3	302.974
1657.56	299.007
1657.82	293.06
1658.08	298.943
1658.34	303.833
1658.6	305.761
1658.86	306.703
1659.12	303.7
1659.38	298.714
1659.64	294.752
1659.9	303.658
1660.16	297.787
1660.42	295.866
1660.69	302.827
1660.95	303.878
1661.21	303.92
1661.46	295.088
1661.72	295.874
1661.98	296.089
1662.25	303.477
1662.51	300.538
1662.77	298.462
1663.03	303.43
1663.28	295.988
1663.54	299.915
1663.8	305.034
1664.07	303.086
1664.33	309.122
1664.59	299.393
1664.84	296.314
1665.1	298.703
1665.36	294.338
1665.62	305.554
1665.89	298.578
1666.14	301.66
1666.4	295.263
1666.66	299.872
1666.92	302.049
1667.18	306.917
1667.44	298.012
1667.7	299.932
1667.96	302.858
1668.22	298.972
1668.48	293.271
1668.74	301.247
1669	302.245
1669.26	303.244
1669.52	301.282
1669.78	296.263
1670.04	301.305
1670.3	300.522
1670.56	302.485
1670.82	295.531
1671.08	303.427
1671.34	298.472
1671.6	305.433
1671.86	297.538
1672.12	302.49
1672.38	304.458
1672.64	304.466
1672.9	306.455
1673.15	307.46
1673.41	298.59
1673.67	304.561
1673.93	295.706
1674.19	298.708
1674.45	297.766
1674.71	310.692
1674.97	305.78
1675.23	300.851
1675.49	303.816
1675.75	299.858
1676.01	303.835
1676.27	297.911
1676.53	298.904
1676.79	303.843
1677.05	300.852
1677.31	301.808
1677.57	304.726
1677.82	310.597
1678.08	302.621
1678.34	303.562
1678.6	304.512
1678.86	299.537
1679.12	298.524
1679.38	302.446
1679.64	301.431
1679.9	305.359
1680.16	301.375
1680.42	295.418
1680.68	308.241
1680.94	294.401
1681.19	295.386
1681.45	302.3
1681.71	300.326
1681.97	300.332
1682.23	297.367
1682.49	301.308
1682.75	305.254
1683.01	296.362
1683.27	294.383
1683.53	300.297
1683.79	299.277
1684.04	299.241
1684.3	303.171
1684.56	298.222
1684.82	300.189
1685.08	302.161
1685.34	304.137
1685.6	303.155
1685.86	304.157
1686.12	305.193
1686.38	297.339
1686.63	302.299
1686.89	313.158
1687.15	305.225
1687.41	300.251
1687.67	300.22
1687.93	299.203
1688.19	298.18
1688.45	301.084
1688.71	308.924
1688.96	302.95
1689.22	303.882
1689.48	305.788
1689.74	299.807
1690	299.863
1690.26	299.91
1690.52	316.717
1690.78	302.926
1691.03	305.901
1691.29	301.013
1691.55	305.959
1691.81	304.964
1692.07	300.991
1692.33	298.96
1692.59	298.901
1692.84	299.812
1693.1	294.796
1693.36	294.711
1693.62	299.592
1693.88	301.498
1694.14	300.455
1694.4	301.412
1694.66	296.499
1694.91	302.43
1695.17	309.343
1695.43	299.511
1695.69	295.599
1695.95	303.525
1696.21	298.612
1696.47	299.583
1696.72	304.469
1696.98	295.535
1697.24	303.334
1697.5	303.259
1697.76	299.264
1698.02	300.198
1698.27	301.136
1698.53	303.072
1698.79	295.186
1699.05	300.109
1699.31	295.203
1699.57	299.142
1699.82	295.187
1700.08	298.097
1700.34	303.007
1700.6	303.975
1700.86	301.003
1701.12	298.015
1701.37	294.028
1701.63	294.954
1701.89	298.831
1702.15	297.791
1702.41	302.667
1702.66	312.481
1702.92	297.728
1703.18	299.67
1703.44	298.663
1703.7	299.65
1703.96	296.737
1704.21	297.746
1704.47	293.814
1704.73	299.693
1704.99	299.684
1705.25	301.652
1705.5	297.698
1705.76	303.537
1706.02	305.433
1706.28	302.413
1706.54	304.3
1706.79	297.361
1707.05	295.327
1707.31	299.163
1707.57	297.107
1707.83	295.053
1708.08	297.889
1708.34	303.661
1708.6	303.576
1708.86	301.559
1709.12	297.61
1709.37	294.661
1709.63	293.684
1709.89	301.522
1710.15	297.62
1710.41	300.6
1710.66	300.635
1710.92	294.787
1711.18	297.751
1711.44	296.79
1711.7	294.821
1711.95	299.664
1712.21	301.51
1712.47	295.514
1712.73	302.225
1712.98	304.083
1713.24	293.196
1713.5	299.96
1713.76	298.939
1714.01	300.858
1714.27	293.999
1714.53	300.822
1714.79	304.733
1715.04	303.859
1715.3	298.017
1715.56	300.933
1715.82	296.016
1716.08	298.894
1716.33	291.985
1716.59	294.822
1716.85	304.467
1717.11	295.547
1717.36	304.166
1717.62	297.233
1717.88	301.983
1718.14	298.007
1718.39	293.084
1718.65	297.93
1718.91	293.069
1719.16	297.926
1719.42	300.83
1719.68	293.087
1719.94	297.942
1720.2	291.085
1720.45	291.995
1720.71	300.667
1720.97	297.697
1721.23	299.576
1721.48	293.671
1721.74	301.372
1722	294.491
1722.25	297.332
1722.51	290.464
1722.77	293.32
1723.03	299.104
1723.28	290.341
1723.54	293.252
1723.8	289.339
1724.05	294.173
1724.31	293.139
1724.57	295.956
1724.83	296.807
1725.08	294.763
1725.34	291.754
1725.6	294.607
1725.85	301.379
1726.11	298.485
1726.37	306.2
1726.63	293.536
1726.88	293.462
1727.14	295.431
1727.4	303.223
1727.66	297.372
1727.91	295.359
1728.17	295.121
1728.43	290.814
1728.68	298.2
1728.94	299.151
1729.2	292.567
1729.45	295.602
1729.71	292.69
1729.97	295.447
1730.23	293.457
1730.48	296.495
1730.74	297.655
1730.99	298.636
1731.25	295.737
1731.51	299.592
1731.77	295.703
1732.02	296.64
1732.28	293.704
1732.54	296.551
1732.79	289.716
1733.05	296.372
1733.31	295.278
1733.56	288.422
1733.82	293.155
1734.08	287.277
1734.33	291.038
1734.59	294.797
1734.85	296.63
1735.1	291.744
1735.36	289.763
1735.62	291.655
1735.87	293.554
1736.13	298.329
1736.39	290.593
1736.65	296.324
1736.9	290.509
1737.16	296.245
1737.41	291.394
1737.67	289.412
1737.93	291.273
1738.18	298.902
1738.44	293.071
1738.7	299.72
1738.95	290.022
1739.21	290.856
1739.47	299.359
1739.72	300.197
1739.98	288.583
1740.24	286.586
1740.49	295.147
1740.75	290.288
1741.01	293.1
1741.26	291.126
1741.52	292.044
1741.78	292.978
1742.03	292.009
1742.29	288.147
1742.54	294.82
1742.8	290.024
1743.06	293.847
1743.31	292.843
1743.57	294.687
1743.83	286.039
1744.08	286.951
1744.34	296.514
1744.6	292.689
1744.85	289.827
1745.11	284.083
1745.36	285.973
1745.62	298.359
1745.88	296.379
1746.13	294.383
1746.39	288.562
1746.65	293.278
1746.9	293.186
1747.16	290.265
1747.41	296.881
1747.67	293.049
1747.93	290.184
1748.18	292.101
1748.44	294.981
1748.69	297.871
1748.95	292.185
1749.21	288.418
1749.46	290.391
1749.72	292.371
1749.97	295.306
1750.23	291.535
1750.49	294.423
1750.74	295.41
1751	299.224
1751.26	289.606
1751.51	296.205
1751.77	292.301
1752.02	288.418
1752.28	292.175
1752.54	302.609
1752.79	288.229
1753.05	294.857
1753.3	289.084
1753.56	292.847
1753.82	293.734
1754.07	291.77
1754.33	288.868
1754.58	283.111
1754.84	292.609
1755.09	301.144
1755.35	288.701
1755.6	287.683
1755.86	290.466
1756.12	293.238
1756.37	292.191
1756.63	288.295
1756.88	292.037
1757.14	297.708
1757.4	291.037
1757.65	284.429
1757.91	289.247
1758.16	286.412
1758.42	290.224
1758.67	285.471
1758.93	288.336
1759.18	292.15
1759.44	289.283
1759.7	289.26
1759.95	290.187
1760.21	289.206
1760.46	295.826
1760.72	285.311
1760.97	290.961
1761.23	289.015
1761.49	288.036
1761.74	293.717
1762	292.788
1762.25	292.833
1762.51	290.955
1762.76	285.244
1763.02	291.898
1763.27	291.914
1763.53	290.039
1763.78	294.83
1764.04	292.077
1764.3	291.203
1764.55	290.296
1764.81	291.282
1765.06	293.212
1765.32	292.278
1765.57	297.997
1765.83	288.475
1766.08	299.884
1766.34	292.241
1766.59	297.947
1766.85	295.078
1767.1	289.338
1767.36	299.757
1767.61	288.307
1767.87	288.264
1768.13	293.024
1768.38	287.254
1768.64	290.899
1768.89	287.904
1769.15	284.892
1769.4	290.56
1769.66	288.681
1769.91	291.643
1770.17	299.267
1770.42	288.826
1770.68	288.859
1770.93	288.976
1771.19	284.308
1771.44	293.825
1771.7	289.101
1771.95	292.964
1772.21	292.072
1772.46	294.016
1772.72	288.342
1772.97	291.231
1773.23	291.262
1773.48	286.53
1773.74	291.312
1773.99	290.376
1774.25	290.399
1774.5	292.345
1774.76	296.184
1775.01	291.505
1775.27	291.633
1775.52	297.41
1775.78	286.952
1776.03	295.533
1776.29	287.884
1776.54	291.655
1776.8	292.563
1777.05	294.433
1777.31	294.379
1777.56	296.231
1777.82	290.463
1778.07	292.312
1778.32	291.293
1778.58	296.923
1778.83	298.756
1779.09	295.872
1779.34	291.147
1779.6	295.017
1779.85	283.618
1780.11	288.401
1780.36	289.381
1780.62	297.018
1780.87	291.316
1781.13	286.575
1781.38	296.13
1781.64	285.7
1781.89	288.615
1782.15	300.108
1782.4	287.764
1782.65	293.516
1782.91	297.365
1783.16	286.92
1783.42	296.495
1783.67	288.915
1783.93	297.564
1784.18	295.722
1784.44	289.083
1784.69	291.961
1784.94	287.185
1785.2	290.981
1785.45	292.857
1785.71	291.888
1785.96	289.994
1786.22	288.122
1786.47	291.994
1786.73	288.248
1786.98	300.75
1787.23	292.3
1787.49	290.572
1787.74	294.593
1788	289.977
1788.25	291.981
1788.51	293.952
1788.76	287.343
1789.02	294.148
1789.27	292.29
1789.52	292.328
1789.78	296.207
1790.03	290.481
1790.29	293.35
1790.54	290.467
1790.79	293.183
1791.05	296.922
1791.3	294.016
1791.56	292.088
1791.81	292.1
1792.07	299.771
1792.32	297.889
1792.57	293.133
1792.83	296.991
1793.08	295.065
1793.34	292.227
1793.59	291.289
1793.84	290.352
1794.1	289.355
1794.35	296.036
1794.61	296.232
1794.86	297.397
1795.11	302.318
1795.37	288.938
1795.62	295.711
1795.88	298.648
1796.13	292.945
1796.38	301.653
1796.64	300.755
1796.89	296.005
1797.15	291.246
1797.4	295.129
1797.65	296.124
1797.91	294.227
1798.16	299.05
1798.41	288.469
1798.67	294.216
1798.92	289.373
1799.18	288.361
1799.43	285.419
1799.68	298.826
1799.94	297.825
1800.19	296.834
1800.45	290.087
1800.7	293.916
1800.95	291.029
1801.21	291.995
1801.46	297.775
1801.71	292.036
1801.97	290.148
1802.22	298.84
1802.48	292.169
1802.73	292.232
1802.98	294.221
1803.24	287.535
1803.49	298.132
1803.74	292.379
1804	292.432
1804.25	296.34
1804.51	297.358
1804.76	298.396
1805.01	294.622
1805.26	302.4
1805.52	295.72
1805.77	290.953
1806.03	297.745
1806.28	293.929
1806.53	296.841
1806.79	292.993
1807.04	301.67
1807.29	297.817
1807.55	292.04
1807.8	293.975
1808.05	293.984
1808.31	298.815
1808.56	295.936
1808.81	299.805
1809.07	294.997
1809.32	296.94
1809.57	295.989
1809.83	299.855
1810.08	295.997
1810.33	295.017
1810.59	295.006
1810.84	295.004
1811.09	294.035
1811.35	290.178
1811.6	297.899
1811.85	291.173
1812.11	290.245
1812.36	298.009
1812.61	300.958
1812.87	285.552
1813.12	298.121
1813.37	297.21
1813.63	295.356
1813.88	302.192
1814.13	290.706
1814.39	298.513
1814.64	308.233
1814.89	300.542
1815.14	293.799
1815.4	295.747
1815.65	290.933
1815.9	299.644
1816.16	291.947
1816.41	290.976
1816.66	304.504
1816.92	299.577
1817.17	296.531
1817.42	301.318
1817.68	299.419
1817.93	288.858
1818.18	299.578
1818.43	289.914
1818.69	290.885
1818.94	298.645
1819.19	298.687
1819.44	300.65
1819.7	296.815
1819.95	291.053
1820.2	292.061
1820.46	300.793
1820.71	299.86
1820.96	304.745
1821.22	298.989
1821.47	298.064
1821.72	297.129
1821.97	297.155
1822.23	299.11
1822.48	295.257
1822.73	296.238
1822.99	292.348
1823.24	308.779
1823.49	302.939
1823.74	297.144
1824	298.141
1824.25	294.295
1824.5	300.132
1824.75	303.07
1825.01	299.231
1825.26	295.373
1825.51	302.155
1825.76	298.28
1826.02	294.419
1826.27	296.362
1826.52	298.309
1826.77	296.399
1827.03	298.367
1827.28	293.559
1827.53	291.648
1827.78	308.108
1828.04	299.379
1828.29	292.557
1828.54	294.453
1828.8	294.435
1829.05	296.366
1829.3	296.353
1829.55	299.24
1829.81	290.482
1830.06	293.36
1830.31	299.137
1830.56	298.19
1830.81	301.137
1831.07	298.274
1831.32	293.474
1831.57	293.511
1831.82	298.395
1832.08	300.379
1832.33	297.54
1832.58	291.755
1832.83	295.629
1833.09	292.736
1833.34	298.585
1833.59	303.441
1833.84	295.7
1834.09	298.487
1834.35	293.476
1834.6	303.988
1834.85	293.211
1835.1	295.075
1835.36	298.872
1835.61	297.913
1835.86	292.224
1836.11	289.642
1836.36	298.867
1836.62	297.568
1836.87	306.184
1837.12	295.292
1837.37	298.968
1837.62	299.629
1837.88	291.774
1838.13	289.938
1838.38	302.073
1838.63	296.394
1838.88	300.362
1839.14	298.458
1839.39	298.509
1839.64	295.596
1839.89	305.945
1840.14	298.014
1840.4	300.746
1840.65	291.9
1840.9	290.799
1841.15	297.433
1841.4	293.456
1841.66	304.931
1841.91	298.077
1842.16	292.236
1842.41	299.991
1842.66	294.188
1842.92	292.286
1843.17	296.14
1843.42	303.848
1843.67	295.144
1843.92	290.334
1844.17	298.08
1844.43	291.315
1844.68	294.18
1844.93	304.8
1845.18	290.375
1845.43	295.327
1845.69	297.385
1845.94	296.57
1846.19	295.684
1846.44	295.428
1846.69	293.044
1846.94	292.689
1847.19	294.553
1847.45	296.538
1847.7	291.874
1847.95	305.392
1848.2	295.632
1848.45	302.327
1848.7	307.126
1848.96	294.543
1849.21	292.531
1849.46	288.595
1849.71	287.534
1849.96	298.013
1850.21	300.81
1850.46	294.013
1850.72	287.227
1850.97	305.427
1851.22	291.942
1851.47	292.879
1851.72	295.751
1851.97	302.473
1852.23	297.673
1852.48	295.751
1852.73	292.858
1852.98	300.519
1853.23	292.799
1853.48	300.41
1853.73	293.604
1853.98	301.179
1854.24	292.477
1854.49	300.114
1854.74	295.262
1854.99	297.077
1855.24	296.033
1855.49	296.953
1855.74	300.76
1855.99	308.414
1856.25	294.051
1856.5	294.045
1856.75	299.777
1857	295.913
1857.25	292.05
1857.5	295.842
1857.75	296.749
1858	294.771
1858.26	294.703
1858.51	300.375
1858.76	291.692
1859.01	300.222
1859.26	293.494
1859.51	295.414
1859.76	298.277
1860.01	294.489
1860.26	290.729
1860.52	301.293
1860.77	297.515
1861.02	296.621
1861.27	296.66
1861.52	294.751
1861.77	294.727
1862.02	298.5
1862.27	287.911
1862.52	300.274
1862.77	297.335
1863.03	297.268
1863.28	288.605
1863.53	296.195
1863.78	300.918
1864.03	294.181
1864.28	296.037
1864.53	291.199
1864.78	307.345
1865.03	293.892
1865.28	299.513
1865.53	301.3
1865.78	289.735
1866.04	293.42
1866.29	292.348
1866.54	292.223
1866.79	292.107
1867.04	281.537
1867.29	291.924
1867.54	289.034
1867.79	287.103
1868.04	294.694
1868.29	292.807
1868.54	302.331
1868.79	302.321
1869.04	289.945
1869.29	295.631
1869.54	297.516
1869.79	289.898
1870.05	295.587
1870.3	284.172
1870.55	300.324
1870.8	288.914
1871.05	292.689
1871.3	294.553
1871.55	290.7
1871.8	290.672
1872.05	298.239
1872.3	296.277
1872.55	286.726
1872.8	295.24
1873.05	290.484
1873.3	302.795
1873.55	286.613
1873.8	292.249
1874.05	295.977
1874.31	286.417
1874.56	295.824
1874.81	291.951
1875.05	291.865
1875.31	297.429
1875.56	287.798
1875.81	300.01
1876.06	290.462
1876.31	294.184
1876.56	291.289
1876.81	292.064
1877.06	286.187
1877.31	297.279
1877.56	290.215
1877.81	296.743
1878.06	293.357
1878.31	283.847
1878.56	285.776
1878.81	292.679
1879.06	294.64
1879.31	286.007
1879.56	290.673
1879.81	288.771
1880.06	293.506
1880.31	293.547
1880.56	286.857
1880.81	293.447
1881.06	296.15
1881.31	290.327
1881.56	285.453
1881.81	290.02
1882.06	289.842
1882.31	292.501
1882.56	298.989
1882.81	289.937
1883.06	286.298
1883.31	293.59
1883.56	289.299
1883.81	296.927
1884.06	293.237
1884.31	285.613
1884.56	295.169
1884.81	289.629
1885.06	288.725
1885.31	287.852
1885.56	295.526
1885.81	295.59
1886.06	285.224
1886.31	297.442
1886.56	289.785
1886.81	292.55
1887.06	293.425
1887.31	299.955
1887.56	285.731
1887.81	292.239
1888.06	285.53
1888.31	296.74
1888.56	290.993
1888.81	289.973
1889.06	287.118
1889.31	290.868
1889.56	290.868
1889.81	295.617
1890.06	289.1
1890.31	298.571
1890.56	293.873
1890.81	291.969
1891.06	290.07
1891.31	282.526
1891.56	289.099
1891.8	286.266
1892.05	288.127
1892.3	289.024
1892.55	291.779
1892.8	292.59
1893.05	288.667
1893.3	285.723
1893.55	288.577
1893.8	287.609
1894.05	285.646
1894.3	286.542
1894.55	297.806
1894.8	290.304
1895.05	296.907
1895.3	288.483
1895.55	292.278
1895.8	287.619
1896.05	292.373
1896.3	290.55
1896.55	288.716
1896.79	296.276
1897.04	289.717
1897.29	295.371
1897.54	295.365
1897.79	293.462
1898.04	284.959
1898.29	294.308
1898.54	282.016
1898.79	292.284
1899.04	285.663
1899.29	282.815
1899.54	289.35
1899.79	299.657
1900.04	293.077
1900.28	287.458
1900.53	292.19
1900.78	294.128
1901.03	290.427
1901.28	292.368
1901.53	288.666
1901.78	290.627
1902.03	285.968
1902.28	288.78
1902.53	287.816
1902.78	287.782
1903.03	285.871
1903.27	291.491
1903.52	290.533
1903.77	292.403
1904.02	289.575
1904.27	293.325
1904.52	287.667
1904.77	295.182
1905.02	286.717
1905.27	295.155
1905.52	290.339
1905.76	279.936
1906.01	291.172
1906.26	301.469
1906.51	298.625
1906.76	287.339
1907.01	293.929
1907.26	287.368
1907.51	290.244
1907.76	293.107
1908	288.428
1908.25	288.448
1908.5	284.727
1908.75	281.017
1909	291.42
1909.25	282.096
1909.5	304.76
1909.75	286.046
1909.99	292.738
1910.24	294.705
1910.49	288.175
1910.74	287.275
1910.99	290.126
1911.24	288.249
1911.49	285.42
1911.74	285.394
1911.98	291.974
1912.23	297.622
1912.48	289.147
1912.73	294.8
1912.98	282.572
1913.23	291.108
1913.48	287.434
1913.73	296.007
1913.97	285.696
1914.22	296.135
1914.47	290.539
1914.72	284.935
1914.97	288.745
1915.22	288.756
1915.47	287.8
1915.71	289.661
1915.96	290.597
1916.21	290.539
1916.46	286.708
1916.71	290.433
1916.96	298.879
1917.2	288.483
1917.45	284.699
1917.7	295.088
1917.95	293.254
1918.2	287.667
1918.45	284.918
1918.7	299.164
1918.94	289.822
1919.19	293.734
1919.44	295.714
1919.69	299.539
1919.94	291.983
1920.19	292.881
1920.43	290.099
1920.68	295.852
1920.93	290.256
1921.18	296.909
1921.43	299.794
1921.67	292.246
1921.92	290.35
1922.17	285.593
1922.42	294.054
1922.67	292.126
1922.92	294.939
1923.16	284.519
1923.41	285.437
1923.66	288.227
1923.91	293.843
1924.16	287.203
1924.41	286.254
1924.65	290.052
1924.9	295.768
1925.15	292.058
1925.4	287.428
1925.65	285.613
1925.89	291.365
1926.14	288.611
1926.39	295.328
1926.64	287.808
1926.89	292.585
1927.13	286.945
1927.38	287.929
1927.63	291.751
1927.88	295.572
1928.12	288.962
1928.37	292.796
1928.62	296.626
1928.87	287.2
1929.12	288.22
1929.36	292.107
1929.61	290.283
1929.86	302.711
1930.11	291.393
1930.36	298.113
1930.6	296.226
1930.85	287.686
1931.1	296.202
1931.35	295.214
1931.6	289.48
1931.84	292.287
1932.09	289.401
1932.34	288.411
1932.59	291.248
1932.83	295.006
1933.08	286.507
1933.33	290.403
1933.58	298.158
1933.83	293.62
1934.07	291.986
1934.32	296.99
1934.57	290.534
1934.82	297.378
1935.06	298.467
1935.31	291.843
1935.56	299.261
1935.81	299.261
1936.05	298.285
1936.3	290.619
1936.55	292.461
1936.8	292.391
1937.04	294.237
1937.29	288.465
1937.54	292.221
1937.79	295.978
1938.03	287.434
1938.28	295.153
1938.53	298.99
1938.78	293.326
1939.02	292.423
1939.27	295.321
1939.52	289.649
1939.77	293.48
1940.01	292.606
1940.26	289.84
1940.51	294.8
1940.76	295.84
1941	285.328
1941.25	287.186
1941.5	294.697
1941.75	292.661
1941.99	291.875
1942.24	292.146
1942.49	294.095
1942.74	298.855
1942.98	294.905
1943.23	293.825
1943.48	297.597
1943.72	293.968
1943.97	294.976
1944.22	299.815
1944.46	298.932
1944.71	292.32
1944.96	293.35
1945.21	295.333
1945.45	288.706
1945.7	296.408
1945.95	289.757
1946.2	291.7
1946.44	289.8
1946.69	297.441
1946.94	292.633
1947.18	292.609
1947.43	291.649
1947.68	297.385
1947.92	292.598
1948.17	301.188
1948.42	294.521
1948.67	293.622
1948.91	293.683
1949.16	295.663
1949.41	298.612
1949.65	293.916
1949.9	295.961
1950.15	303.758
1950.4	293.324
1950.64	289.606
1950.89	288.766
1951.13	293.67
1951.38	294.714
1951.63	289.969
1951.88	299.618
1952.12	290.05
1952.37	291.014
1952.62	296.838
1952.86	293.996
1953.11	292.946
1953.36	294.737
1953.6	293.594
1953.85	297.268
1954.1	293.284
1954.34	287.424
1954.59	292.182
1954.84	292.184
1955.08	293.189
1955.33	297.115
1955.58	298.225
1955.82	296.488
1956.07	296.576
1956.32	288.982
1956.56	293.839
1956.81	296.79
1957.06	295.891
1957.3	293.063
1957.55	295.026
1957.8	296.977
1958.04	298.921
1958.29	293.161
1958.54	299.858
1958.78	297.886
1959.03	291.136
1959.28	294
1959.52	293.956
1959.77	299.673
1960.02	295.786
1960.26	293.816
1960.51	299.522
1960.76	289.873
1961	293.672
1961.25	294.613
1961.5	296.545
1961.74	298.481
1961.99	293.696
1962.23	292.75
1962.48	290.844
1962.73	291.816
1962.97	292.788
1963.22	293.761
1963.47	298.582
1963.71	299.58
1963.96	290.002
1964.2	297.675
1964.45	289.979
1964.7	291.902
1964.94	289.976
1965.19	292.87
1965.44	299.63
1965.68	290.086
1965.93	297.839
1966.18	295.98
1966.42	307.56
1966.67	299.898
1966.91	297.009
1967.16	293.175
1967.41	292.24
1967.65	298.977
1967.9	297.072
1968.14	292.253
1968.39	292.223
1968.64	292.166
1968.88	310.346
1969.13	300.639
1969.37	289.983
1969.62	288.955
1969.87	299.456
1970.11	291.742
1970.36	291.687
1970.61	296.445
1970.85	296.414
1971.1	300.224
1971.34	301.162
1971.59	292.566
1971.84	288.756
1972.08	294.525
1972.33	292.599
1972.57	292.57
1972.82	294.435
1973.06	294.367
1973.31	289.525
1973.56	297.16
1973.8	294.263
1974.05	294.256
1974.29	297.136
1974.54	287.565
1974.78	298.138
1975.03	295.305
1975.28	300.147
1975.52	305.941
1975.77	294.462
1976.01	297.357
1976.26	294.49
1976.51	295.449
1976.75	296.398
1977	295.418
1977.24	308.809
1977.49	288.623
1977.73	296.247
1977.98	301.961
1978.22	295.221
1978.47	298.083
1978.72	292.337
1978.96	290.431
1979.21	292.348
1979.45	291.407
1979.7	294.285
1979.95	288.498
1980.19	291.318
1980.44	295.105
1980.68	296.045
1980.93	287.375
1981.17	295.013
1981.42	295.909
1981.66	298.739
1981.91	290.37
1982.16	293.036
1982.4	290.519
1982.65	295.839
1982.89	291.832
1983.14	289.189
1983.38	293.452
1983.63	290.498
1983.87	293.138
1984.12	293.438
1984.36	293.278
1984.61	291.316
1984.85	295.19
1985.1	295.598
1985.34	293.706
1985.59	294.994
1985.84	291.122
1986.08	297.621
1986.33	293.125
1986.57	292.421
1986.82	290.923
1987.06	290.222
1987.31	295.377
1987.55	292.441
1987.8	294.478
1988.04	294.65
1988.29	296.51
1988.53	289.192
1988.78	286.067
1989.02	301.774
1989.27	292.664
1989.51	292.773
1989.76	288.698
1990	294.919
1990.25	294.174
1990.49	294.503
1990.74	289.223
1990.98	289.119
1991.23	289.573
1991.47	296.877
1991.72	289.547
1991.96	293.405
1992.21	291.703
1992.45	289.079
1992.7	292.594
1992.94	293.146
1993.19	291.454
1993.43	292.826
1993.68	288.444
1993.92	291.319
1994.17	292.734
1994.41	287.981
1994.66	290.603
1994.9	285.666
1995.15	290.021
1995.39	292.643
1995.64	292.176
1995.88	289.424
1996.13	291.478
1996.37	296.244
1996.62	289.432
1996.86	291.462
1997.11	288.546
1997.35	289.784
1997.6	290.049
1997.84	290.16
1998.09	293.8
1998.33	290.485
1998.58	288.678
1998.82	287.849
1999.07	287.54
1999.31	291.592
1999.55	291.212
1999.8	289.659
2000.04	291.458
2000.29	288.281
2000.53	289.006
2000.78	289.832
2001.02	288.055
2001.27	289.57
2001.51	291.057
2001.76	289.921
2002	288.972
2002.25	290.428
2002.49	290.471
2002.73	289.623
2002.98	291.055
2003.22	291.972
2003.47	287.976
2003.71	287.52
2003.96	289.997
2004.2	289.161
2004.45	287.423
2004.69	288.299
2004.94	293.536
2005.1	291.105
2005.34	290.144
2005.59	284.46
2005.84	289.181
2006.08	283.519
2006.33	283.554
2006.58	285.454
2006.83	285.431
2007.08	292.009
2007.32	289.133
2007.57	295.678
2007.82	286.111
2008.06	289.785
2008.31	292.543
2008.56	286.813
2008.81	287.666
2009.05	291.343
2009.3	291.271
2009.55	294.027
2009.8	290.187
2010.04	288.226
2010.29	290.096
2010.54	291.972
2010.79	291.022
2011.03	283.482
2011.28	297.599
2011.53	288.167
2011.77	285.329
2012.02	294.725
2012.27	292.811
2012.52	288.04
2012.76	285.094
2013.01	288.733
2013.26	295.227
2013.51	281.955
2013.75	285.583
2014	289.179
2014.25	276.865
2014.49	284.35
2014.74	290.938
2014.99	293.8
2015.24	286.339
2015.48	291.066
2015.73	288.19
2015.98	286.474
2016.22	282.882
2016.47	286.667
2016.72	292.283
2016.96	287.536
2017.21	293.1
2017.46	280.797
2017.71	284.437
2017.95	284.32
2018.2	288.91
2018.45	282.236
2018.69	284.933
2018.94	287.644
2019.19	289.476
2019.43	287.557
2019.68	281.924
2019.93	286.601
2020.18	285.649
2020.42	287.513
2020.67	286.601
2020.92	296.92
2021.16	287.552
2021.41	295.029
2021.66	289.381
2021.9	282.782
2022.15	292.088
2022.4	296.692
2022.64	285.378
2022.89	282.516
2023.14	288.998
2023.38	285.195
2023.63	282.328
2023.88	285.079
2024.12	284.041
2024.37	290.482
2024.62	282.914
2024.86	283.759
2025.11	288.341
2025.36	287.329
2025.6	286.302
2025.85	281.692
2026.1	290.212
2026.34	281.071
2026.59	282.231
2026.84	285.272
2027.08	284.456
2027.33	289.065
2027.58	288.86
2027.82	285.691
2028.07	291.717
2028.32	286.028
2028.56	282.079
2028.81	281.682
2029.06	290.221
2029.3	286.941
2029.55	285.684
2029.79	291.954
2030.04	290.015
2030.29	282.416
2030.53	281.69
2030.78	284.612
2031.03	281.78
2031.27	289.246
2031.52	291.138
2031.77	281.893
2032.01	289.46
2032.26	279.292
2032.51	281.252
2032.75	288.799
2033	292.604
2033.24	283.347
2033.49	287.08
2033.74	289.737
2033.98	293.234
2034.23	287.368
2034.48	283.619
2034.72	281.864
2034.97	285.707
2035.21	285.892
2035.46	287.962
2035.71	288.099
2035.95	285.224
2036.2	282.297
2036.45	284.208
2036.69	287.998
2036.94	292.67
2037.18	281.433
2037.43	283.274
2037.68	285.107
2037.92	286.935
2038.17	289.693
2038.41	288.713
2038.66	283.061
2038.91	279.275
2039.15	287.633
2039.4	282.894
2039.64	281.88
2039.89	285.536
2040.14	287.327
2040.38	284.461
2040.63	288.133
2040.87	287.152
2041.12	285.271
2041.37	287.116
2041.61	285.208
2041.86	293.566
2042.1	288.835
2042.35	288.828
2042.6	282.304
2042.84	286.997
2043.09	288.95
2043.33	291.872
2043.58	288.262
2043.83	284.559
2044.07	286.404
2044.32	283.526
2044.56	294.573
2044.81	286.831
2045.05	282.671
2045.3	289.193
2045.55	288.774
2045.79	299.526
2046.04	286.977
2046.28	286.716
2046.53	281.856
2046.77	281.891
2047.02	289.244
2047.26	286.214
2047.51	284.314
2047.76	283.399
2048	285.279
2048.25	285.301
2048.49	284.429
2048.74	285.412
2048.98	292.941
2049.23	279.967
2049.48	290.342
2049.72	284.816
2049.97	293.304
2050.21	284.003
2050.46	282.145
2050.7	282.121
2050.95	293.266
2051.2	290.387
2051.44	287.589
2051.69	283.867
2051.93	279.238
2052.18	285.793
2052.42	289.567
2052.67	280.275
2052.91	284.073
2053.16	286.03
2053.4	295.505
2053.65	288.078
2053.89	292.79
2054.14	279.701
2054.39	291.855
2054.63	288.099
2054.88	283.393
2055.12	288.942
2055.37	282.368
2055.61	287.963
2055.86	288.87
2056.1	288.841
2056.35	285.087
2056.59	297.24
2056.84	288.844
2057.08	291.674
2057.33	282.365
2057.57	285.213
2057.82	287.135
2058.07	296.563
2058.31	285.402
2058.56	286.399
2058.8	288.312
2059.04	292.074
2059.29	294.903
2059.54	291.155
2059.78	282.694
2060.03	288.263
2060.27	290.119
2060.52	286.414
2060.76	287.392
2061.01	288.356
2061.25	288.368
2061.5	293.057
2061.74	291.198
2061.99	280.922
2062.23	285.637
2062.48	291.302
2062.72	281.989
2062.97	287.658
2063.21	284.886
2063.46	285.855
2063.7	288.692
2063.95	291.53
2064.19	291.569
2064.44	294.426
2064.68	288.878
2064.93	291.782
2065.17	289.987
2065.42	286.304
2065.66	292.932
2065.91	289.216
2066.15	285.468
2066.39	296.779
2066.64	291.173
2066.88	289.323
2067.13	289.365
2067.37	282.839
2067.62	284.757
2067.86	282.909
2068.11	282.924
2068.35	289.557
2068.6	285.788
2068.84	292.323
2069.09	301.628
2069.33	295.854
2069.58	285.494
2069.82	287.409
2070.07	294.127
2070.31	290.518
2070.56	286.91
2070.8	291.558
2071.04	289.588
2071.29	295.659
2071.53	290.067
2071.78	291.92
2072.02	291.901
2072.27	290.012
2072.51	295.633
2072.76	291.872
2073	283.382
2073.25	288.108
2073.49	287.176
2073.73	284.372
2073.98	290.058
2074.22	283.525
2074.47	282.664
2074.71	291.252
2074.96	291.39
2075.2	292.486
2075.45	300.136
2075.69	284.139
2075.94	300.195
2076.18	288.875
2076.42	292.616
2076.67	289.724
2076.91	290.589
2077.16	293.299
2077.4	286.676
2077.65	290.49
2077.89	286.775
2078.13	285.858
2078.38	286.831
2078.62	289.709
2078.87	294.512
2079.11	293.697
2079.35	288.089
2079.6	281.528
2079.84	291.968
2080.09	288.223
2080.33	292.947
2080.58	293.864
2080.82	290.066
2081.06	291.005
2081.31	295.724
2081.55	289.106
2081.8	288.186
2082.04	292.933
2082.29	296.73
2082.53	289.175
2082.77	292.95
2083.02	290.103
2083.26	290.095
2083.51	289.153
2083.75	291.991
2083.99	300.494
2084.24	290.107
2084.48	281.611
2084.73	286.338
2084.97	292.955
2085.21	285.396
2085.46	285.427
2085.7	286.452
2085.95	295.058
2086.19	295.119
2086.43	290.42
2086.68	290.46
2086.92	290.511
2087.17	292.426
2087.41	283.913
2087.65	295.275
2087.9	290.553
2088.14	288.675
2088.39	283.013
2088.63	284.921
2088.87	293.494
2089.12	285.969
2089.36	295.524
2089.6	293.649
2089.85	294.614
2090.09	294.637
2090.33	287.087
2090.58	288.069
2090.82	289.998
2091.07	285.291
2091.31	296.751
2091.55	296.841
2091.8	292.197
2092.04	287.548
2092.28	289.55
2092.53	286.779
2092.77	297.301
2093.02	288.829
2093.26	290.802
2093.5	292.763
2093.75	286.162
2093.99	289.029
2094.23	290.929
2094.48	295.668
2094.72	289.94
2094.96	292.742
2095.21	290.79
2095.45	289.799
2095.7	287.868
2095.94	292.599
2096.18	289.739
2096.43	292.574
2096.67	289.683
2096.91	288.676
2097.16	287.674
2097.4	298.094
2097.64	290.485
2097.89	294.264
2098.13	291.381
2098.37	290.432
2098.62	288.526
2098.86	289.459
2099.1	294.193
2099.35	292.292
2099.59	289.449
2099.83	289.46
2100.08	285.681
2100.32	285.718
2100.56	287.688
2100.81	294.391
2101.05	296.327
2101.29	296.344
2101.54	296.343
2101.78	288.741
2102.02	292.541
2102.27	290.621
2102.51	291.521
2102.75	295.261
2103	291.437
2103.24	294.274
2103.48	292.363
2103.73	295.219
2103.97	289.553
2104.21	290.55
2104.46	292.493
2104.7	292.537
2104.94	288.792
2105.18	292.661
2105.43	291.764
2105.67	299.402
2105.91	288.025
2106.16	291.842
2106.4	293.759
2106.64	291.888
2106.89	289.039
2107.13	286.153
2107.37	299.402
2107.61	295.522
2107.86	310.64
2108.1	292.511
2108.34	294.354
2108.59	292.435
2108.83	300.05
2109.07	292.541
2109.32	293.539
2109.56	291.643
2109.8	291.644
2110.04	291.644
2110.29	291.645
2110.53	294.497
2110.77	286.894
2111.01	290.672
2111.26	295.379
2111.5	294.403
2111.74	292.487
2111.99	293.439
2112.23	291.574
2112.47	283.055
2112.71	291.641
2112.96	290.771
2113.2	291.777
2113.44	294.656
2113.69	296.533
2113.93	292.707
2114.17	293.655
2114.41	290.821
2114.66	290.827
2114.9	285.107
2115.14	291.734
2115.38	293.613
2115.63	290.738
2115.87	291.624
2116.11	295.369
2116.35	283.95
2116.6	291.534
2116.84	290.573
2117.08	290.589
2117.32	296.251
2117.57	292.406
2117.81	290.459
2118.05	286.583
2118.29	291.241
2118.54	289.28
2118.78	291.115
2119.02	296.742
2119.26	293.838
2119.51	289.047
2119.75	295.64
2119.99	302.261
2120.23	285.218
2120.48	294.746
2120.72	290.036
2120.96	291.054
2121.2	294.919
2121.45	286.449
2121.69	295.048
2121.93	292.258
2122.17	295.15
2122.42	296.14
2122.66	291.428
2122.9	292.402
2123.14	291.461
2123.38	299.981
2123.63	285.708
2123.87	293.249
2124.11	283.681
2124.35	292.101
2124.6	293.857
2124.84	288.044
2125.08	299.312
2125.32	290.698
2125.57	284.934
2125.81	289.593
2126.05	287.64
2126.29	299.877
2126.53	290.353
2126.78	292.188
2127.02	288.382
2127.26	288.368
2127.5	289.294
2127.74	294.936
2127.99	286.413
2128.23	290.197
2128.47	296.815
2128.71	288.295
2128.95	289.217
2129.2	289.199
2129.44	298.637
2129.68	291.063
2129.92	282.541
2130.16	292.912
2130.41	294.773
2130.65	291.902
2130.89	295.637
2131.13	285.203
2131.37	293.662
2131.62	293.635
2131.86	291.711
2132.1	285.988
2132.34	287.826
2132.58	286.857
2132.82	288.743
2133.07	293.475
2133.31	293.487
2133.55	285.94
2133.79	287.844
2134.03	288.794
2134.28	288.787
2134.52	301.047
2134.76	291.602
2135	296.305
2135.24	290.613
2135.48	291.504
2135.73	293.296
2135.97	294.154
2136.21	290.345
2136.45	290.364
2136.69	290.373
2136.94	287.553
2137.18	295.131
2137.42	290.484
2137.66	289.505
2137.9	288.478
2138.14	284.651
2138.39	290.374
2138.63	296.128
2138.87	292.422
2139.11	290.362
2139.35	289.325
2139.59	294.93
2139.83	288.29
2140.08	288.254
2140.32	292.934
2140.56	286.319
2140.8	291.005
2141.04	298.548
2141.28	290.945
2141.53	290.882
2141.77	288.978
2142.01	292.746
2142.25	293.752
2142.49	296.621
2142.73	286.524
2142.97	293.9
2143.21	287.466
2143.46	292.25
2143.7	283.835
2143.94	289.584
2144.18	299.09
2144.42	293.503
2144.66	286.73
2144.9	294.298
2145.15	297.13
2145.39	295.23
2145.63	284.864
2145.87	293.3
2146.11	296.097
2146.35	292.314
2146.59	285.705
2146.83	290.363
2147.08	288.445
2147.32	291.228
2147.56	293.077
2147.8	288.346
2148.04	298.643
2148.28	284.518
2148.52	291.045
2148.76	287.23
2149.01	287.157
2149.25	283.288
2149.49	286.973
2149.73	291.584
2149.97	289.652
2150.21	298.998
2150.45	290.559
2150.69	282.151
2150.93	291.573
2151.18	285.98
2151.42	294.463
2151.66	294.487
2151.9	295.46
2152.14	294.478
2152.38	288.81
2152.62	290.632
2152.86	296.209
2153.1	287.749
2153.34	283.035
2153.59	287.671
2153.83	290.408
2154.07	286.559
2154.31	292.991
2154.55	286.321
2154.79	292.741
2155.03	297.323
2155.27	290.691
2155.51	292.487
2155.75	288.696
2155.99	288.667
2156.23	284.918
2156.47	294.253
2156.72	286.784
2156.96	292.413
2157.2	283.112
2157.44	286.904
2157.68	285.079
2157.92	288.83
2158.16	294.436
2158.4	285.075
2158.64	283.181
2158.88	301.834
2159.12	290.572
2159.36	285.841
2159.6	290.439
2159.84	287.566
2160.09	293.103
2160.33	285.581
2160.57	301.415
2160.81	289.268
2161.05	284.575
2161.29	289.214
2161.53	278.01
2161.77	289.205
2162.01	293.871
2162.25	288.268
2162.49	305.031
2162.73	286.338
2162.97	297.498
2163.21	290.008
2163.45	288.111
2163.69	292.738
2163.93	294.535
2164.17	288.868
2164.41	291.618
2164.66	283.251
2164.9	293.527
2165.14	291.668
2165.38	283.286
2165.62	282.357
2165.86	291.639
2166.1	290.677
2166.34	291.563
2166.58	284.985
2166.82	290.531
2167.06	285.806
2167.3	289.442
2167.54	286.505
2167.78	282.659
2168.02	285.41
2168.26	282.617
2168.5	282.635
2168.74	288.254
2168.98	283.666
2169.22	286.539
2169.46	290.364
2169.7	293.272
2169.94	295.199
2170.18	288.704
2170.42	288.682
2170.66	288.623
2170.9	288.597
2171.14	290.335
2171.38	289.199
2171.62	289.096
2171.86	290.902
2172.1	283.418
2172.34	278.735
2172.58	278.728
2172.82	281.512
2173.06	289.871
2173.3	290.824
2173.54	291.79
2173.78	285.312
2174.02	292.761
2174.26	284.4
2174.5	287.187
2174.74	289.04
2174.98	281.587
2175.22	287.145
2175.46	288.065
2175.7	288.979
2175.94	290.812
2176.18	292.626
2176.42	291.68
2176.66	281.463
2176.9	281.471
2177.14	288.908
2177.38	287.975
2177.62	290.772
2177.86	284.238
2178.1	278.59
2178.34	281.323
2178.58	290.602
2178.82	287.829
2179.06	288.763
2179.3	285.981
2179.54	294.337
2179.78	292.478
2180.02	291.541
2180.26	289.666
2180.5	290.577
2180.74	285.927
2180.98	290.55
2181.22	288.659
2181.46	284.916
2181.7	294.18
2181.94	286.719
2182.18	282.053
2182.42	298.724
2182.66	282.898
2182.9	280.05
2183.14	284.605
2183.38	283.619
2183.62	294.694
2183.85	291.873
2184.09	290.008
2184.33	283.534
2184.57	290.049
2184.81	285.438
2185.05	286.389
2185.29	281.791
2185.53	285.549
2185.77	287.456
2186.01	287.51
2186.25	282.028
2186.49	291.394
2186.73	284.056
2186.97	287.853
2187.21	289.773
2187.45	288.859
2187.69	285.112
2187.93	285.063
2188.16	289.649
2188.41	287.73
2188.64	288.588
2188.88	290.365
2189.12	288.413
2189.36	291.117
2189.6	283.663
2189.84	288.289
2190.08	287.369
2190.32	288.324
2190.56	288.346
2190.8	283.712
2191.04	277.24
2191.28	290.247
2191.51	286.564
2191.76	285.663
2191.99	287.543
2192.23	288.498
2192.47	286.694
2192.71	286.744
2192.95	283.081
2193.19	299.857
2193.43	293.491
2193.67	286.199
2193.91	285.363
2194.15	290.062
2194.39	284.466
2194.62	298.377
2194.86	289.052
2195.1	295.512
2195.34	288.016
2195.58	288.862
2195.82	292.474
2196.06	293.309
2196.3	292.31
2196.54	289.472
2196.77	287.568
2197.01	292.164
2197.25	293.097
2197.49	292.178
2197.73	287.574
2197.97	295.996
2198.21	294.217
2198.45	285.952
2198.69	279.552
2198.93	296.357
2199.17	287.164
2199.4	289.12
2199.64	290.195
2199.88	282.908
2200.12	290.49
2200.36	298.993
2200.6	287.902
2200.84	288.906
2201.08	293.435
2201.31	299.642
2201.55	291.56
2201.79	294.861
2202.03	296.004
2202.27	292.805
2202.51	281.861
2202.75	291.082
2202.98	294.741
2203.22	291.319
2203.46	286.615
2203.7	281.608
2203.94	285.323
2204.18	290.026
2204.42	286.098
2204.66	291.429
2204.89	291.198
2205.13	289.179
2205.37	288.208
2205.61	291.936
2205.85	285.496
2206.09	291.08
2206.33	282.61
2206.56	296.575
2206.8	291.042
2207.04	288.308
2207.28	290.231
2207.52	286.573
2207.76	288.498
2208	292.282
2208.23	291.405
2208.47	288.655
2208.71	285.893
2208.95	279.392
2209.19	288.708
2209.43	292.426
2209.67	290.577
2209.9	287.821
2210.14	286.933
2210.38	289.776
2210.62	289.825
2210.86	285.21
2211.09	288.989
2211.33	292.784
2211.57	290.983
2211.81	289.163
2212.05	290.118
2212.29	291.032
2212.52	289.138
2212.76	288.179
2213	291.863
2213.24	285.288
2213.48	287.171
2213.72	292.826
2213.95	284.554
2214.19	293.997
2214.43	284.696
2214.67	287.523
2214.91	293.145
2215.15	287.558
2215.38	289.434
2215.62	295.039
2215.86	296.903
2216.1	285.693
2216.34	284.747
2216.57	290.339
2216.81	288.473
2217.05	287.552
2217.29	280.098
2217.53	289.435
2217.76	295.968
2218	290.381
2218.24	284.809
2218.48	282.049
2218.72	296.113
2218.95	291.499
2219.19	296.204
2219.43	285.964
2219.67	290.667
2219.91	293.465
2220.14	287.846
2220.38	296.248
2220.62	293.415
2220.86	291.478
2221.09	290.466
2221.33	293.205
2221.57	294.084
2221.81	295.915
2222.05	290.308
2222.29	288.464
2222.52	288.507
2222.76	282.015
2223	292.339
2223.24	294.279
2223.47	286.892
2223.71	299.135
2223.95	293.613
2224.19	293.688
2224.43	286.271
2224.66	292.885
2224.9	292.024
2225.14	289.302
2225.38	288.431
2225.61	290.368
2225.85	289.496
2226.09	288.606
2226.33	289.607
2226.56	296.227
2226.8	291.589
2227.04	292.564
2227.28	287.896
2227.51	287.891
2227.75	288.808
2227.99	294.414
2228.23	286.895
2228.47	289.694
2228.7	290.617
2228.94	283.118
2229.18	292.545
2229.42	292.624
2229.65	296.45
2229.89	298.382
2230.13	289.056
2230.36	286.301
2230.6	291.998
2230.84	292.069
2231.08	297.779
2231.31	294.08
2231.55	289.442
2231.79	295.141
2232.03	292.381
2232.27	290.557
2232.5	291.555
2232.74	286.906
2232.98	302.955
2233.21	294.545
2233.45	293.648
2233.69	289.918
2233.93	303.081
2234.16	296.47
2234.4	288.907
2234.64	288.857
2234.87	289.696
2235.11	288.683
2235.35	286.81
2235.59	289.645
2235.82	285.901
2236.06	292.503
2236.3	292.517
2236.54	290.653
2236.77	297.31
2237.01	287.964
2237.25	289.019
2237.48	294.794
2237.72	293.025
2237.96	297.82
2238.2	296.016
2238.43	297.052
2238.67	296.219
2238.91	291.524
2239.14	294.331
2239.38	306.554
2239.62	295.154
2239.85	299.798
2240.09	291.28
2240.33	288.576
2240.57	298.125
2240.8	288.711
2241.04	289.675
2241.28	287.813
2241.51	293.495
2241.75	287.86
2241.99	291.669
2242.22	293.596
2242.46	298.325
2242.7	294.539
2242.94	291.67
2243.17	297.29
2243.41	292.55
2243.65	296.318
2243.88	287.836
2244.12	296.377
2244.36	300.243
2244.59	290.921
2244.83	296.7
2245.07	292.048
2245.3	301.56
2245.54	306.354
2245.78	296.016
2246.01	289.448
2246.25	293.263
2246.49	295.202
2246.72	296.195
2246.96	299.067
2247.2	292.458
2247.43	294.349
2247.67	290.55
2247.91	284.856
2248.14	296.195
2248.38	288.611
2248.62	291.435
2248.85	293.317
2249.09	295.262
2249.33	290.568
2249.56	296.246
2249.8	299.997
2250.04	292.371
2250.27	291.366
2250.51	294.135
2250.75	295.028
2250.98	292.151
2251.22	299.699
2251.46	291.203
2251.69	294.074
2251.93	303.578
2252.17	294.183
2252.4	291.44
2252.64	290.652
2252.88	295.504
2253.11	291.804
2253.35	302.301
2253.59	297.62
2253.82	296.732
2254.06	306.257
2254.29	296.783
2254.53	298.653
2254.77	302.461
2255	288.243
2255.24	292.997
2255.48	297.752
2255.71	301.598
2255.95	294.069
2256.19	297.918
2256.42	297.969
2256.66	298.97
2256.9	288.579
2257.13	293.374
2257.37	297.207
2257.6	296.277
2257.84	297.241
2258.08	305.811
2258.31	295.394
2258.55	295.438
2258.78	296.435
2259.02	296.466
2259.26	294.593
2259.49	293.678
2259.73	289.91
2259.97	291.842
2260.2	296.625
2260.44	297.624
2260.67	291.061
2260.91	294.932
2261.15	295.901
2261.38	297.824
2261.62	289.287
2261.85	295.976
2262.09	300.779
2262.33	296.084
2262.56	296.153
2262.8	295.281
2263.03	299.185
2263.27	298.34
2263.51	290.832
2263.74	297.623
2263.98	307.272
2264.21	291.137
2264.45	295.03
2264.69	299.868
2264.92	299.925
2265.16	299.938
2265.39	293.266
2265.63	299.932
2265.86	304.644
2266.1	291.207
2266.34	286.364
2266.57	302.525
2266.81	300.568
2267.05	295.755
2267.28	296.664
2267.52	305.183
2267.75	293.69
2267.99	291.766
2268.22	292.729
2268.46	294.678
2268.7	301.42
2268.93	293.87
2269.17	297.774
2269.4	296.91
2269.64	297.017
2269.87	298.07
2270.11	295.264
2270.35	289.569
2270.58	291.546
2270.82	297.338
2271.05	291.641
2271.29	290.728
2271.52	297.482
2271.76	299.43
2271.99	297.525
2272.23	295.627
2272.47	301.386
2272.7	295.665
2272.94	288.985
2273.17	298.572
2273.41	305.29
2273.64	290.952
2273.88	292.881
2274.12	304.385
2274.35	293.875
2274.58	298.684
2274.82	299.661
2275.06	299.684
2275.29	305.418
2275.53	294.932
2275.76	295.005
2276	294.123
2276.23	303.774
2276.47	300.004
2276.7	301.99
2276.94	302.092
2277.17	300.288
2277.41	293.691
2277.65	300.545
2277.88	299.633
2278.12	300.619
2278.35	296.784
2278.59	296.775
2278.82	295.798
2279.06	291.911
2279.29	293.697
2279.53	300.329
2279.76	296.412
2280	304.015
2280.23	299.163
2280.47	292.41
2280.71	291.424
2280.94	293.306
2281.17	299.027
2281.41	306.731
2281.65	304.837
2281.88	301.048
2282.11	301.109
2282.35	300.224
2282.59	307.97
2282.82	302.301
2283.06	296.662
2283.29	297.765
2283.53	298.854
2283.76	297.078
2284	293.317
2284.23	300.084
2284.47	298.232
2284.7	299.267
2284.94	301.217
2285.17	304.119
2285.41	298.286
2285.64	290.474
2285.88	302.006
2286.11	302.03
2286.35	304.001
2286.58	301.259
2286.82	295.607
2287.05	296.619
2287.29	298.576
2287.52	297.703
2287.76	291.905
2287.99	299.568
2288.23	300.488
2288.46	302.363
2288.69	301.312
2288.93	299.274
2289.17	295.328
2289.4	292.315
2289.63	299.967
2289.87	303.781
2290.1	294.171
2290.34	297.061
2290.57	294.221
2290.81	297.185
2291.04	304.986
2291.28	297.36
2291.51	300.302
2291.75	295.543
2291.98	296.564
2292.22	294.711
2292.45	293.817
2292.69	297.726
2292.92	306.446
2293.15	296.845
2293.39	295.904
2293.62	302.631
2293.86	304.525
2294.09	307.371
2294.33	299.606
2294.56	315.94
2294.8	304.341
2295.03	294.669
2295.27	297.518
2295.5	295.559
2295.73	291.648
2295.97	303.067
2296.2	297.276
2296.44	303.075
2296.67	296.383
2296.91	302.215
2297.14	296.509
2297.38	297.556
2297.61	303.443
2297.85	295.806
2298.08	295.85
2298.31	296.873
2298.55	302.738
2298.78	296.057
2299.02	303.828
2299.25	297.112
2299.49	299.037
2299.72	304.831
2299.95	300.964
2300.19	297.14
2300.42	291.405
2300.66	300.131
2300.89	298.238
2301.13	301.157
2301.36	294.41
2301.59	290.543
2301.83	298.24
2302.06	304.974
2302.3	295.333
2302.53	294.364
2302.77	295.314
2303	297.241
2303.23	295.316
2303.47	297.276
2303.7	306.982
2303.94	295.449
2304.17	301.278
2304.4	297.459
2304.64	291.723
2304.87	297.558
2305.11	298.54
2305.34	304.364
2305.58	299.572
2305.81	298.647
2306.04	294.796
2306.28	298.671
2306.51	306.402
2306.75	300.595
2306.98	301.538
2307.21	291.837
2307.45	296.647
2307.68	298.556
2307.92	291.766
2308.15	296.599
2308.38	297.577
2308.62	298.59
2308.85	302.508
2309.09	301.617
2309.32	300.749
2309.55	298.885
2309.79	292.146
2310.02	303.766
2310.26	304.729
2310.49	291.158
2310.72	298.832
2310.96	309.306
2311.19	295.572
2311.42	301.262
2311.66	297.32
2311.89	299.209
2312.13	297.227
2312.36	297.188
2312.59	303.936
2312.83	301.076
2313.06	296.337
2313.29	301.287
2313.53	293.652
2313.76	303.403
2314	302.532
2314.23	301.678
2314.46	298.887
2314.7	297.974
2314.93	306.615
2315.16	300.733
2315.4	298.739
2315.63	299.629
2315.87	298.507
2316.1	304.207
2316.33	312.854
2316.57	302.224
2316.8	302.24
2317.03	305.157
2317.27	293.642
2317.5	292.736
2317.73	298.448
2317.97	310.943
2318.2	295.456
2318.43	306.03
2318.67	289.571
2318.9	301.11
2319.13	301.077
2319.37	299.126
2319.6	302.021
2319.84	298.171
2320.07	299.137
2320.3	302.059
2320.54	300.175
2320.77	288.642
2321	295.457
2321.23	301.317
2321.47	304.301
2321.7	298.6
2321.94	302.549
2322.17	302.586
2322.4	301.611
2322.64	301.622
2322.87	305.514
2323.1	294.899
2323.33	301.689
2323.57	295.9
2323.8	300.726
2324.03	303.614
2324.27	299.68
2324.5	302.488
2324.73	303.348
2324.97	299.41
2325.2	304.18
2325.43	304.121
2325.67	303.094
2325.9	305.925
2326.13	300.07
2326.37	298.076
2326.6	300.905
2326.83	302.767
2327.07	304.648
2327.3	311.347
2327.53	318.057
2327.77	325.779
2328	328.677
2328.23	334.469
2328.46	351.759
2328.7	345.908
2328.93	340.04
2329.16	327.48
2329.4	311.093
2329.63	314.019
2329.86	304.375
2330.09	307.239
2330.33	306.249
2330.56	307.2
2330.79	306.256
2331.03	296.669
2331.26	304.426
2331.49	293.9
2331.73	302.51
2331.96	293.774
2332.19	296.621
2332.42	296.581
2332.66	301.356
2332.89	303.244
2333.12	302.248
2333.36	303.183
2333.59	293.52
2333.82	288.661
2334.05	292.438
2334.29	302.007
2334.52	297.168
2334.75	300.041
2334.99	301.95
2335.22	302.921
2335.45	291.403
2335.68	294.283
2335.92	300.025
2336.15	305.774
2336.38	309.607
2336.61	294.213
2336.85	297.084
2337.08	303.802
2337.31	296.088
2337.54	296.068
2337.78	296.055
2338.01	300.847
2338.24	301.8
2338.47	301.81
2338.71	298.936
2338.94	296.053
2339.17	292.201
2339.41	309.481
2339.64	292.147
2339.87	293.06
2340.1	301.657
2340.34	299.671
2340.57	304.391
2340.8	296.615
2341.03	306.101
2341.27	295.457
2341.5	300.196
2341.73	302.008
2341.96	295.269
2342.2	296.215
2342.43	298.089
2342.66	302.787
2342.89	292.692
2343.13	295.19
2343.36	302.486
2343.59	298.74
2343.82	297.053
2344.05	297.248
2344.29	299.421
2344.52	297.415
2344.75	295.225
2344.98	300.537
2345.22	306.724
2345.45	297.907
2345.68	302.641
2345.91	294.729
2346.14	298.705
2346.38	293.402
2346.61	302.2
2346.84	290.084
2347.07	299.928
2347.31	291.128
2347.54	293.798
2347.77	296.504
2348	297.282
2348.23	296.912
2348.47	294.944
2348.7	300.364
2348.93	298.591
2349.16	294.661
2349.39	294.796
2349.63	297.398
2349.86	294.961
2350.09	293.974
2350.32	296.344
2350.56	297.086
2350.79	291.632
2351.02	297.258
2351.25	298.881
2351.48	296.35
2351.72	293.865
2351.95	294.25
2352.18	293.375
2352.41	296.257
2352.64	293.555
2352.88	297.47
2353.11	294.762
2353.34	293.119
2353.57	294.771
2353.8	293.821
2354.03	298.519
2354.27	296.845
2354.5	295.781
2354.73	300.271
2354.96	288.447
2355.19	296.749
2355.43	295.342
2355.66	292.213
2355.89	293.622
2356.12	298.373
2356.35	292.273
2356.59	292.768
2356.82	293.928
2357.05	293.378
2357.28	290.635
2357.51	293.626
2357.74	296.387
2357.98	294.752
2358.21	296.276
2358.44	291.437
2358.67	294.091
2358.9	294.258
2359.13	290.1
2359.37	292.173
2359.6	292.77
2359.83	295.717
2360.06	292.551
2360.29	292.093
2360.52	293.472
2360.75	296.458
2360.99	295.776
2361.22	292.849
2361.45	291.169
2361.68	293.41
2361.91	294.266
2362.14	292.619
2362.38	291.832
2362.61	291.423
2362.84	291.688
2363.07	288.702
2363.3	293.358
2363.53	290.744
2363.77	288.4
2364	291.332
2364.23	294.764
2364.46	293.219
2364.69	288.261
2364.92	289.268
2365.15	294.66
2365.27	296.577
2365.51	289.789
2365.74	293.474
2365.98	288.733
2366.21	295.324
2366.45	293.515
2366.68	293.672
2366.92	291.976
2367.15	288.226
2367.38	284.422
2367.62	293.854
2367.85	287.152
2368.09	292.761
2368.32	293.661
2368.56	291.725
2368.79	289.784
2369.02	291.612
2369.26	291.547
2369.49	287.703
2369.73	285.743
2369.96	288.499
2370.2	296.92
2370.43	294.984
2370.66	297.749
2370.9	289.219
2371.13	294.834
2371.37	294.805
2371.6	294.773
2371.83	290.947
2372.07	288.079
2372.3	296.5
2372.54	298.339
2372.77	296.431
2373	292.654
2373.24	285.107
2373.47	296.345
2373.71	288.752
2373.94	291.521
2374.17	283.951
2374.41	294.242
2374.64	290.427
2374.88	296.942
2375.11	288.431
2375.34	288.4
2375.58	294.955
2375.81	288.36
2376.05	290.208
2376.28	286.396
2376.51	290.106
2376.75	291.018
2376.98	290.056
2377.22	285.33
2377.45	290.909
2377.68	292.728
2377.92	290.805
2378.15	288.871
2378.39	288.813
2378.62	293.438
2378.85	292.42
2379.09	297.937
2379.32	291.285
2379.56	289.353
2379.79	288.386
2380.02	286.489
2380.26	291.147
2380.49	303.298
2380.72	296.733
2380.96	296.729
2381.19	288.31
2381.42	288.323
2381.66	288.313
2381.89	297.654
2382.13	284.541
2382.36	280.78
2382.59	291.048
2382.83	291.965
2383.06	297.57
2383.29	287.266
2383.53	285.386
2383.76	290.064
2384	291.002
2384.23	284.438
2384.46	288.163
2384.7	289.076
2384.93	294.64
2385.16	290.853
2385.4	291.727
2385.63	286.036
2385.86	292.502
2386.1	284.963
2386.33	280.196
2386.56	293.182
2386.8	296.833
2387.03	284.595
2387.26	290.125
2387.5	294.776
2387.73	289.186
2387.97	288.254
2388.2	282.649
2388.43	291.025
2388.67	289.133
2388.9	292.829
2389.13	287.234
2389.36	286.285
2389.6	290.935
2389.83	286.268
2390.06	298.391
2390.3	288.146
2390.53	294.692
2390.77	290.983
2391	285.4
2391.23	300.33
2391.47	297.521
2391.7	287.242
2391.93	290.946
2392.16	292.783
2392.4	281.545
2392.63	289.833
2392.86	291.586
2393.1	289.619
2393.33	296.941
2393.56	288.498
2393.8	293.095
2394.03	294.009
2394.26	292.059
2394.5	286.403
2394.73	292.022
2394.96	291.146
2395.2	289.401
2395.43	294.722
2395.66	283.473
2395.9	290
2396.13	281.847
2396.36	288.485
2396.59	296.631
2396.83	294.729
2397.06	290.047
2397.29	295.645
2397.53	290.989
2397.76	294.721
2397.99	286.313
2398.23	287.236
2398.46	284.436
2398.69	280.702
2398.92	292.822
2399.16	286.307
2399.39	284.447
2399.62	290.046
2399.86	286.312
2400.09	283.505
2400.32	285.354
2400.56	290.924
2400.79	285.303
2401.02	290.876
2401.25	292.719
2401.49	285.241
2401.72	286.147
2401.95	287.037
2402.18	285.106
2402.42	285.941
2402.65	282.087
2402.88	281.015
2403.12	296.618
2403.35	287.883
2403.58	287.855
2403.81	285.789
2404.05	282.298
2404.28	288.769
2404.51	294.36
2404.74	286.151
2404.98	294.611
2405.21	286.199
2405.44	283.419
2405.68	291.82
2405.91	290.909
2406.14	282.543
2406.37	288.159
2406.61	289.097
2406.84	284.433
2407.07	288.159
2407.3	281.627
2407.54	298.406
2407.77	280.682
2408	287.204
2408.23	288.133
2408.47	297.451
2408.7	285.312
2408.93	290.881
2409.16	288.064
2409.4	295.531
2409.63	285.294
2409.86	290.894
2410.09	289.028
2410.33	287.162
2410.56	286.239
2410.79	286.256
2411.02	291.847
2411.26	283.449
2411.49	290.931
2411.72	286.319
2411.95	289.162
2412.19	290.124
2412.42	292.945
2412.65	286.459
2412.88	289.287
2413.11	285.564
2413.35	286.495
2413.58	290.205
2413.81	283.66
2414.04	291.126
2414.28	282.716
2414.51	291.08
2414.74	285.428
2414.97	282.585
2415.21	291.874
2415.44	291.842
2415.67	289.924
2415.9	284.291
2416.13	284.279
2416.37	290.814
2416.6	293.641
2416.83	285.301
2417.06	290.012
2417.29	288.23
2417.53	285.457
2417.76	278.007
2417.99	283.664
2418.22	290.239
2418.45	289.413
2418.69	298.856
2418.92	285.858
2419.15	292.461
2419.38	288.773
2419.61	286.014
2419.85	291.651
2420.08	290.714
2420.31	286.049
2420.54	292.619
2420.78	285.201
2421.01	292.72
2421.24	290.687
2421.47	291.464
2421.7	290.49
2421.94	287.683
2422.17	285.839
2422.4	293.37
2422.63	292.529
2422.86	286.113
2423.09	291.893
2423.33	289.231
2423.56	291.986
2423.79	287.165
2424.02	282.576
2424.25	291.989
2424.48	285.5
2424.72	294.927
2424.95	296.865
2425.18	293.181
2425.41	292.305
2425.64	292.361
2425.88	285.853
2426.11	284.97
2426.34	292.53
2426.57	299.14
2426.8	280.414
2427.03	292.638
2427.27	287.04
2427.5	292.69
2427.73	285.189
2427.96	292.68
2428.19	288.899
2428.43	290.744
2428.66	285.105
2428.89	282.284
2429.12	295.401
2429.35	289.765
2429.58	288.824
2429.81	281.319
2430.05	292.568
2430.28	291.628
2430.51	285.084
2430.74	285.092
2430.97	287.002
2431.2	289.87
2431.44	289.961
2431.67	291.002
2431.9	292.033
2432.13	302.453
2432.36	284.684
2432.59	288.515
2432.82	288.581
2433.05	292.395
2433.29	290.55
2433.52	292.426
2433.75	289.62
2433.98	292.475
2434.21	296.248
2434.44	289.673
2434.68	288.79
2434.91	290.729
2435.14	289.84
2435.37	298.363
2435.6	288.08
2435.83	291.921
2436.06	292.941
2436.29	291.124
2436.53	286.422
2436.76	289.259
2436.99	288.333
2437.22	290.235
2437.45	291.179
2437.68	297.715
2437.91	298.649
2438.14	288.302
2438.38	290.238
2438.61	290.296
2438.84	298.839
2439.07	294.209
2439.3	293.336
2439.53	295.294
2439.76	291.591
2439.99	301.103
2440.23	289.859
2440.46	293.702
2440.69	288.073
2440.92	290.923
2441.15	289.971
2441.38	298.433
2441.61	291.83
2441.84	294.705
2442.07	295.709
2442.3	287.264
2442.53	293.938
2442.77	293.993
2443	291.204
2443.23	283.669
2443.46	292.226
2443.69	297.962
2443.92	299.906
2444.15	301.836
2444.38	294.303
2444.61	291.505
2444.84	296.286
2445.08	288.766
2445.31	292.604
2445.54	299.273
2445.77	289.826
2446	287.972
2446.23	293.727
2446.46	296.643
2446.69	288.181
2446.92	299.622
2447.15	296.841
2447.38	295.947
2447.61	295.029
2447.85	287.45
2448.08	290.278
2448.31	289.287
2448.54	302.537
2448.77	291.158
2449	294.964
2449.23	299.727
2449.46	294.089
2449.69	298.897
2449.92	296.1
2450.15	294.261
2450.38	297.197
2450.61	292.559
2450.85	286.998
2451.08	291.83
2451.31	296.613
2451.54	297.587
2451.77	290.967
2452	288.156
2452.23	292.938
2452.46	298.65
2452.69	303.369
2452.92	292.863
2453.15	289.978
2453.38	299.468
2453.61	294.716
2453.84	293.782
2454.07	309.032
2454.3	291.967
2454.53	298.689
2454.76	294.955
2455	285.518
2455.22	293.22
2455.46	303.759
2455.69	294.275
2455.92	298.144
2456.15	291.566
2456.38	294.501
2456.61	295.518
2456.84	297.472
2457.07	292.725
2457.3	290.824
2457.53	298.467
2457.76	294.666
2457.99	296.582
2458.22	298.494
2458.45	297.53
2458.68	289.915
2458.91	298.527
2459.14	300.478
2459.37	292.894
2459.6	293.892
2459.83	289.166
2460.06	298.75
2460.29	296.884
2460.52	291.187
2460.75	291.205
2460.98	300.763
2461.21	292.169
2461.44	293.11
2461.67	293.081
2461.9	309.318
2462.14	296.936
2462.36	292.164
2462.59	298.89
2462.83	294.079
2463.05	293.096
2463.29	295.145
2463.52	311.819
2463.74	293.308
2463.98	297.87
2464.21	298.743
2464.43	294.893
2464.67	298.726
2464.9	292.048
2465.12	293.981
2465.36	298.78
2465.59	291.09
2465.81	300.621
2466.05	299.641
2466.28	302.484
2466.5	296.737
2466.74	292.916
2466.97	301.59
2467.19	299.761
2467.43	294.942
2467.65	291.019
2467.88	299.54
2468.12	298.502
2468.34	297.505
2468.57	300.361
2468.8	299.406
2469.03	307.083
2469.26	290.856
2469.49	293.758
2469.72	296.658
2469.95	299.565
2470.18	290.028
2470.41	299.589
2470.64	295.775
2470.87	298.697
2471.1	303.53
2471.33	297.849
2471.56	300.817
2471.79	295.158
2472.02	293.311
2472.25	304.86
2472.48	300.087
2472.71	300.111
2472.94	303.039
2473.17	298.273
2473.4	307.657
2473.63	294.338
2473.86	300.246
2474.09	291.166
2474.32	297.246
2474.55	300.329
2474.78	292.664
2475.01	302.479
2475.24	298.651
2475.47	296.855
2475.7	300.824
2475.92	302.826
2476.15	297.146
2476.38	297.22
2476.61	299.162
2476.84	295.352
2477.07	298.172
2477.3	309.622
2477.53	292.212
2477.76	295.934
2477.99	293.758
2478.22	295.059
2478.45	297.296
2478.68	295.463
2478.91	299.244
2479.14	301.815
2479.37	292.814
2479.6	304.211
2479.83	294.897
2480.05	290.972
2480.28	297.085
2480.51	297.29
2480.74	296.129
2480.97	298.647
2481.2	294.179
2481.43	294.227
2481.66	297.016
2481.89	297.988
2482.12	300.875
2482.35	298.955
2482.58	301.809
2482.81	297.95
2483.04	286.443
2483.27	297.928
2483.49	296
2483.72	298.856
2483.95	293.078
2484.18	301.679
2484.41	301.681
2484.64	296.9
2484.87	300.733
2485.1	299.767
2485.33	302.657
2485.56	295.992
2485.78	301.764
2486.02	303.68
2486.24	296.006
2486.47	300.777
2486.7	293.082
2486.93	294.947
2487.16	290.093
2487.39	289.086
2487.62	300.547
2487.85	300.538
2488.08	296.691
2488.31	310.049
2488.53	298.487
2488.76	302.226
2488.99	294.56
2489.22	297.418
2489.45	300.29
2489.68	297.437
2489.91	297.454
2490.14	290.77
2490.37	300.338
2490.59	285.035
2490.82	302.249
2491.05	294.583
2491.28	293.595
2491.51	302.16
2491.74	292.549
2491.97	292.483
2492.2	304.799
2492.43	291.292
2492.65	298.812
2492.88	301.536
2493.11	292.781
2493.34	293.651
2493.57	290.798
2493.8	306.062
2494.03	294.845
2494.25	296.338
2494.48	294.483
2494.71	297.223
2494.94	298.219
2495.17	295.36
2495.4	301.887
2495.63	297.614
2495.86	301.338
2496.08	294.651
2496.31	296.412
2496.54	297.264
2496.77	298.156
2497	299.992
2497.23	301.791
2497.46	294.986
2497.69	292.098
2497.91	295.945
2498.14	291.239
2498.37	297.954
2498.6	294.201
2498.83	294.261
2499.06	293.354
2499.28	302.911
2499.51	294.34
2499.74	294.294
2499.97	294.214
2500.2	302.614
2500.43	299.654
2500.66	288.152
2500.88	290.924
2501.11	296.542
2501.34	297.415
2501.57	294.503
2501.8	301.099
2502.03	293.456
2502.25	307.666
2502.48	291.5
2502.71	295.254
2502.94	301.876
2503.17	288.614
2503.4	288.591
2503.62	296.147
2503.85	290.403
2504.08	288.452
2504.31	292.203
2504.54	292.155
2504.77	294.908
2504.99	295.77
2505.22	304.274
2505.45	302.437
2505.68	295.912
2505.91	299.885
2506.14	308.656
2506.36	295.521
2506.59	291.58
2506.82	294.234
2507.05	300.865
2507.28	291.375
2507.5	289.492
2507.73	299.008
2507.96	294.286
2508.19	295.254
2508.42	300.009
2508.64	295.26
2508.87	290.498
2509.1	297.119
2509.33	301.828
2509.56	301.757
2509.79	297.882
2510.01	302.539
2510.24	296.743
2510.47	297.564
2510.7	294.577
2510.92	301.043
2511.15	291.447
2511.38	292.295
2511.61	292.222
2511.84	296.906
2512.06	294.992
2512.29	287.42
2512.52	292.146
2512.75	294.038
2512.98	293.098
2513.2	299.764
2513.43	296.046
2513.66	289.488
2513.89	297.081
2514.11	293.261
2514.34	288.5
2514.57	304.547
2514.8	295.034
2515.03	297.772
2515.26	292.945
2515.48	293.79
2515.71	288.019
2515.94	302.067
2516.17	287.785
2516.39	290.489
2516.62	297.003
2516.85	289.381
2517.08	295.895
2517.3	299.584
2517.53	297.633
2517.76	296.64
2517.99	297.526
2518.21	289.936
2518.44	287.04
2518.67	296.426
2518.9	294.541
2519.13	294.553
2519.35	298.338
2519.58	298.369
2519.81	296.55
2520.04	288.144
2520.26	290.087
2520.49	292.033
2520.72	298.698
2520.95	297.775
2521.17	297.784
2521.4	290.236
2521.63	287.398
2521.86	287.325
2522.08	288.137
2522.31	297.507
2522.54	294.635
2522.77	288.965
2522.99	299.297
2523.22	302.102
2523.45	295.504
2523.68	294.573
2523.9	296.433
2524.13	289.805
2524.36	288.841
2524.58	301.989
2524.81	288.797
2525.04	298.144
2525.27	298.975
2525.49	296.023
2525.72	298.698
2525.95	295.782
2526.18	305.078
2526.4	304.046
2526.63	293.655
2526.86	308.654
2527.09	289.87
2527.31	289.855
2527.54	306.736
2527.77	304.871
2527.99	283.319
2528.22	297.427
2528.45	289.009
2528.68	293.737
2528.9	291.904
2529.13	288.194
2529.36	303.234
2529.58	295.723
2529.81	290.083
2530.04	291.956
2530.27	299.458
2530.49	290.988
2530.72	286.252
2530.95	290.892
2531.18	293.676
2531.4	294.573
2531.63	288.892
2531.86	289.785
2532.08	293.504
2532.31	296.252
2532.54	300.853
2532.76	297.061
2532.99	283.916
2533.22	288.603
2533.45	297.997
2533.67	294.282
2533.9	297.146
2534.13	297.169
2534.35	293.414
2534.58	288.667
2534.81	295.176
2535.03	305.442
2535.26	293.237
2535.49	299.788
2535.71	292.291
2535.94	289.478
2536.17	291.346
2536.4	288.516
2536.62	295.967
2536.85	286.552
2537.08	295.885
2537.3	293.042
2537.53	288.315
2537.76	292.01
2537.98	291.021
2538.21	290.95
2538.44	294.621
2538.66	297.36
2538.89	293.551
2539.12	288.792
2539.34	300.919
2539.57	281.245
2539.8	296.153
2540.02	296.12
2540.25	291.428
2540.48	291.418
2540.7	288.618
2540.93	291.437
2541.16	298.959
2541.38	289.714
2541.61	292.576
2541.84	291.666
2542.06	299.171
2542.29	304.809
2542.52	289.876
2542.74	290.829
2542.97	295.527
2543.2	293.648
2543.42	294.551
2543.65	293.576
2543.88	290.716
2544.1	297.206
2544.33	294.366
2544.55	294.344
2544.78	289.686
2545.01	293.431
2545.23	287.83
2545.46	294.379
2545.69	300.929
2545.91	293.456
2546.14	299.029
2546.37	287.713
2546.59	295.174
2546.82	292.364
2547.05	296.102
2547.27	305.449
2547.5	288.648
2547.73	298.01
2547.95	293.36
2548.18	289.638
2548.4	294.326
2548.63	291.563
2548.86	294.417
2549.08	298.196
2549.31	292.628
2549.54	291.739
2549.76	296.471
2549.99	288.123
2550.21	291.007
2550.44	292.938
2550.67	292.05
2550.89	293.02
2551.12	296.801
2551.34	293.113
2551.57	291.292
2551.8	297.887
2552.02	300.724
2552.25	295.116
2552.48	281.99
2552.7	288.517
2552.93	299.722
2553.15	293.138
2553.38	295.926
2553.61	297.784
2553.83	292.155
2554.06	291.213
2554.28	297.771
2554.51	292.166
2554.74	296.869
2554.96	290.341
2555.19	303.498
2555.42	292.325
2555.64	294.287
2555.87	290.638
2556.09	294.485
2556.32	291.762
2556.55	293.727
2556.77	293.801
2557	296.668
2557.22	302.315
2557.45	301.376
2557.67	292.943
2557.9	293.919
2558.13	300.519
2558.35	295.832
2558.58	293.02
2558.8	293.018
2559.03	301.461
2559.26	292.995
2559.48	304.248
2559.71	294.837
2559.93	298.568
2560.16	301.364
2560.39	292.906
2560.61	291.975
2560.84	286.351
2561.06	294.809
2561.29	297.639
2561.51	291.089
2561.74	288.302
2561.96	306.18
2562.19	292.126
2562.42	297.813
2562.64	292.26
2562.87	302.705
2563.09	287.762
2563.32	300.085
2563.55	298.301
2563.77	298.398
2564	296.643
2564.22	298.65
2564.45	294.032
2564.67	297.87
2564.9	296.971
2565.12	296.049
2565.35	307.367
2565.58	294.145
2565.8	296.957
2566.03	294.125
2566.25	291.293
2566.48	292.237
2566.7	302.627
2566.93	293.226
2567.15	295.122
2567.38	296.062
2567.61	296.053
2567.83	292.27
2568.06	298.859
2568.28	296.977
2568.51	298.875
2568.73	297.951
2568.96	299.859
2569.18	289.497
2569.41	298.945
2569.63	288.619
2569.86	290.577
2570.08	294.409
2570.31	291.636
2570.53	300.203
2570.76	288.962
2570.99	300.409
2571.21	293.937
2571.44	296.906
2571.66	298.918
2571.89	289.565
2572.11	295.341
2572.34	299.215
2572.56	288.876
2572.79	297.463
2573.01	288.042
2573.24	301.371
2573.46	306.176
2573.69	298.619
2573.91	310.057
2574.14	297.646
2574.36	290.01
2574.59	291.846
2574.81	296.535
2575.04	303.16
2575.26	302.233
2575.49	298.567
2575.71	300.576
2575.94	298.731
2576.16	296.86
2576.39	295.942
2576.61	300.727
2576.84	296.991
2577.06	295.167
2577.29	298.1
2577.52	297.243
2577.74	291.637
2577.96	292.681
2578.19	298.474
2578.42	295.7
2578.64	294.807
2578.86	295.834
2579.09	295.931
2579.31	293.182
2579.54	291.364
2579.77	291.422
2579.99	304.801
2580.21	301.992
2580.44	297.244
2580.66	301.077
2580.89	298.239
2581.11	302.075
2581.34	298.293
2581.56	308.821
2581.79	298.401
2582.01	296.515
2582.24	295.561
2582.46	299.374
2582.69	294.616
2582.91	298.464
2583.14	298.474
2583.36	300.406
2583.59	287.069
2583.81	300.426
2584.04	302.324
2584.26	295.658
2584.49	296.668
2584.71	302.447
2584.94	292.97
2585.16	296.882
2585.38	289.341
2585.61	289.429
2585.83	297.178
2586.06	304.926
2586.28	304.049
2586.51	295.524
2586.73	307.945
2586.96	293.736
2587.18	294.835
2587.41	293.076
2587.63	301.894
2587.86	308.725
2588.08	308.828
2588.3	299.31
2588.53	298.385
2588.75	302.938
2588.98	298.148
2589.2	293.652
2589.43	297.502
2589.65	303.268
2589.88	299.429
2590.1	297.507
2590.32	293.664
2590.55	297.497
2590.77	304.21
2591	296.527
2591.22	294.61
2591.45	307.097
2591.67	299.459
2591.9	291.817
2592.12	292.818
2592.34	301.517
2592.57	296.776
2592.79	297.805
2593.02	308.455
2593.24	298.953
2593.47	307.653
2593.69	301.944
2593.91	303.939
2594.14	302.109
2594.36	302.191
2594.59	303.2
2594.81	294.563
2595.04	298.418
2595.26	298.44
2595.48	305.199
2595.71	303.297
2595.93	294.657
2596.16	302.4
2596.38	303.546
2596.6	294.153
2596.83	298.241
2597.05	307.162
2597.28	307.791
2597.5	307.976
2597.73	305.047
2597.95	305.87
2598.17	306.731
2598.4	296.051
2598.62	299.952
2598.85	297.132
2599.07	299.175
2599.29	300.227
2599.52	306.094
2599.74	309.07
2599.97	306.218
2600.19	306.115
2600.41	295.384
2600.64	301.357
2600.86	297.622
2601.09	307.512
2601.31	303.734
2601.53	311.541
2601.76	300.94
2601.98	305.8
2602.21	307.732
2602.43	300.941
2602.65	300.926
2602.88	301.881
2603.1	295.102
2603.33	306.729
2603.55	299.027
2603.77	303.872
2604	300.952
2604.22	303.84
2604.45	304.822
2604.67	300.981
2604.89	301.989
2605.12	300.09
2605.34	303.022
2605.56	304.008
2605.79	304.018
2606.01	304.985
2606.24	301.106
2606.46	301.106
2606.68	298.206
2606.91	302.104
2607.13	305.065
2607.35	295.454
2607.58	306.199
2607.8	299.515
2608.02	299.613
2608.25	307.485
2608.47	303.678
2608.7	297.92
2608.92	307.675
2609.14	305.767
2609.37	303.849
2609.59	307.746
2609.81	300.974
2610.04	301.013
2610.26	298.13
2610.48	300.076
2610.71	307.863
2610.93	309.814
2611.15	307.868
2611.38	302.992
2611.6	305.879
2611.83	297.095
2612.05	302.853
2612.27	300.865
2612.5	299.875
2612.72	299.879
2612.94	309.581
2613.17	291.116
2613.39	302.759
2613.61	303.766
2613.84	300.923
2614.06	305.882
2614.28	308.908
2614.51	307.077
2614.73	308.172
2614.95	317.053
2615.18	300.602
2615.4	298.717
2615.62	305.565
2615.85	309.475
2616.07	294.921
2616.29	302.743
2616.52	308.615
2616.74	303.776
2616.96	307.699
2617.19	307.729
2617.41	308.723
2617.63	299.962
2617.86	301.946
2618.08	303.997
2618.3	307.882
2618.53	297.13
2618.75	306.817
2618.97	296.02
2619.19	302.74
2619.42	306.538
2619.64	302.536
2619.87	311.127
2620.09	296.411
2620.31	306.063
2620.53	307
2620.76	297.286
2620.98	304.183
2621.2	293.679
2621.43	308.346
2621.65	307.457
2621.87	321.18
2622.1	302.774
2622.32	300.876
2622.54	300.92
2622.76	297.995
2622.99	305.73
2623.21	307.676
2623.43	304.783
2623.66	305.791
2623.88	308.735
2624.1	302.904
2624.32	310.694
2624.55	295.101
2624.77	295.103
2624.99	305.845
2625.22	305.861
2625.44	301.014
2625.66	294.23
2625.89	311.805
2626.11	305.022
2626.33	311.882
2626.55	300.226
2626.78	302.215
2627	303.228
2627.22	312.014
2627.45	316.892
2627.67	308.135
2627.89	299.368
2628.11	308.139
2628.34	308.12
2628.56	292.484
2628.78	311.926
2629	304.078
2629.23	308.928
2629.45	304.054
2629.67	306.012
2629.9	302.131
2630.12	307.026
2630.34	318.743
2630.56	305.12
2630.79	310.022
2631.01	302.266
2631.23	315.974
2631.45	308.19
2631.68	300.39
2631.9	302.348
2632.12	306.235
2632.34	293.532
2632.57	313.034
2632.79	304.258
2633.01	294.508
2633.23	302.304
2633.46	311.067
2633.68	296.414
2633.9	309.027
2634.12	306.029
2634.35	306.902
2634.57	306.79
2634.79	297.919
2635.01	307.551
2635.24	310.371
2635.46	295.762
2635.68	305.643
2635.9	299.986
2636.13	301.079
2636.35	302.153
2636.57	308.084
2636.79	301.186
2637.02	303.961
2637.24	304.868
2637.46	309.537
2637.68	306.463
2637.91	305.537
2638.13	303.636
2638.35	312.413
2638.57	298.809
2638.79	304.677
2639.02	308.604
2639.24	308.636
2639.46	297.966
2639.68	310.649
2639.91	304.846
2640.13	307.848
2640.35	298.191
2640.57	305.111
2640.8	308.072
2641.02	300.223
2641.24	311.626
2641.46	298.49
2641.68	297.984
2641.91	299.633
2642.13	298.615
2642.35	301.504
2642.57	303.493
2642.79	305.567
2643.02	299.962
2643.24	305.778
2643.46	303.709
2643.68	309.518
2643.9	297.805
2644.13	300.625
2644.35	301.503
2644.57	296.594
2644.79	312.067
2645.01	300.407
2645.24	307.156
2645.46	297.431
2645.68	295.453
2645.9	299.284
2646.13	306.037
2646.35	301.184
2646.57	302.135
2646.79	295.335
2647.01	304.027
2647.23	300.12
2647.46	304.905
2647.68	303.859
2647.9	298.9
2648.12	297.796
2648.34	300.585
2648.57	305.332
2648.79	303.342
2649.01	304.277
2649.23	309.073
2649.45	295.514
2649.67	308.038
2649.9	298.337
2650.12	302.155
2650.34	302.143
2650.56	300.229
2650.78	294.461
2651	300.262
2651.23	303.073
2651.45	301.987
2651.67	300.969
2651.89	302.871
2652.11	303.803
2652.34	306.662
2652.56	293.134
2652.78	300.841
2653	307.589
2653.22	301.787
2653.44	296.937
2653.66	301.709
2653.89	294.918
2654.11	303.562
2654.33	301.593
2654.55	295.751
2654.77	309.144
2655	299.428
2655.22	298.415
2655.44	299.349
2655.66	304.144
2655.88	301.241
2656.1	304.136
2656.32	292.635
2656.55	295.582
2656.77	301.4
2656.99	296.607
2657.21	301.435
2657.43	306.253
2657.65	296.631
2657.87	304.333
2658.1	304.294
2658.32	306.144
2658.54	294.497
2658.76	297.285
2658.98	302.949
2659.2	298.043
2659.42	297.917
2659.65	299.737
2659.87	296.804
2660.09	297.749
2660.31	290.089
2660.53	303.56
2660.75	292.019
2660.97	301.588
2661.19	298.666
2661.42	300.532
2661.64	301.392
2661.86	307.013
2662.08	301.113
2662.3	299.049
2662.52	294.111
2662.74	302.58
2662.96	297.635
2663.19	299.446
2663.41	297.47
2663.63	295.537
2663.85	301.262
2664.07	299.316
2664.29	297.371
2664.51	301.166
2664.73	305.92
2664.95	299.214
2665.18	298.253
2665.4	305.896
2665.62	293.457
2665.84	301.082
2666.06	287.674
2666.28	303.89
2666.5	294.301
2666.72	310.515
2666.94	302.85
2667.16	305.673
2667.39	303.703
2667.61	305.547
2667.83	299.747
2668.05	299.672
2668.27	299.573
2668.49	291.855
2668.71	292.738
2668.93	290.799
2669.15	293.657
2669.38	294.617
2669.6	292.721
2669.82	296.545
2670.04	293.7
2670.26	291.816
2670.48	293.745
2670.7	309.953
2670.92	298.471
2671.14	303.181
2671.36	299.311
2671.58	293.543
2671.8	296.367
2672.02	295.35
2672.25	300.982
2672.47	295.182
2672.69	295.092
2672.91	291.191
2673.13	293.946
2673.35	291.004
2673.57	302.335
2673.79	299.436
2674.01	293.795
2674.23	296.681
2674.45	300.473
2674.67	294.763
2674.89	298.607
2675.11	297.833
2675.34	302.815
2675.56	302.851
2675.78	298.71
2676	299.268
2676.22	294.436
2676.44	297.214
2676.66	296.207
2676.88	297.11
2677.1	295.173
2677.32	295.138
2677.54	296.999
2677.76	293.164
2677.98	293.121
2678.2	300.662
2678.42	312.94
2678.65	297.718
2678.87	294.824
2679.09	299.509
2679.31	291.892
2679.53	287.155
2679.75	294.749
2679.97	299.475
2680.19	302.259
2680.41	295.581
2680.63	300.313
2680.85	297.499
2681.07	298.492
2681.29	295.672
2681.51	291.883
2681.73	298.512
2681.95	296.603
2682.17	295.598
2682.39	297.377
2682.61	301.885
2682.83	295.217
2683.05	300.627
2683.27	297.887
2683.49	297.556
2683.71	295.695
2683.93	298.188
2684.15	297.246
2684.37	290.176
2684.59	298.858
2684.81	289.719
2685.03	294.716
2685.25	299.913
2685.48	294.462
2685.7	298.157
2685.92	295.883
2686.14	300.424
2686.36	297.966
2686.58	301.18
2686.8	292.879
2687.02	297.714
2687.24	296.84
2687.46	293.654
2687.68	291.634
2687.9	294.841
2688.12	294.626
2688.34	295.837
2688.56	298.968
2688.78	292.736
2689	297.507
2689.22	297.454
2689.44	299.894
2689.66	297.947
2689.88	293.167
2690.1	299.585
2690.32	295.765
2690.54	288.02
2690.76	299.242
2690.98	293.172
2691.2	293.658
2691.42	290.346
2691.64	291.678
2691.86	292.904
2692.08	299.45
2692.3	294.25
2692.52	296.017
2692.74	298.204
2692.96	293.873
2693.18	290.791
2693.4	295.264
2693.62	294.52
2693.84	289.251
2694.06	292.5
2694.28	297.733
2694.49	290.672
2694.71	299.986
2694.93	295.812
2695.15	298.106
2695.37	292.121
2695.59	295.671
2695.81	297.204
2696.03	294.855
2696.25	293.061
2696.47	296.175
2696.69	302.319
2696.91	299.284
2697.13	292.231
2697.35	290.549
2697.57	295.041
2697.79	294.088
2698.01	293.553
2698.23	291.336
2698.45	291.493
2698.67	295.216
2698.89	294.299
2699.11	291.591
2699.33	291.551
2699.55	290.358
2699.77	289.908
2699.99	289.668
2700.21	292.868
2700.43	291.605
2700.64	297.587
2700.86	293.198
2701.08	292.167
2701.3	292.899
2701.52	293.726
2701.74	295.376
2701.96	293.395
2702.18	295.533
2702.4	294.6
2702.62	291.315
2702.84	291.799
2703.06	289.988
2703.28	300.99
2703.5	297.125
2703.72	295.369
2703.94	295.193
2704.15	292.845
2704.37	295.386
2704.59	296.382
2704.81	291.816
2705.03	283.107
2705.25	291.466
2705.45	300.681
2705.67	295.967
2705.9	298.791
2706.12	296.907
2706.34	286.555
2706.56	296.88
2706.78	290.316
2707.01	289.394
2707.23	292.207
2707.45	296.869
2707.67	298.695
2707.9	289.242
2708.12	292.931
2708.34	282.589
2708.56	300.466
2708.78	289.228
2709.01	284.561
2709.23	286.468
2709.45	296.827
2709.67	292.155
2709.89	292.178
2710.12	301.59
2710.34	295.021
2710.56	294.088
2710.78	295.03
2711	287.488
2711.23	293.071
2711.45	293.943
2711.67	294.773
2711.89	292.824
2712.11	291.815
2712.34	290.806
2712.56	291.634
2712.78	296.252
2713	286.888
2713.22	285.987
2713.45	288.859
2713.67	296.434
2713.89	296.529
2714.11	296.664
2714.33	288.321
2714.56	291.229
2714.78	294.116
2715	290.404
2715.22	286.665
2715.44	286.67
2715.66	291.367
2715.89	287.551
2716.11	300.625
2716.33	306.207
2716.55	293.957
2716.77	292.049
2716.99	292.959
2717.22	283.546
2717.44	291.983
2717.66	285.418
2717.88	286.38
2718.1	297.674
2718.33	291.137
2718.55	299.637
2718.77	290.298
2718.99	300.698
2719.21	304.533
2719.43	289.578
2719.66	297.196
2719.88	288.831
2720.1	296.452
2720.32	293.691
2720.54	294.678
2720.76	297.544
2720.98	297.575
2721.21	294.766
2721.43	295.691
2721.65	304.114
2721.87	300.303
2722.09	297.453
2722.32	288.935
2722.54	303
2722.76	296.373
2722.98	293.522
2723.2	300.098
2723.42	297.276
2723.64	292.615
2723.86	295.505
2724.09	292.751
2724.31	286.225
2724.53	285.35
2724.75	291.043
2724.97	298.582
2725.19	290.107
2725.42	291.041
2725.64	297.586
2725.86	300.357
2726.08	294.676
2726.3	290.893
2726.52	296.535
2726.74	292.775
2726.96	308.797
2727.19	289.05
2727.41	288.135
2727.63	292.872
2727.85	294.788
2728.07	293.88
2728.29	294.855
2728.51	298.656
2728.74	295.856
2728.96	292.112
2729.18	298.678
2729.4	293.049
2729.62	294.978
2729.84	297.852
2730.06	296.027
2730.28	293.283
2730.51	294.32
2730.73	292.514
2730.95	300.133
2731.17	286.041
2731.39	302.119
2731.61	298.357
2731.83	293.633
2732.05	295.506
2732.27	294.542
2732.49	299.236
2732.72	292.591
2732.94	292.549
2733.16	294.366
2733.38	296.201
2733.6	292.388
2733.82	298.963
2734.04	295.173
2734.26	290.456
2734.48	291.427
2734.71	295.259
2734.93	291.576
2735.15	292.612
2735.37	290.807
2735.59	302.224
2735.81	301.359
2736.03	291.021
2736.25	297.672
2736.47	289.183
2736.69	290.141
2736.91	299.621
2737.14	296.805
2737.36	297.762
2737.58	296.816
2737.8	297.75
2738.02	287.323
2738.24	300.536
2738.46	291.103
2738.68	291.142
2738.9	292.151
2739.12	292.201
2739.34	293.141
2739.56	295.943
2739.79	295.912
2740.01	292.141
2740.23	298.701
2740.45	288.174
2740.67	302.163
2740.89	290.828
2741.11	299.359
2741.33	299.513
2741.55	293.001
2741.77	294.949
2741.99	288.429
2742.21	293.233
2742.43	298.966
2742.65	294.293
2742.88	293.412
2743.1	300.117
2743.32	293.576
2743.54	310.716
2743.76	301.332
2743.98	289.112
2744.2	286.362
2744.42	291.172
2744.64	303.551
2744.86	290.297
2745.08	295.046
2745.3	302.644
2745.52	295.998
2745.74	294.976
2745.96	292.089
2746.18	292.983
2746.4	288.204
2746.62	300.459
2746.84	290.01
2747.06	289.009
2747.29	301.314
2747.51	291.849
2747.73	292.861
2747.95	295.74
2748.17	292.927
2748.39	302.424
2748.61	301.484
2748.83	295.809
2749.05	297.715
2749.27	290.118
2749.49	301.465
2749.71	289.122
2749.93	293.859
2750.15	300.562
2750.37	302.519
2750.59	294.964
2750.81	298.804
2751.03	296.021
2751.25	302.73
2751.47	294.261
2751.69	290.544
2751.91	290.629
2752.13	293.575
2752.35	298.407
2752.57	288.971
2752.79	301.379
2753.01	301.407
2753.23	291.891
2753.45	294.729
2753.67	296.608
2753.9	296.581
2754.11	297.503
2754.33	297.474
2754.55	306.949
2754.77	295.51
2755	298.324
2755.22	300.202
2755.44	297.332
2755.66	296.372
2755.88	295.422
2756.1	296.4
2756.32	302.164
2756.54	296.546
2756.76	299.448
2756.98	293.812
2757.2	292.898
2757.42	289.119
2757.64	299.591
2757.86	298.648
2758.08	297.71
2758.3	302.492
2758.51	292.972
2758.74	293.884
2758.96	296.717
2759.18	298.616
2759.4	297.695
2759.61	292.07
2759.83	298.636
2760.05	303.342
2760.28	296.66
2760.5	309.98
2760.71	292.184
2760.93	298.025
2761.15	298.953
2761.37	297.864
2761.59	298.687
2761.81	294.758
2762.03	293.784
2762.25	292.806
2762.47	294.754
2762.69	294.86
2762.91	297.782
2763.13	303.542
2763.35	293.994
2763.57	299.704
2763.79	304.549
2764.01	300.926
2764.23	295.383
2764.45	298.073
2764.67	297.986
2764.89	297.03
2765.11	293.279
2765.33	293.273
2765.55	301.811
2765.77	294.163
2765.99	294.145
2766.21	300.782
2766.43	292.161
2766.65	300.659
2766.87	300.592
2767.09	291.982
2767.31	296.699
2767.53	299.518
2767.75	289.02
2767.96	299.444
2768.18	296.574
2768.4	296.572
2768.62	304.199
2768.84	293.76
2769.06	298.516
2769.28	295.675
2769.5	297.609
2769.72	294.807
2769.94	310.1
2770.16	302.503
2770.38	303.465
2770.6	296.815
2770.82	296.848
2771.04	292.128
2771.26	300.763
2771.48	300.85
2771.7	297.155
2771.92	301.179
2772.13	295.6
2772.35	298.575
2772.57	298.605
2772.79	298.565
2773.01	302.434
2773.23	298.514
2773.45	299.178
2773.67	301.955
2773.89	295.183
2774.11	299.801
2774.33	297.143
2774.55	294.376
2774.77	296.283
2774.98	298.171
2775.2	293.316
2775.42	299.909
2775.64	301.737
2775.86	304.522
2776.08	295.927
2776.3	296.857
2776.52	296.841
2776.74	291.122
2776.96	295.868
2777.18	295.857
2777.4	298.699
2777.61	294.905
2777.83	300.625
2778.05	290.168
2778.27	293.975
2778.49	296.834
2778.71	302.565
2778.93	297.798
2779.15	301.587
2779.37	299.601
2779.59	306.138
2779.81	299.422
2780.02	301.283
2780.24	297.464
2780.46	294.628
2780.68	287.967
2780.9	300.322
2781.12	295.604
2781.34	303.236
2781.56	294.694
2781.78	292.798
2782	292.793
2782.21	296.596
2782.43	291.846
2782.65	284.203
2782.87	304.013
2783.09	294.474
2783.31	291.547
2783.53	291.434
2783.75	307.53
2783.97	296.128
2784.18	294.233
2784.4	291.374
2784.62	299.933
2784.84	296.189
2785.06	291.511
2785.28	294.426
2785.5	303.041
2785.72	292.651
2785.93	305.059
2786.15	298.429
2786.37	298.421
2786.59	299.39
2786.81	297.469
2787.03	305.958
2787.25	296.372
2787.47	297.232
2787.68	296.167
2787.9	306.476
2788.12	297.846
2788.34	301.598
2788.56	293.972
2788.78	293.937
2789	299.605
2789.21	288.202
2789.43	292.899
2789.65	298.546
2789.87	300.407
2790.09	301.325
2790.31	288.987
2790.52	305.082
2790.74	295.592
2790.96	298.399
2791.18	297.381
2791.4	289.748
2791.62	299.174
2791.84	296.303
2792.06	294.4
2792.27	301.046
2792.49	292.592
2792.71	299.272
2792.93	295.51
2793.15	296.461
2793.37	288.874
2793.58	311.577
2793.8	296.383
2794.02	299.182
2794.24	296.299
2794.46	298.882
2794.68	303.625
2794.89	295.444
2795.11	288.826
2795.33	299.159
2795.55	298.172
2795.77	290.571
2795.99	296.223
2796.2	294.301
2796.42	299.946
2796.64	295.184
2796.86	300.834
2797.08	290.411
2797.3	297.961
2797.51	293.237
2797.73	290.384
2797.95	290.345
2798.17	303.509
2798.39	300.634
2798.6	300.647
2798.82	289.33
2799.04	295.038
2799.26	301.696
2799.48	303.635
2799.7	297.096
2799.91	293.372
2800.13	301.835
2800.35	295.109
2800.57	293.135
2800.79	295.839
2801	288.24
2801.22	298.167
2801.44	293.241
2801.66	299.671
2801.88	289.258
2802.1	291.156
2802.31	295.105
2802.53	298.935
2802.75	296.977
2802.97	297.89
2803.19	294.986
2803.4	289.255
2803.62	303.355
2803.84	302.334
2804.06	297.547
2804.27	291.821
2804.49	289.875
2804.71	296.427
2804.93	291.666
2805.15	297.3
2805.36	292.579
2805.58	292.601
2805.8	292.633
2806.02	300.238
2806.24	301.181
2806.45	309.661
2806.67	305.88
2806.89	300.211
2807.11	303.025
2807.33	298.291
2807.54	291.671
2807.76	303.928
2807.98	290.701
2808.2	301.072
2808.41	299.172
2808.63	293.493
2808.85	297.252
2809.07	289.686
2809.28	290.613
2809.5	286.82
2809.72	299.065
2809.94	299.989
2810.16	286.762
2810.37	296.169
2810.59	288.574
2810.81	305.479
2811.03	297.88
2811.24	291.215
2811.46	296.789
2811.68	288.243
2811.9	310.816
2812.11	291.004
2812.33	291.88
2812.55	301.241
2812.77	300.288
2812.98	301.231
2813.2	292.775
2813.42	298.456
2813.64	298.565
2813.86	298.603
2814.07	296.632
2814.29	304.061
2814.51	293.679
2814.73	296.538
2814.94	292.804
2815.16	295.587
2815.38	292.684
2815.59	288.806
2815.81	297.285
2816.03	292.62
2816.25	293.532
2816.46	298.194
2816.68	286.862
2816.9	301.87
2817.12	294.299
2817.34	294.249
2817.55	292.252
2817.77	294.062
2817.99	303.373
2818.2	301.422
2818.42	298.555
2818.64	291.009
2818.86	294.722
2819.07	299.404
2819.29	293.791
2819.51	295
2819.72	297.009
2819.94	302.65
2820.16	302.642
2820.38	299.742
2820.59	295.97
2820.81	292.966
2821.03	289.792
2821.25	298.388
2821.46	297.402
2821.68	293.852
2821.9	300.417
2822.11	290.927
2822.33	288.881
2822.55	295.102
2822.77	293.727
2822.98	294.527
2823.2	295.366
2823.42	289.643
2823.63	298.875
2823.85	289.507
2824.07	285.883
2824.28	298.197
2824.5	299.121
2824.72	297.179
2824.94	300.859
2825.15	297.182
2825.37	297.169
2825.59	290.565
2825.81	293.376
2826.02	288.661
2826.24	295.28
2826.46	299.132
2826.67	299.209
2826.89	297.313
2827.11	298.192
2827.32	291.049
2827.54	306.129
2827.76	291.889
2827.97	287.984
2828.19	295.375
2828.41	300.031
2828.62	295.33
2828.84	292.466
2829.06	291.492
2829.27	297.081
2829.49	298.939
2829.71	299.892
2829.93	303.664
2830.14	287.741
2830.36	295.258
2830.58	287.8
2830.79	294.386
2831.01	290.648
2831.23	295.332
2831.44	297.186
2831.66	282.145
2831.88	291.418
2832.09	299.802
2832.31	296.949
2832.53	295.956
2832.74	289.362
2832.96	287.461
2833.18	297.74
2833.39	303.347
2833.61	295.86
2833.83	295.884
2834.04	288.417
2834.26	299.657
2834.48	299.646
2834.69	298.757
2834.91	291.324
2835.13	292.329
2835.34	298.002
2835.56	297.1
2835.78	286.817
2835.99	289.657
2836.21	298.127
2836.43	295.353
2836.64	304.761
2836.86	293.519
2837.07	295.402
2837.29	288.821
2837.51	297.206
2837.72	290.601
2837.94	296.215
2838.16	295.267
2838.37	290.574
2838.59	292.446
2838.81	299.006
2839.02	299.01
2839.24	295.292
2839.46	297.216
2839.67	293.555
2839.89	299.299
2840.11	298.493
2840.32	290.148
2840.54	300.644
2840.75	293.139
2840.97	296.567
2841.19	299.868
2841.4	299.546
2841.62	296.674
2841.84	295.852
2842.05	297.033
2842.27	300.131
2842.49	288.129
2842.7	294.719
2842.92	298.478
2843.13	297.484
2843.35	297.389
2843.57	298.309
2843.78	302.075
2844	306.744
2844.22	298.281
2844.43	301.08
2844.65	291.695
2844.86	296.335
2845.08	295.38
2845.3	291.654
2845.51	304.815
2845.73	291.74
2845.95	302.149
2846.16	301.327
2846.38	300.545
2846.59	291.248
2846.81	300.673
2847.03	295.968
2847.24	291.233
2847.46	292.105
2847.67	292.044
2847.89	301.304
2848.11	294.672
2848.32	298.398
2848.54	295.568
2848.75	290.877
2848.97	307.822
2849.19	290.964
2849.4	305.072
2849.62	293.844
2849.83	294.821
2850.05	298.609
2850.27	297.719
2850.48	294.962
2850.7	295.947
2850.91	302.554
2851.13	286.597
2851.34	299.774
2851.56	296.957
2851.78	311.021
2851.99	301.581
2852.21	299.69
2852.42	301.569
2852.64	297.807
2852.85	294.071
2853.07	296.917
2853.29	292.23
2853.5	299.75
2853.72	296.015
2853.93	300.734
2854.15	294.174
2854.36	298.898
2854.58	295.162
2854.8	297.977
2855.01	298.907
2855.23	298.899
2855.44	297.975
2855.66	299.865
2855.87	297.991
2856.09	296.11
2856.31	300.798
2856.52	298.904
2856.74	297.024
2856.95	298.912
2857.17	297.049
2857.38	294.255
2857.6	303.682
2857.82	302.749
2858.03	295.242
2858.25	308.418
2858.46	297.139
2858.68	306.539
2858.89	299.949
2859.11	298.044
2859.33	301.781
2859.54	298.023
2859.76	294.262
2859.97	298.977
2860.19	298.058
2860.4	311.286
2860.62	301.973
2860.83	292.678
2861.05	295.617
2861.26	303.246
2861.48	303.33
2861.7	294.94
2861.91	300.675
2862.13	304.509
2862.34	295.128
2862.56	297.025
2862.77	297.939
2862.99	297.884
2863.2	301.58
2863.42	300.569
2863.63	303.331
2863.85	284.441
2864.06	299.485
2864.28	300.406
2864.49	301.332
2864.71	299.451
2864.93	300.413
2865.14	294.813
2865.36	294.858
2865.57	306.193
2865.79	294.922
2866	304.387
2866.22	303.489
2866.43	298.834
2866.65	292.283
2866.86	297.965
2867.08	297.975
2867.29	295.148
2867.51	292.332
2867.72	298.95
2867.94	298.058
2868.15	305.663
2868.37	301.036
2868.58	304.903
2868.8	298.412
2869.01	304.218
2869.23	311.789
2869.44	299.468
2869.66	301.174
2869.87	288.882
2870.09	303.065
2870.3	307.782
2870.52	291.731
2870.73	294.562
2870.95	297.389
2871.17	301.154
2871.38	307.74
2871.59	298.264
2871.81	302.938
2872.02	300.073
2872.24	303.843
2872.45	315.178
2872.67	295.364
2872.88	300.092
2873.1	291.642
2873.31	306.809
2873.53	296.497
2873.74	297.521
2873.96	297.608
2874.17	305.26
2874.39	300.606
2874.6	300.688
2874.82	302.644
2875.03	300.842
2875.25	304.657
2875.46	310.334
2875.68	289.491
2875.89	312.179
2876.11	304.588
2876.32	309.322
2876.54	292.3
2876.75	299.871
2876.97	309.335
2877.18	302.721
2877.4	306.517
2877.61	303.697
2877.83	298.047
2878.04	298.086
2878.25	302.838
2878.47	298.165
2878.68	311.422
2878.9	300.971
2879.11	301.831
2879.33	303.698
2879.54	298.003
2879.76	301.743
2879.97	301.721
2880.19	295.09
2880.4	298.891
2880.62	299.894
2880.83	303.736
2881.04	295.271
2881.26	305.733
2881.47	302.953
2881.69	303.042
2881.9	302.182
2882.12	298.4
2882.33	299.368
2882.55	298.435
2882.76	294.641
2882.98	301.247
2883.19	305.873
2883.4	304.787
2883.62	300.007
2883.83	309.455
2884.05	300.935
2884.26	298.164
2884.48	297.244
2884.69	299.181
2884.9	296.473
2885.12	292.815
2885.33	318.48
2885.55	297.663
2885.76	306.197
2885.98	305.225
2886.19	294.788
2886.41	299.547
2886.62	295.77
2886.83	305.279
2887.05	304.382
2887.26	310.151
2887.48	299.848
2887.69	299.06
2887.91	305.676
2888.12	303.774
2888.33	301.909
2888.55	297.19
2888.76	306.742
2888.98	300.116
2889.19	300.121
2889.41	299.172
2889.62	304.863
2889.83	307.699
2890.05	300.085
2890.26	293.42
2890.48	306.697
2890.69	295.292
2890.91	301.935
2891.12	292.441
2891.33	292.425
2891.55	300.991
2891.76	299.139
2891.97	302.965
2892.19	298.249
2892.4	292.538
2892.62	298.24
2892.83	298.091
2893.05	307.717
2893.26	294.681
2893.47	303.244
2893.69	304.11
2893.9	294.54
2894.11	306.793
2894.33	291.545
2894.54	305.732
2894.76	299.978
2894.97	298.046
2895.19	305.837
2895.4	300.342
2895.61	303.425
2895.83	317.663
2896.04	296.671
2896.25	310.84
2896.47	298.537
2896.68	292.839
2896.9	303.303
2897.11	306.163
2897.32	303.321
2897.54	306.186
2897.75	296.692
2897.97	294.807
2898.18	301.487
2898.39	302.425
2898.61	292.918
2898.82	303.412
2899.04	311.068
2899.25	299.707
2899.46	297.859
2899.68	302.662
2899.89	296.986
2900.1	303.684
2900.32	302.776
2900.53	307.544
2900.75	298.955
2900.96	298.947
2901.17	302.746
2901.39	303.689
2901.6	306.542
2901.81	302.715
2902.03	306.488
2902.24	293.13
2902.45	301.715
2902.67	303.638
2902.88	297
2903.09	311.316
2903.31	302.798
2903.52	298.108
2903.74	300.066
2903.95	302.012
2904.16	305.854
2904.38	285.869
2904.59	296.373
2904.8	304.019
2905.02	300.241
2905.23	300.257
2905.44	300.225
2905.66	299.224
2905.87	307.727
2906.08	307.658
2906.3	306.652
2906.51	296.137
2906.72	302.775
2906.94	299.902
2907.15	298.933
2907.36	297.002
2907.58	304.625
2907.79	294.182
2908	302.783
2908.22	299.043
2908.43	298.131
2908.65	300.002
2908.86	304.687
2909.07	306.579
2909.29	299.93
2909.5	307.568
2909.71	299.018
2909.92	306.661
2910.14	304.78
2910.35	302.894
2910.57	301
2910.78	305.77
2910.99	306.727
2911.2	302.938
2911.42	306.781
2911.63	300.139
2911.84	293.479
2912.06	300.157
2912.27	294.467
2912.48	299.268
2912.7	299.29
2912.91	308.825
2913.12	310.725
2913.34	307.819
2913.55	303.009
2913.76	302.055
2913.97	313.482
2914.19	306.796
2914.4	298.185
2914.62	296.221
2914.83	307.598
2915.04	299.931
2915.25	315.121
2915.47	316.103
2915.68	304.756
2915.89	302.845
2916.11	306.659
2916.32	308.584
2916.53	305.74
2916.74	298.118
2916.96	306.692
2917.17	302.894
2917.38	303.861
2917.6	300.066
2917.81	297.205
2918.02	302.893
2918.24	301.906
2918.45	301.875
2918.66	303.777
2918.88	306.642
2919.09	299.971
2919.3	308.523
2919.51	305.631
2919.73	297.969
2919.94	310.286
2920.15	310.23
2920.36	307.334
2920.58	299.681
2920.79	295.815
2921	311.935
2921.22	305.26
2921.43	301.428
2921.64	304.25
2921.85	306.112
2922.07	299.408
2922.28	302.219
2922.49	305.04
2922.71	309.774
2922.92	297.426
2923.13	305.034
2923.34	306.939
2923.56	302.203
2923.77	299.359
2923.98	306.958
2924.19	312.65
2924.41	305.983
2924.62	298.368
2924.83	305.957
2925.05	299.302
2925.26	304.055
2925.47	311.657
2925.68	310.7
2925.9	294.538
2926.11	311.629
2926.32	297.359
2926.53	297.339
2926.74	299.265
2926.96	305.916
2927.17	305.899
2927.38	291.617
2927.6	300.121
2927.81	304.844
2928.02	303.902
2928.23	300.081
2928.45	300.966
2928.66	299.04
2928.87	302.817
2929.08	299.06
2929.3	304.82
2929.51	307.828
2929.72	312.851
2929.93	298.782
2930.14	302.685
2930.36	307.099
2930.57	296.13
2930.78	304.95
2930.99	297.442
2931.21	303.264
2931.42	302.27
2931.63	303.267
2931.84	303.191
2932.06	302.181
2932.27	307.783
2932.48	304.808
2932.69	295.306
2932.91	319.069
2933.12	300.103
2933.33	303.927
2933.54	297.303
2933.75	307.778
2933.97	292.613
2934.18	302.093
2934.39	299.205
2934.6	302.967
2934.82	303.885
2935.03	304.754
2935.24	312.279
2935.45	298.933
2935.66	299.844
2935.88	293.187
2936.09	297.002
2936.3	304.594
2936.51	308.401
2936.72	308.413
2936.94	306.565
2937.15	307.551
2937.36	303.774
2937.57	301.863
2937.79	302.808
2938	304.686
2938.21	301.802
2938.42	296.066
2938.63	301.702
2938.85	300.662
2939.06	305.352
2939.27	300.562
2939.48	300.55
2939.69	299.605
2939.91	293.942
2940.12	311.015
2940.33	299.711
2940.54	305.504
2940.75	303.744
2940.97	298.218
2941.18	303.04
2941.39	303.139
2941.6	307.016
2941.81	294.704
2942.02	297.492
2942.24	310.618
2942.45	299.539
2942.66	298.462
2942.87	301.055
2943.08	301.223
2943.29	306.014
2943.51	304.427
2943.72	297.517
2943.93	295.41
2944.14	302.872
2944.35	303.749
2944.57	295.187
2944.78	296.048
2944.99	295.899
2945.2	310.694
2945.41	300.836
2945.63	300.303
2945.84	294.566
2946.05	309.473
2946.26	296.112
2946.47	309.354
2946.68	299.873
2946.89	293.251
2947.11	295.155
2947.32	299.915
2947.53	304.693
2947.74	301.917
2947.95	296.233
2948.17	299.093
2948.38	298.148
2948.59	302.869
2948.8	290.538
2949.01	305.64
2949.22	298.033
2949.43	297.992
2949.65	297.951
2949.86	306.422
2950.07	296.962
2950.28	301.704
2950.49	298.875
2950.7	302.683
2950.92	304.617
2951.13	288.593
2951.34	303.801
2951.55	296.259
2951.76	300.981
2951.97	293.371
2952.18	305.639
2952.4	304.695
2952.61	299.952
2952.82	293.306
2953.03	304.617
2953.24	298.886
2953.45	296.926
2953.66	303.463
2953.87	300.564
2954.09	303.337
2954.3	297.608
2954.51	310.775
2954.72	306.944
2954.93	301.229
2955.14	298.342
2955.35	301.135
2955.56	301.126
2955.78	298.289
2955.99	311.505
2956.2	297.383
2956.41	301.216
2956.62	299.362
2956.83	301.267
2957.04	301.272
2957.25	297.497
2957.47	300.335
2957.68	298.454
2957.89	305.074
2958.1	291.861
2958.31	304.151
2958.52	296.605
2958.73	295.672
2958.94	297.578
2959.16	299.457
2959.37	309.825
2959.58	293.709
2959.79	294.539
2960	303.943
2960.21	300.222
2960.42	295.536
2960.63	295.513
2960.84	303.856
2961.05	302.704
2961.27	298.099
2961.48	301.077
2961.69	288.846
2961.9	297.153
2962.11	292.231
2962.32	305.405
2962.53	293.148
2962.74	297.859
2962.95	297.88
2963.16	297.923
2963.38	295.155
2963.59	297.109
2963.8	300.002
2964.01	295.337
2964.22	300.105
2964.43	303.926
2964.64	286.971
2964.85	301.155
2965.06	293.603
2965.27	298.305
2965.48	305.77
2965.7	301.905
2965.91	302.779
2966.12	303.651
2966.33	292.274
2966.54	292.227
2966.75	295.015
2966.96	301.557
2967.17	296.802
2967.38	298.641
2967.59	293.88
2967.8	290.078
2968.01	290.055
2968.23	307.002
2968.43	292.897
2968.65	300.47
2968.86	296.744
2969.07	287.356
2969.28	300.55
2969.49	296.778
2969.7	295.842
2969.91	289.257
2970.12	301.518
2970.33	292.103
2970.54	291.183
2970.75	301.573
2970.96	299.689
2971.17	295.907
2971.38	307.213
2971.59	291.201
2971.81	297.813
2972.02	299.716
2972.23	300.675
2972.44	295.976
2972.65	296.926
2972.86	294.097
2973.07	296.903
2973.28	307.246
2973.49	299.677
2973.7	296.848
2973.91	300.627
2974.12	299.663
2974.33	298.701
2974.54	288.315
2974.75	299.596
2974.96	299.565
2975.17	304.238
2975.38	298.562
2975.59	286.295
2975.8	291.947
2976.01	300.446
2976.22	299.54
2976.44	293.941
2976.65	297.735
2976.86	290.174
2977.07	301.495
2977.28	298.697
2977.49	293.111
2977.7	298.857
2977.91	296.111
2978.12	300.865
2978.33	291.378
2978.54	303.29
2978.75	297.369
2978.96	294.556
2979.17	303.087
2979.38	292.415
2979.59	299.324
2979.8	295.226
2980.01	297.441
2980.22	306.722
2980.43	288.532
2980.64	310.096
2980.85	297.799
2981.06	290.246
2981.27	296.887
2981.48	296.911
2981.69	302.589
2981.9	287.384
2982.11	291.983
2982.32	304.215
2982.53	289.183
2982.74	298.621
2982.95	295.789
2983.16	293.894
2983.37	293.866
2983.58	294.662
2983.79	297.414
2984	299.281
2984.21	295.499
2984.42	298.299
2984.63	289.809
2984.84	293.554
2985.05	301.07
2985.26	293.54
2985.47	291.665
2985.68	295.457
2985.89	294.561
2986.1	305.892
2986.31	295.57
2986.52	296.541
2986.73	302.22
2986.94	292.834
2987.15	296.612
2987.36	300.375
2987.57	301.328
2987.78	297.588
2987.99	307.99
2988.2	292.961
2988.41	300.529
2988.62	299.593
2988.83	299.605
2989.04	301.504
2989.25	296.793
2989.46	304.323
2989.67	306.199
2989.88	297.716
2990.09	294.881
2990.3	296.754
2990.51	295.804
2990.72	305.233
2990.93	296.789
2991.14	292.115
2991.35	297.8
2991.56	291.231
2991.76	299.746
2991.98	300.711
2992.18	301.656
2992.39	293.162
2992.6	300.684
2992.81	293.12
2993.02	302.516
2993.23	308.139
2993.44	291.151
2993.65	299.615
2993.86	294.906
2994.07	290.198
2994.28	304.35
2994.49	294.963
2994.7	295.016
2994.91	299.795
2995.12	302.7
2995.33	306.553
2995.54	289.653
2995.75	302.939
2995.96	296.409
2996.17	304.007
2996.38	303.089
2996.59	298.386
2996.79	305.013
2997	308.812
2997.21	297.498
2997.42	303.203
2997.63	291.907
2997.84	303.275
2998.05	300.471
2998.26	299.569
2998.47	296.779
2998.68	297.741
2998.89	305.306
2999.1	292.069
2999.31	300.553
2999.52	297.688
2999.73	301.441
2999.94	300.469
