#Acq. time (s)=	30
#Accumulations=	2
#Range (cm-¹)=	1200...2999
#Windows=	5
#Auto scanning=	Off
#Autofocus=	Off
#Macrospot=	Off
#AutoExposure=	Off
#Spike filter=	Multiple accum.
#Delay time (s)=	2
#Binning=	1
#Readout mode=	Signal
#DeNoise=	Off
#ICS correction=	On
#Dark correction=	Off
#Inst. Process=	Off
#Detector Gain=	Best Dynamic
#Detector ADC=	50 kHz EM
#Detector EM gain=	150
#Detector temperature (°C)=	-60.09
#Instrument=	LabRAM HR Evol
#Detector=	SIN-EM FIVIS
#Objective=	x100_VIS_LWD
#Grating=	1800 (450-850nm)
#ND Filter=	100%
#Laser=	532nm_Edge
#Hole=	30.0125
#Temperature=	40
#Range=	Visible
#StageXY=	75x50mm Scan+
#StageZ=	Z motor
#X (µm)=	0
#Y (µm)=	0
#Z (µm)=	80.2
#Full time(mm:ss)=	5:26
#Project=	21_08_11
#Sample=	BU32
#Site=	
#Title=	BU32-B-FF2-FI03-V_1800 (450-850nm)_532nm_Edge_100%_x100_VIS_LWD_H30um_30sX2
#Remark=	
#Date=	13.08.2021 15:49
#Acquired=	13.08.2021 15:49:24
1200.05	327.611
1200.33	323.224
1200.61	329.592
1200.89	321.847
1201.16	333.452
1201.44	326.823
1201.72	329.979
1202	329.057
1202.28	327.358
1202.55	332.917
1202.83	327.323
1203.11	329.242
1203.39	336.588
1203.67	323.569
1203.94	331.086
1204.22	322.536
1204.5	321.402
1204.78	337.403
1205.06	317.93
1205.33	332.815
1205.61	326.216
1205.89	327.135
1206.17	330.198
1206.44	332.186
1206.72	332.055
1207	319.116
1207.28	323.323
1207.55	325.409
1207.83	324.274
1208.11	329.528
1208.39	321.95
1208.67	324.006
1208.94	331.447
1209.22	321.81
1209.5	332.473
1209.78	331.34
1210.05	325.866
1210.33	324.667
1210.61	325.627
1210.89	328.708
1211.16	329.675
1211.44	334.878
1211.72	324.088
1212	331.458
1212.27	330.297
1212.55	329.133
1212.83	323.74
1213.11	324.763
1213.38	332.146
1213.66	323.64
1213.94	325.782
1214.22	331.11
1214.49	330.044
1214.77	322.579
1215.05	328.951
1215.33	320.412
1215.6	327.782
1215.88	324.476
1216.16	334.97
1216.44	327.393
1216.71	324.104
1216.99	330.386
1217.27	326.041
1217.54	322.78
1217.82	320.585
1218.1	325.822
1218.38	327.904
1218.65	319.393
1218.93	323.607
1219.21	321.448
1219.49	326.691
1219.76	319.253
1220.04	326.681
1220.32	329.845
1220.59	322.392
1220.87	322.333
1221.15	315.917
1221.43	323.247
1221.7	323.123
1221.98	324.035
1222.26	334.458
1222.53	322.66
1222.81	328.86
1223.09	328.718
1223.36	323.322
1223.64	315.813
1223.92	328.404
1224.2	323.063
1224.47	324.072
1224.75	320.893
1225.03	332.54
1225.3	330.467
1225.58	326.285
1225.86	330.496
1226.13	328.36
1226.41	342.025
1226.69	322.967
1226.96	329.14
1227.24	323.566
1227.52	333.893
1227.79	323.174
1228.07	318.67
1228.35	327.88
1228.63	327.836
1228.9	321.207
1229.18	321.918
1229.45	326.95
1229.73	335.063
1230.01	321.235
1230.28	327.597
1230.56	322.185
1230.84	329.899
1231.11	318.406
1231.39	322.603
1231.67	321.544
1231.94	324.655
1232.22	325.698
1232.5	323.58
1232.77	327.749
1233.05	321.436
1233.33	325.654
1233.6	322.531
1233.88	321.512
1234.16	325.76
1234.43	330.022
1234.71	326.895
1234.99	330.077
1235.26	329.067
1235.54	324.891
1235.82	319.632
1236.09	326.952
1236.37	325.85
1236.65	328.935
1236.92	324.624
1237.2	331.859
1237.47	328.591
1237.75	325.325
1238.03	331.501
1238.3	330.355
1238.58	335.54
1238.86	320.815
1239.13	334.409
1239.41	333.338
1239.68	327.037
1239.96	327.034
1240.24	315.512
1240.51	327.059
1240.79	323.928
1241.07	322.856
1241.34	332.229
1241.62	325.901
1241.89	326.95
1242.17	326.972
1242.45	325.964
1242.72	322.868
1243	338.591
1243.27	337.542
1243.55	341.757
1243.83	329.177
1244.1	330.204
1244.38	332.269
1244.65	322.77
1244.93	332.117
1245.21	329.912
1245.48	329.799
1245.76	342.308
1246.03	326.58
1246.31	327.625
1246.59	327.621
1246.86	335.968
1247.14	329.678
1247.41	331.741
1247.69	326.396
1247.97	327.368
1248.24	330.488
1248.52	340.963
1248.79	335.759
1249.07	335.742
1249.34	328.407
1249.62	336.777
1249.9	330.44
1250.17	332.446
1250.45	342.822
1250.72	341.709
1251	334.335
1251.27	340.545
1251.55	334.217
1251.83	338.332
1252.1	327.829
1252.38	337.155
1252.65	331.872
1252.93	328.706
1253.2	336.009
1253.48	333.97
1253.76	330.901
1254.03	328.883
1254.31	339.358
1254.58	324.741
1254.86	342.518
1255.13	331.033
1255.41	334.149
1255.68	336.251
1255.96	339.408
1256.23	339.46
1256.51	338.435
1256.79	345.732
1257.06	327.927
1257.34	343.562
1257.61	344.58
1257.89	341.419
1258.16	349.738
1258.44	349.649
1258.71	357.984
1258.99	353.853
1259.27	336.141
1259.54	341.529
1259.82	333.085
1260.09	342.405
1260.37	353.757
1260.64	342.192
1260.92	352.566
1261.19	357.802
1261.47	352.887
1261.74	355.418
1262.02	362.042
1262.29	367.692
1262.57	369.342
1262.84	385.773
1263.12	396.597
1263.39	415.705
1263.67	432.798
1263.94	454.025
1264.22	472.541
1264.49	478.681
1264.77	427.463
1265.04	403.403
1265.32	403.321
1265.59	380.329
1265.87	363.635
1266.14	363.682
1266.42	364.793
1266.7	357.558
1266.97	357.653
1267.24	344.158
1267.52	350.547
1267.79	349.651
1268.07	333.031
1268.35	344.621
1268.62	343.63
1268.89	348.914
1269.17	345.759
1269.44	342.542
1269.72	344.535
1269.99	351.786
1270.27	349.611
1270.54	344.314
1270.82	340.102
1271.09	353.663
1271.37	354.727
1271.64	347.478
1271.92	350.716
1272.19	343.516
1272.47	338.372
1272.74	352.083
1273.02	341.696
1273.29	341.785
1273.57	346.071
1273.84	346.132
1274.12	349.299
1274.39	342.995
1274.66	346.141
1274.94	347.225
1275.21	347.28
1275.49	347.341
1275.76	344.274
1276.04	348.538
1276.31	348.606
1276.59	356.006
1276.86	342.436
1277.14	345.672
1277.41	353.112
1277.69	359.491
1277.96	353.247
1278.23	369.126
1278.51	343.943
1278.78	357.684
1279.06	354.509
1279.33	351.327
1279.61	363.904
1279.88	380.713
1280.15	368.122
1280.43	372.358
1280.7	385.073
1280.98	387.305
1281.25	424.209
1281.53	410.511
1281.8	441.074
1282.08	469.564
1282.35	505.288
1282.62	580.836
1282.9	619.199
1283.17	819.638
1283.45	1022.47
1283.72	1431.54
1284	1972.19
1284.27	2439.33
1284.54	2637.57
1284.82	2086.5
1285.09	1377.13
1285.37	887.54
1285.64	693.977
1285.91	569.735
1286.19	466.43
1286.46	478.007
1286.74	435.87
1287.01	407.387
1287.28	378.898
1287.56	402.005
1287.83	384.109
1288.11	363.072
1288.38	375.724
1288.66	365.253
1288.93	375.847
1289.2	365.386
1289.48	365.461
1289.75	369.743
1290.02	355.004
1290.3	363.391
1290.57	348.623
1290.85	363.363
1291.12	358.094
1291.39	353.87
1291.67	343.337
1291.94	335.987
1292.22	347.562
1292.49	355.955
1292.76	357.022
1293.04	355.019
1293.31	349.899
1293.59	354.264
1293.86	363.816
1294.13	349.049
1294.41	352.196
1294.68	342.75
1294.95	343.946
1295.23	350.463
1295.5	367.608
1295.77	346.644
1296.05	338.234
1296.32	348.815
1296.6	358.297
1296.87	347.669
1297.14	360.279
1297.42	350.692
1297.69	346.378
1297.96	345.345
1298.24	338.996
1298.51	348.445
1298.78	342.062
1299.06	343.065
1299.33	340.944
1299.6	340.998
1299.88	350.54
1300.15	351.609
1300.43	334.703
1300.7	350.528
1300.97	343.151
1301.25	342.149
1301.52	339.036
1301.79	344.35
1302.07	333.8
1302.34	347.53
1302.61	332.722
1302.89	350.643
1303.16	342.136
1303.43	347.398
1303.71	344.237
1303.98	345.296
1304.25	336.845
1304.53	328.362
1304.8	329.363
1305.07	343.012
1305.35	338.715
1305.62	338.633
1305.89	335.4
1306.17	331.149
1306.44	338.526
1306.71	345.942
1306.98	348.064
1307.26	347.006
1307.53	342.781
1307.8	338.587
1308.08	341.728
1308.35	344.907
1308.62	336.523
1308.9	336.57
1309.17	340.842
1309.44	339.825
1309.71	339.819
1309.99	340.851
1310.26	338.74
1310.53	340.865
1310.81	337.718
1311.08	327.18
1311.35	347.257
1311.63	338.872
1311.9	339.982
1312.17	341.064
1312.45	342.115
1312.72	329.391
1312.99	333.598
1313.26	331.461
1313.54	325.103
1313.81	339.878
1314.08	332.507
1314.36	333.595
1314.63	331.525
1314.9	334.734
1315.17	336.89
1315.45	335.878
1315.72	342.21
1315.99	343.245
1316.26	339.006
1316.54	337.941
1316.81	343.22
1317.08	345.377
1317.36	340.132
1317.63	341.212
1317.9	341.227
1318.17	343.35
1318.45	338.07
1318.72	341.232
1318.99	344.389
1319.26	341.207
1319.54	346.51
1319.81	332.783
1320.08	340.164
1320.35	334.838
1320.63	344.272
1320.9	331.508
1321.17	337.734
1321.44	340.841
1321.72	328.084
1321.99	338.586
1322.26	329.048
1322.53	326.895
1322.81	340.524
1323.08	344.785
1323.35	341.638
1323.62	343.756
1323.9	334.254
1324.17	335.318
1324.44	340.574
1324.71	334.283
1324.99	345.804
1325.26	334.061
1325.53	338.094
1325.8	343.1
1326.08	331.42
1326.35	341.901
1326.62	339.888
1326.89	335.916
1327.16	334.981
1327.44	320.345
1327.71	337.335
1327.98	341.689
1328.25	338.636
1328.53	336.579
1328.8	339.685
1329.07	333.4
1329.34	343.938
1329.61	336.528
1329.89	330.158
1330.16	336.428
1330.43	331.08
1330.7	336.255
1330.98	336.131
1331.25	341.249
1331.52	327.44
1331.79	328.403
1332.06	335.672
1332.33	335.559
1332.61	325.975
1332.88	331.125
1333.15	329.973
1333.42	330.93
1333.69	328.738
1333.97	350.703
1334.24	343.268
1334.51	334.799
1334.78	334.735
1335.05	344.114
1335.33	340.908
1335.6	330.364
1335.87	327.168
1336.14	337.609
1336.41	331.279
1336.69	330.2
1336.96	339.605
1337.23	340.619
1337.5	342.64
1337.77	325.793
1338.04	335.172
1338.32	328.836
1338.59	337.172
1338.86	335.067
1339.13	327.747
1339.4	339.285
1339.67	337.2
1339.95	331.975
1340.22	333.035
1340.49	340.362
1340.76	334.065
1341.03	335.09
1341.3	341.337
1341.58	336.051
1341.85	330.749
1342.12	335.896
1342.39	341.039
1342.66	333.663
1342.93	345.142
1343.2	337.808
1343.48	328.392
1343.75	331.535
1344.02	331.537
1344.29	343.015
1344.56	330.415
1344.83	341.844
1345.1	322.93
1345.38	332.248
1345.65	334.231
1345.92	330.941
1346.19	331.869
1346.46	340.118
1346.73	326.454
1347	338.875
1347.28	330.469
1347.55	333.552
1347.82	334.564
1348.09	333.498
1348.36	336.576
1348.63	337.558
1348.9	341.659
1349.18	329.099
1349.45	322.792
1349.72	331.064
1349.99	333.086
1350.26	329.886
1350.53	330.844
1350.8	334.948
1351.07	326.547
1351.34	340.033
1351.62	332.745
1351.89	328.619
1352.16	339.087
1352.43	336.07
1352.7	334.031
1352.97	334.292
1353.24	348.204
1353.51	339.598
1353.78	338.048
1354.06	339.732
1354.33	327.291
1354.6	326.298
1354.87	336.582
1355.14	339.609
1355.41	339.706
1355.68	336.654
1355.95	326.185
1356.22	334.462
1356.49	321.97
1356.76	335.441
1357.04	340.591
1357.3	336.387
1357.58	339.444
1357.85	351.838
1358.12	337.251
1358.39	328.886
1358.66	332.969
1358.93	334.995
1359.2	329.768
1359.47	331.766
1359.74	338.921
1360.01	335.719
1360.28	339.794
1360.56	332.512
1360.83	334.577
1361.1	342.854
1361.37	331.441
1361.64	346.941
1361.91	335.511
1362.18	340.656
1362.45	339.605
1362.72	329.268
1362.99	339.676
1363.26	333.509
1363.53	342.872
1363.8	336.662
1364.07	327.318
1364.34	343.858
1364.61	342.765
1364.89	336.479
1365.16	336.4
1365.43	347.707
1365.7	348.665
1365.97	341.344
1366.24	346.419
1366.51	342.168
1366.78	348.305
1367.05	334.836
1367.32	335.902
1367.59	342.135
1367.86	339.055
1368.13	339.076
1368.4	350.469
1368.67	344.294
1368.94	361.896
1369.21	376.339
1369.48	419.713
1369.75	407.262
1370.02	375.13
1370.29	363.709
1370.56	338.852
1370.83	347.026
1371.1	346.913
1371.37	345.748
1371.64	343.553
1371.91	349.62
1372.18	335.091
1372.45	339.153
1372.72	353.537
1372.99	351.432
1373.26	350.364
1373.54	348.274
1373.8	352.37
1374.07	333.803
1374.34	349.231
1374.61	349.187
1374.89	347.134
1375.16	364.691
1375.42	350.263
1375.69	345.137
1375.96	345.058
1376.24	357.333
1376.51	350.015
1376.77	338.537
1377.04	352.973
1377.31	345.85
1377.58	356.279
1377.86	342.025
1378.12	354.601
1378.39	348.487
1378.66	351.573
1378.93	357.713
1379.2	362.819
1379.47	366.875
1379.74	348.204
1380.01	343.786
1380.28	355.979
1380.55	373.289
1380.82	347.661
1381.09	371.236
1381.36	360.789
1381.63	368.826
1381.9	375.857
1382.17	383.938
1382.44	378.652
1382.71	368.292
1382.98	379.458
1383.25	375.292
1383.52	391.63
1383.79	388.567
1384.06	401.923
1384.33	411.224
1384.6	420.554
1384.87	418.678
1385.14	446.501
1385.41	487.681
1385.68	517.512
1385.95	604.926
1386.21	697.434
1386.48	805.294
1386.76	1090.27
1387.03	1766.46
1387.29	2761.7
1387.56	3786.19
1387.83	4541
1388.1	3427.39
1388.37	1840.43
1388.64	1088.32
1388.91	744.385
1389.18	659.29
1389.45	529.753
1389.72	519.118
1389.99	463.45
1390.26	455.305
1390.53	403.841
1390.8	411.996
1391.06	395.574
1391.33	404.71
1391.6	374.901
1391.87	403.489
1392.14	384.989
1392.41	386.984
1392.68	380.797
1392.95	362.335
1393.22	364.349
1393.49	370.46
1393.76	357.131
1394.03	354.04
1394.3	349.932
1394.56	373.494
1394.83	361.279
1395.1	359.277
1395.37	358.277
1395.64	361.341
1395.91	355.172
1396.18	356.156
1396.45	354.065
1396.72	347.866
1396.99	345.754
1397.26	347.763
1397.52	346.733
1397.79	349.822
1398.06	348.838
1398.33	345.797
1398.6	352.979
1398.87	343.823
1399.14	360.24
1399.41	339.805
1399.68	349.02
1399.95	363.392
1400.22	333.786
1400.48	350.217
1400.75	347.142
1401.02	367.658
1401.29	342.06
1401.56	353.427
1401.83	351.564
1402.1	343.573
1402.37	360.152
1402.63	351.036
1402.9	368.552
1403.17	354.193
1403.44	345.924
1403.71	336.503
1403.98	354.998
1404.25	350.874
1404.51	360.068
1404.78	351.803
1405.05	361.994
1405.32	360.906
1405.59	363.923
1405.86	357.734
1406.13	353.602
1406.39	360.791
1406.66	372.092
1406.93	377.252
1407.2	386.503
1407.47	395.754
1407.74	398.854
1408.01	425.538
1408.27	446.079
1408.54	529.193
1408.81	574.367
1409.08	558.005
1409.35	600.097
1409.62	509.847
1409.89	476.934
1410.15	411.185
1410.42	391.578
1410.69	378.163
1410.96	360.678
1411.23	354.482
1411.5	343.191
1411.76	349.381
1412.03	347.422
1412.3	348.62
1412.57	351.106
1412.84	347.287
1413.11	348.126
1413.37	337.316
1413.64	364.022
1413.91	344.766
1414.18	350.106
1414.45	335.703
1414.72	330.586
1414.98	334.695
1415.25	329.57
1415.52	329.598
1415.79	329.629
1416.06	345.067
1416.33	336.887
1416.59	335.901
1416.86	330.806
1417.13	331.873
1417.4	333.951
1417.67	328.822
1417.93	324.723
1418.2	337.078
1418.47	329.886
1418.74	335.04
1419.01	338.094
1419.27	331.871
1419.54	319.478
1419.81	328.665
1420.08	331.682
1420.35	342.906
1420.61	330.524
1420.88	329.462
1421.15	330.501
1421.42	328.523
1421.69	329.671
1421.95	323.607
1422.22	326.858
1422.49	334.311
1422.76	337.724
1423.02	335.215
1423.29	324.913
1423.56	334.36
1423.83	329.947
1424.1	338.04
1424.36	330.012
1424.63	336.284
1424.9	333.412
1425.17	340.43
1425.43	334.445
1425.7	342.629
1425.97	335.401
1426.24	343.52
1426.51	332.154
1426.77	327.96
1427.04	322.717
1427.31	330.792
1427.58	326.64
1427.84	330.711
1428.11	337.881
1428.38	327.662
1428.65	321.546
1428.91	325.679
1429.18	321.632
1429.45	328.87
1429.72	329.982
1429.98	325.959
1430.25	327.074
1430.52	317.982
1430.79	334.521
1431.05	325.351
1431.32	331.522
1431.59	324.291
1431.86	326.268
1432.12	316.982
1432.39	322.031
1432.66	326.012
1432.93	340.228
1433.19	323.703
1433.46	329.761
1433.73	329.723
1434	326.763
1434.26	323.793
1434.53	342.254
1434.8	323.815
1435.07	323.811
1435.33	330.972
1435.6	320.708
1435.87	318.639
1436.13	328.858
1436.4	318.584
1436.67	308.315
1436.94	324.693
1437.2	317.497
1437.47	320.549
1437.74	320.562
1438	318.559
1438.27	321.667
1438.54	326.805
1438.81	327.847
1439.07	324.82
1439.34	328.991
1439.61	321.905
1439.87	326.057
1440.14	315.828
1440.41	324.041
1440.67	324.059
1440.94	320.968
1441.21	321.946
1441.48	320.889
1441.74	325.045
1442.01	310.707
1442.28	324.098
1442.54	331.254
1442.81	317.871
1443.08	317.826
1443.34	321.894
1443.61	320.855
1443.88	316.768
1444.15	313.777
1444.41	316.931
1444.68	314.988
1444.95	321.133
1445.21	318.027
1445.48	326.208
1445.75	319.003
1446.01	320.006
1446.28	318.957
1446.55	316.884
1446.81	317.881
1447.08	320.919
1447.35	323.961
1447.61	316.775
1447.88	325.027
1448.15	313.827
1448.41	313.854
1448.68	314.881
1448.95	311.782
1449.21	313.797
1449.48	317.85
1449.75	321.896
1450.01	323.919
1450.28	318.771
1450.55	323.872
1450.81	318.723
1451.08	323.817
1451.35	321.737
1451.61	314.541
1451.88	316.574
1452.15	316.579
1452.41	321.714
1452.68	312.53
1452.94	316.665
1453.21	318.725
1453.48	319.729
1453.75	313.561
1454.01	318.686
1454.28	313.565
1454.54	310.487
1454.81	312.516
1455.08	318.659
1455.34	314.62
1455.61	318.756
1455.88	317.737
1456.14	316.693
1456.41	317.668
1456.68	316.587
1456.94	322.711
1457.21	319.619
1457.47	319.604
1457.74	324.729
1458.01	321.662
1458.27	314.51
1458.54	310.43
1458.8	311.466
1459.07	325.822
1459.34	312.494
1459.6	313.501
1459.87	313.48
1460.13	314.481
1460.4	311.378
1460.67	312.363
1460.93	319.493
1461.2	314.331
1461.47	312.233
1461.73	311.156
1462	314.166
1462.26	317.17
1462.53	311.985
1462.79	309.867
1463.06	313.889
1463.33	318.973
1463.59	321.097
1463.86	317.162
1464.13	315.23
1464.39	317.409
1464.66	312.231
1464.92	310.567
1465.19	311.309
1465.45	314.285
1465.72	320.521
1465.99	312.36
1466.25	309.168
1466.52	314.189
1466.78	306.074
1467.05	312.179
1467.32	315.217
1467.58	317.242
1467.85	310.097
1468.11	310.092
1468.38	314.158
1468.64	311.071
1468.91	318.173
1469.18	317.101
1469.44	314.988
1469.71	309.83
1469.97	310.806
1470.24	316.884
1470.51	312.782
1470.77	314.788
1471.04	306.578
1471.3	311.624
1471.57	305.49
1471.83	309.552
1472.1	311.58
1472.36	307.499
1472.63	307.481
1472.9	305.406
1473.16	310.449
1473.43	312.447
1473.69	313.439
1473.96	309.364
1474.22	309.387
1474.49	310.432
1474.75	308.402
1475.02	315.521
1475.28	312.444
1475.55	308.335
1475.82	304.232
1476.08	313.364
1476.35	307.217
1476.61	310.217
1476.88	309.17
1477.14	312.209
1477.41	315.253
1477.67	310.141
1477.94	314.152
1478.2	313.086
1478.47	308.976
1478.73	307.91
1479	307.854
1479.27	315.917
1479.53	303.664
1479.79	309.658
1480.06	310.581
1480.32	312.545
1480.59	314.54
1480.85	304.348
1481.12	310.448
1481.39	312.523
1481.65	310.549
1481.92	313.657
1482.18	312.694
1482.45	320.826
1482.71	308.673
1482.98	309.713
1483.24	303.626
1483.51	305.65
1483.77	310.624
1484.04	308.436
1484.3	314.222
1484.57	313.812
1484.83	306.537
1485.1	313.366
1485.36	306.861
1485.63	307.043
1485.89	314.271
1486.16	315.002
1486.42	316.105
1486.69	318.205
1486.95	311.039
1487.22	310.964
1487.48	315.982
1487.75	307.833
1488.01	305.745
1488.28	308.708
1488.54	307.636
1488.81	314.682
1489.07	309.596
1489.34	310.585
1489.6	306.535
1489.86	305.522
1490.13	305.492
1490.39	303.412
1490.66	312.451
1490.92	313.428
1491.19	300.269
1491.45	306.331
1491.72	312.413
1491.98	309.373
1492.25	307.335
1492.51	307.323
1492.78	304.293
1493.04	306.294
1493.3	317.4
1493.57	313.358
1493.83	307.31
1494.1	314.419
1494.36	308.349
1494.63	308.308
1494.89	311.257
1495.16	305.083
1495.42	314.079
1495.69	301.903
1495.95	307.918
1496.22	307.883
1496.48	313.889
1496.74	305.811
1497.01	314.897
1497.27	311.85
1497.54	308.813
1497.8	308.815
1498.07	307.812
1498.33	305.804
1498.59	310.863
1498.86	316.938
1499.12	313.938
1499.39	308.92
1499.65	309.944
1499.92	310.954
1500.18	309.933
1500.44	310.936
1500.71	305.867
1500.97	306.808
1501.24	301.741
1501.5	310.815
1501.77	306.769
1502.03	302.713
1502.29	301.644
1502.56	302.583
1502.82	304.575
1503.09	306.527
1503.35	303.491
1503.62	308.566
1503.88	309.591
1504.14	307.579
1504.41	309.587
1504.67	311.575
1504.93	305.483
1505.2	305.415
1505.46	310.322
1505.73	307.275
1505.99	303.237
1506.26	315.325
1506.52	313.367
1506.78	308.339
1507.05	309.363
1507.31	305.335
1507.58	312.37
1507.84	306.303
1508.1	301.269
1508.37	313.373
1508.63	308.341
1508.89	305.316
1509.16	301.28
1509.42	300.295
1509.69	305.38
1509.95	304.313
1510.21	302.244
1510.48	306.204
1510.74	306.126
1511.01	304.002
1511.27	304.853
1511.53	309.719
1511.8	306.556
1512.06	306.414
1512.32	307.337
1512.59	303.25
1512.85	308.209
1513.12	312.188
1513.38	302.19
1513.64	308.349
1513.91	309.404
1514.17	319.419
1514.43	304.294
1514.7	307.219
1514.96	303.133
1515.22	308.06
1515.49	297.936
1515.75	304.884
1516.02	307.861
1516.28	301.821
1516.54	304.808
1516.81	309.81
1517.07	305.803
1517.33	303.816
1517.6	303.866
1517.86	305.897
1518.12	304.915
1518.39	304.934
1518.65	307.968
1518.91	306.99
1519.18	306.004
1519.44	302.993
1519.7	303.973
1519.97	309.97
1520.23	302.958
1520.49	311.012
1520.76	304.017
1521.02	301.022
1521.28	308.038
1521.55	308.015
1521.81	299.957
1522.07	303.935
1522.34	310.923
1522.6	302.855
1522.86	305.781
1523.13	302.661
1523.39	304.577
1523.65	302.507
1523.92	302.453
1524.18	307.412
1524.44	300.42
1524.71	304.445
1524.97	303.455
1525.23	309.502
1525.5	303.547
1525.76	305.627
1526.02	302.687
1526.28	307.731
1526.55	298.71
1526.81	307.695
1527.07	305.667
1527.34	305.643
1527.6	303.615
1527.86	307.589
1528.13	302.547
1528.39	299.514
1528.65	303.503
1528.91	305.5
1529.18	300.477
1529.44	304.439
1529.7	311.427
1529.97	306.44
1530.23	301.489
1530.49	308.564
1530.76	303.606
1531.02	312.639
1531.28	304.606
1531.54	306.618
1531.81	303.575
1532.07	301.593
1532.33	301.664
1532.59	305.778
1532.86	299.862
1533.12	305.931
1533.38	302.951
1533.65	305.964
1533.91	306.953
1534.17	302.919
1534.43	304.894
1534.7	303.866
1534.96	311.844
1535.22	306.687
1535.48	297.567
1535.75	304.514
1536.01	312.426
1536.27	302.303
1536.54	308.2
1536.8	306.155
1537.06	302.077
1537.32	312.083
1537.59	304.031
1537.85	302.933
1538.11	306.897
1538.37	313.851
1538.63	319.911
1538.9	305.072
1539.16	313.304
1539.42	304.46
1539.69	304.587
1539.95	301.72
1540.21	301.809
1540.47	307.892
1540.74	301.745
1541	306.746
1541.26	306.667
1541.52	305.59
1541.79	310.522
1542.05	313.45
1542.31	304.366
1542.57	299.294
1542.83	300.226
1543.1	308.141
1543.36	308.015
1543.62	303.022
1543.88	299.032
1544.14	302.086
1544.41	304.185
1544.67	302.237
1544.93	307.371
1545.19	307.446
1545.46	305.482
1545.72	302.525
1545.98	301.501
1546.24	312.528
1546.51	301.544
1546.77	306.586
1547.03	300.623
1547.29	309.613
1547.55	302.401
1547.82	313.422
1548.08	301.377
1548.34	299.554
1548.6	302.309
1548.86	306.951
1549.13	297.826
1549.39	305.966
1549.65	309.229
1549.91	303.728
1550.17	307.025
1550.44	302.469
1550.7	307.215
1550.96	302.242
1551.22	306.228
1551.48	304.063
1551.74	307.195
1552.01	311.39
1552.27	309.336
1552.53	303.282
1552.79	302.011
1553.05	303.96
1553.32	303.944
1553.58	306.898
1553.84	308.819
1554.1	302.712
1554.36	305.592
1554.63	300.541
1554.89	304.524
1555.15	302.514
1555.41	301.528
1555.67	301.553
1555.93	309.507
1556.2	304.498
1556.46	307.523
1556.72	307.543
1556.98	306.552
1557.24	304.537
1557.5	300.493
1557.77	312.404
1558.03	296.32
1558.29	299.221
1558.55	301.128
1558.81	304.046
1559.07	308.977
1559.33	304.922
1559.6	304.877
1559.86	307.842
1560.12	302.82
1560.38	306.796
1560.64	298.795
1560.9	305.802
1561.17	305.854
1561.43	306.926
1561.69	305.034
1561.95	306.047
1562.21	302.036
1562.47	302.009
1562.74	301.023
1563	298
1563.26	302.97
1563.52	298.054
1563.78	301.177
1564.04	300.229
1564.3	302.229
1564.56	305.118
1564.82	297.67
1565.09	306.929
1565.35	303.339
1565.61	303.432
1565.87	307.97
1566.13	301.9
1566.39	299.664
1566.65	304.836
1566.91	304.138
1567.18	300.131
1567.44	305.912
1567.7	300.916
1567.96	301.959
1568.22	299.988
1568.48	301.976
1568.74	302.871
1569	306.791
1569.27	303.784
1569.53	305.806
1569.79	305.816
1570.05	299.825
1570.31	299.821
1570.57	304.807
1570.83	301.786
1571.09	299.745
1571.35	303.683
1571.62	300.674
1571.88	301.642
1572.14	300.586
1572.4	305.533
1572.66	300.499
1572.92	302.447
1573.18	300.402
1573.44	302.393
1573.7	303.438
1573.96	306.5
1574.22	302.578
1574.48	298.658
1574.74	303.727
1575.01	302.79
1575.27	307.812
1575.53	300.795
1575.79	307.786
1576.05	300.768
1576.31	297.688
1576.57	306.564
1576.83	299.465
1577.09	305.347
1577.35	301.26
1577.61	297.177
1577.87	304.093
1578.14	301.078
1578.4	311.042
1578.66	303.064
1578.92	309.046
1579.18	305.069
1579.44	301.126
1579.7	306.138
1579.96	300.164
1580.22	300.157
1580.48	305.113
1580.74	304.067
1581	300.043
1581.26	300.983
1581.52	310.877
1581.78	300.886
1582.04	293.892
1582.3	302.834
1582.57	299.827
1582.83	301.808
1583.09	304.793
1583.35	306.752
1583.61	300.768
1583.87	302.785
1584.13	302.806
1584.39	302.821
1584.65	301.826
1584.91	300.812
1585.17	303.795
1585.43	300.787
1585.69	302.714
1585.95	302.637
1586.21	308.551
1586.47	304.527
1586.73	301.508
1586.99	301.48
1587.25	303.451
1587.51	300.463
1587.77	299.489
1588.03	298.525
1588.29	295.583
1588.55	303.582
1588.81	303.622
1589.07	299.671
1589.33	296.699
1589.59	303.663
1589.85	300.696
1590.11	301.726
1590.37	303.755
1590.63	301.754
1590.89	303.747
1591.15	295.762
1591.41	306.692
1591.67	300.66
1591.94	305.54
1592.2	306.453
1592.46	304.43
1592.72	304.324
1592.98	305.202
1593.23	300.1
1593.49	304.981
1593.75	304.93
1594.01	306.907
1594.27	302.96
1594.53	306.998
1594.79	305.052
1595.05	300.128
1595.31	306.921
1595.57	301.94
1595.83	299.952
1596.09	302.932
1596.35	300.954
1596.61	298.987
1596.87	308.944
1597.13	310.965
1597.39	305.003
1597.65	299.018
1597.91	296.987
1598.17	300.879
1598.43	295.838
1598.69	301.737
1598.95	297.716
1599.21	304.612
1599.47	305.5
1599.73	297.647
1599.99	300.582
1600.25	298.662
1600.51	303.074
1600.77	297.166
1601.03	302.13
1601.29	301.136
1601.55	297.966
1601.81	295.443
1602.07	300.609
1602.33	300.965
1602.59	300.549
1602.85	303.406
1603.1	300.536
1603.36	307.99
1603.62	303.437
1603.88	300.363
1604.14	297.453
1604.4	293.629
1604.66	304.631
1604.92	306.194
1605.18	300.881
1605.44	299.777
1605.7	299.695
1605.96	302.674
1606.22	299.279
1606.48	296.498
1606.74	302.877
1607	300.426
1607.26	302.308
1607.52	302.197
1607.77	300.166
1608.03	299.149
1608.29	296.559
1608.55	303.26
1608.81	300.424
1609.07	300.771
1609.33	298.197
1609.59	301.694
1609.85	303.802
1610.11	301.469
1610.37	302.56
1610.63	298.002
1610.88	304.134
1611.14	302.125
1611.4	303.632
1611.66	300.982
1611.92	301.178
1612.18	297.117
1612.44	298.047
1612.7	301.389
1612.96	300.959
1613.22	297.567
1613.48	299.875
1613.73	299.64
1613.99	298.208
1614.25	297.384
1614.51	301.681
1614.77	301.267
1615.03	297.564
1615.29	297.587
1615.55	294.982
1615.81	300.798
1616.07	299.572
1616.32	299.509
1616.58	297.696
1616.84	302.742
1617.1	300.273
1617.36	298.547
1617.62	298.865
1617.88	299.654
1618.14	304.231
1618.4	301.968
1618.65	297.471
1618.91	297.402
1619.17	302.423
1619.43	303.4
1619.69	299.757
1619.95	299.68
1620.21	299.213
1620.47	295.657
1620.72	299.084
1620.98	299.958
1621.24	300.071
1621.5	296.972
1621.76	297.533
1622.02	298.712
1622.28	300.425
1622.54	299.816
1622.79	297.632
1623.05	300.744
1623.31	300.789
1623.57	298.716
1623.83	299.305
1624.09	295.635
1624.35	295.389
1624.6	298.77
1624.86	299.845
1625.12	296.681
1625.38	298.624
1625.64	302.808
1625.9	299.326
1626.16	301.031
1626.41	302.938
1626.67	299.522
1626.77	297.58
1627.04	292.653
1627.3	300.54
1627.56	298.578
1627.82	298.592
1628.08	303.536
1628.34	305.525
1628.6	298.604
1628.87	303.494
1629.13	300.514
1629.39	295.57
1629.65	305.409
1629.91	296.526
1630.17	303.395
1630.44	298.438
1630.7	296.476
1630.96	297.494
1631.22	301.489
1631.48	299.576
1631.74	296.641
1632	293.711
1632.27	298.765
1632.53	301.758
1632.79	297.668
1633.05	302.498
1633.31	304.479
1633.57	301.572
1633.83	291.75
1634.1	298.661
1634.36	292.75
1634.62	298.657
1634.88	298.643
1635.14	293.695
1635.4	299.581
1635.66	294.621
1635.92	303.452
1636.18	304.399
1636.45	299.429
1636.71	304.3
1636.97	300.321
1637.23	295.383
1637.49	297.333
1637.75	295.335
1638.01	309.089
1638.27	297.271
1638.53	299.243
1638.8	300.227
1639.06	297.273
1639.32	303.178
1639.58	295.294
1639.84	296.272
1640.1	303.208
1640.36	293.415
1640.62	295.413
1640.88	297.376
1641.15	301.283
1641.41	302.243
1641.67	304.194
1641.93	298.275
1642.19	297.278
1642.45	296.284
1642.71	313.991
1642.97	300.211
1643.23	297.24
1643.49	301.148
1643.75	300.128
1644.02	305.972
1644.28	295.137
1644.54	305.951
1644.8	299.126
1645.06	298.16
1645.32	301.144
1645.58	301.121
1645.84	293.213
1646.1	298.099
1646.36	299.056
1646.62	297.075
1646.88	301.949
1647.15	299.96
1647.41	296
1647.67	295.029
1647.93	300.964
1648.19	296.101
1648.45	296.177
1648.71	299.325
1648.97	299.274
1649.23	305.161
1649.49	294.298
1649.75	296.306
1650.01	304.302
1650.27	303.363
1650.53	296.533
1650.79	302.496
1651.05	303.511
1651.31	298.592
1651.57	308.447
1651.83	299.584
1652.1	297.616
1652.36	298.558
1652.62	298.532
1652.88	302.467
1653.14	303.462
1653.4	300.529
1653.66	300.56
1653.92	297.619
1654.18	297.635
1654.44	302.594
1654.7	301.66
1654.96	296.806
1655.22	300.851
1655.48	308.843
1655.74	299.035
1656	298.086
1656.26	300.081
1656.52	301.073
1656.78	295.134
1657.04	302.013
1657.3	301
1657.56	297.033
1657.82	297.007
1658.08	294.01
1658.34	296.928
1658.6	302.802
1658.86	301.772
1659.12	299.755
1659.38	303.643
1659.64	300.667
1659.9	296.757
1660.16	305.675
1660.42	297.839
1660.69	298.882
1660.95	301.905
1661.21	305.893
1661.46	300.023
1661.72	301.792
1661.98	302.011
1662.25	303.477
1662.51	303.504
1662.77	303.404
1663.03	298.488
1663.28	302.894
1663.54	305.835
1663.8	297.137
1664.07	302.099
1664.33	304.184
1664.59	302.357
1664.84	304.215
1665.1	300.674
1665.36	293.35
1665.62	302.588
1665.89	299.567
1666.14	297.703
1666.4	299.2
1666.66	296.913
1666.92	290.204
1667.18	296.061
1667.44	300.972
1667.7	302.892
1667.96	299.898
1668.22	300.945
1668.48	300.183
1668.74	302.235
1669	306.196
1669.26	299.293
1669.52	301.282
1669.78	299.226
1670.04	296.366
1670.3	293.602
1670.56	303.473
1670.82	299.485
1671.08	302.439
1671.34	300.448
1671.6	298.514
1671.86	293.584
1672.12	302.49
1672.38	302.481
1672.64	298.535
1672.9	296.569
1673.15	306.472
1673.41	295.624
1673.67	302.584
1673.93	297.684
1674.19	297.719
1674.45	295.788
1674.71	302.776
1674.97	303.801
1675.23	294.913
1675.49	295.899
1675.75	300.847
1676.01	302.845
1676.27	299.89
1676.53	302.863
1676.79	301.863
1677.05	302.831
1677.31	302.798
1677.57	298.789
1677.82	299.716
1678.08	300.643
1678.34	299.607
1678.6	300.557
1678.86	297.56
1679.12	304.455
1679.38	298.493
1679.64	300.442
1679.9	299.43
1680.16	302.363
1680.42	300.358
1680.68	294.41
1680.94	304.28
1681.19	296.374
1681.45	302.3
1681.71	298.351
1681.97	298.356
1682.23	303.294
1682.49	299.332
1682.75	303.278
1683.01	300.313
1683.27	296.358
1683.53	295.358
1683.79	303.228
1684.04	302.204
1684.3	300.209
1684.56	301.184
1684.82	298.214
1685.08	302.161
1685.34	300.187
1685.6	299.205
1685.86	297.244
1686.12	297.291
1686.38	299.314
1686.63	295.384
1686.89	303.279
1687.15	300.286
1687.41	302.226
1687.67	300.22
1687.93	302.166
1688.19	305.092
1688.45	304.045
1688.71	300.041
1688.96	299.003
1689.22	298.949
1689.48	297.897
1689.74	293.89
1690	298.877
1690.26	297.937
1690.52	303.89
1690.78	296.019
1691.03	298.006
1691.29	294.105
1691.55	299.051
1691.81	300.03
1692.07	295.069
1692.33	299.947
1692.59	299.887
1692.84	299.812
1693.1	297.754
1693.36	300.625
1693.62	303.534
1693.88	297.556
1694.14	295.53
1694.4	296.487
1694.66	293.544
1694.91	297.505
1695.17	300.477
1695.43	305.423
1695.69	298.555
1695.95	296.627
1696.21	294.67
1696.47	297.612
1696.72	299.542
1696.98	300.46
1697.24	293.485
1697.5	296.367
1697.76	295.326
1698.02	303.151
1698.27	299.168
1698.53	295.2
1698.79	302.074
1699.05	299.125
1699.31	295.203
1699.57	295.206
1699.82	301.091
1700.08	303.016
1700.34	303.99
1700.6	299.056
1700.86	297.068
1701.12	298.015
1701.37	294.028
1701.63	297.904
1701.89	290.967
1702.15	294.843
1702.41	296.771
1702.66	301.672
1702.92	295.763
1703.18	301.635
1703.44	298.663
1703.7	295.72
1703.96	298.703
1704.21	297.746
1704.47	293.814
1704.73	293.797
1704.99	294.771
1705.25	302.634
1705.5	299.663
1705.76	296.661
1706.02	301.505
1706.28	299.468
1706.54	293.502
1706.79	295.398
1707.05	293.365
1707.31	300.144
1707.57	295.145
1707.83	296.033
1708.08	299.849
1708.34	293.865
1708.6	294.763
1708.86	293.727
1709.12	293.694
1709.37	298.577
1709.63	293.684
1709.89	298.586
1710.15	300.557
1710.41	295.704
1710.66	300.635
1710.92	297.725
1711.18	297.751
1711.44	297.77
1711.7	294.821
1711.95	296.726
1712.21	293.678
1712.47	301.385
1712.73	295.378
1712.98	299.194
1713.24	291.241
1713.5	295.075
1713.76	300.893
1714.01	295.974
1714.27	297.906
1714.53	295.938
1714.79	294.966
1715.04	295.066
1715.3	299.971
1715.56	298.002
1715.82	304.809
1716.08	294.987
1716.33	291.009
1716.59	298.727
1716.85	297.636
1717.11	295.547
1717.36	303.191
1717.62	293.335
1717.88	292.242
1718.14	294.111
1718.39	296.979
1718.65	294.036
1718.91	296.963
1719.16	294.031
1719.42	289.147
1719.68	294.06
1719.94	289.179
1720.2	298.873
1720.45	291.995
1720.71	293.855
1720.97	296.724
1721.23	288.877
1721.48	290.754
1721.74	292.623
1722	297.407
1722.25	298.304
1722.51	293.379
1722.77	299.148
1723.03	294.248
1723.28	287.428
1723.54	299.078
1723.8	288.368
1724.05	297.086
1724.31	295.08
1724.57	296.927
1724.83	297.776
1725.08	292.823
1725.34	288.846
1725.6	286.855
1725.85	290.72
1726.11	295.578
1726.37	287.79
1726.63	289.661
1726.88	288.619
1727.14	286.714
1727.4	294.504
1727.66	294.467
1727.91	296.328
1728.17	293.185
1728.43	288.881
1728.68	293.375
1728.94	291.431
1729.2	297.395
1729.45	293.67
1729.71	290.758
1729.97	291.585
1730.23	291.527
1730.48	292.632
1730.74	294.755
1730.99	296.703
1731.25	297.67
1731.51	294.76
1731.77	291.837
1732.02	291.809
1732.28	295.637
1732.54	288.823
1732.79	293.578
1733.05	287.684
1733.31	288.523
1733.56	296.139
1733.82	290.262
1734.08	294.989
1734.33	289.11
1734.59	295.761
1734.85	289.889
1735.1	291.744
1735.36	289.763
1735.62	287.805
1735.87	288.742
1736.13	292.555
1736.39	292.517
1736.65	294.4
1736.9	288.585
1737.16	291.436
1737.41	293.317
1737.67	294.22
1737.93	293.195
1738.18	289.291
1738.44	294.032
1738.7	292.034
1738.95	293.863
1739.21	285.096
1739.47	288.805
1739.72	287.728
1739.98	296.253
1740.24	294.254
1740.49	285.564
1740.75	289.33
1741.01	287.353
1741.26	292.084
1741.52	288.214
1741.78	289.148
1742.03	286.265
1742.29	288.147
1742.54	289.077
1742.8	290.981
1743.06	285.232
1743.31	288.058
1743.57	291.817
1743.83	299.433
1744.08	289.82
1744.34	280.253
1744.6	290.776
1744.85	288.87
1745.11	289.822
1745.36	291.712
1745.62	289.753
1745.88	292.554
1746.13	287.693
1746.39	285.695
1746.65	296.144
1746.9	286.501
1747.16	296.949
1747.41	289.244
1747.67	288.276
1747.93	290.184
1748.18	288.283
1748.44	288.299
1748.69	288.324
1748.95	287.41
1749.21	283.643
1749.46	291.346
1749.72	291.415
1749.97	284.794
1750.23	292.491
1750.49	291.555
1750.74	298.278
1751	287.752
1751.26	285.783
1751.51	289.517
1751.77	285.615
1752.02	287.463
1752.28	290.265
1752.54	295.926
1752.79	292.047
1753.05	287.223
1753.3	280.497
1753.56	289.985
1753.82	286.105
1754.07	290.816
1754.33	296.494
1754.58	292.643
1754.84	292.609
1755.09	289.708
1755.35	284.89
1755.6	287.683
1755.86	288.561
1756.12	293.238
1756.37	281.722
1756.63	282.586
1756.88	289.183
1757.14	290.099
1757.4	283.429
1757.65	284.429
1757.91	289.247
1758.16	287.363
1758.42	282.612
1758.67	284.519
1758.93	290.239
1759.18	283.585
1759.44	290.235
1759.7	290.212
1759.95	284.478
1760.21	291.109
1760.46	287.265
1760.72	294.821
1760.97	288.109
1761.23	286.163
1761.49	286.135
1761.74	287.063
1762	286.134
1762.25	289.03
1762.51	293.807
1762.76	284.293
1763.02	285.243
1763.27	290.012
1763.53	290.99
1763.78	289.123
1764.04	288.271
1764.3	290.251
1764.55	286.489
1764.81	288.427
1765.06	283.692
1765.32	286.565
1765.57	285.621
1765.83	287.523
1766.08	286.556
1766.34	287.481
1766.59	296.995
1766.85	287.463
1767.1	288.387
1767.36	292.144
1767.61	287.356
1767.87	287.312
1768.13	287.316
1768.38	291.058
1768.64	284.245
1768.89	292.654
1769.15	279.194
1769.4	285.812
1769.66	282.034
1769.91	284.994
1770.17	289.766
1770.42	284.075
1770.68	286.008
1770.93	289.927
1771.19	284.308
1771.44	285.267
1771.7	287.199
1771.95	297.72
1772.21	289.218
1772.46	288.307
1772.72	288.342
1772.97	291.231
1773.23	290.31
1773.48	286.53
1773.74	288.456
1773.99	289.424
1774.25	286.59
1774.5	289.488
1774.76	286.661
1775.01	292.458
1775.27	291.633
1775.52	292.643
1775.78	290.765
1776.03	290.766
1776.29	291.697
1776.54	288.795
1776.8	291.61
1777.05	287.763
1777.31	291.521
1777.56	286.706
1777.82	292.368
1778.07	288.504
1778.32	286.533
1778.58	282.648
1778.83	286.387
1779.09	290.164
1779.34	290.195
1779.6	290.259
1779.85	284.569
1780.11	291.256
1780.36	285.573
1780.62	287.499
1780.87	289.412
1781.13	288.479
1781.38	287.561
1781.64	288.557
1781.89	288.615
1782.15	287.722
1782.4	292.528
1782.65	287.798
1782.91	294.506
1783.16	286.92
1783.42	294.588
1783.67	286.055
1783.93	285.165
1784.18	286.183
1784.44	290.991
1784.69	295.777
1784.94	288.139
1785.2	289.073
1785.45	294.765
1785.71	296.658
1785.96	288.087
1786.22	285.26
1786.47	287.222
1786.73	287.293
1786.98	295.976
1787.23	294.21
1787.49	280.058
1787.74	288.854
1788	289.977
1788.25	289.109
1788.51	287.249
1788.76	287.343
1789.02	294.148
1789.27	294.206
1789.52	290.411
1789.78	291.414
1790.03	290.481
1790.29	292.392
1790.54	306.764
1790.79	290.309
1791.05	291.175
1791.3	293.058
1791.56	292.088
1791.81	286.354
1792.07	288.278
1792.32	289.269
1792.57	292.175
1792.83	289.326
1793.08	295.065
1793.34	290.311
1793.59	289.372
1793.84	287.477
1794.1	290.313
1794.35	286.455
1794.61	291.438
1794.86	289.723
1795.11	296.56
1795.37	286.058
1795.62	291.87
1795.88	290.966
1796.13	294.866
1796.38	288.203
1796.64	293.068
1796.89	283.512
1797.15	288.362
1797.4	290.322
1797.65	292.278
1797.91	293.265
1798.16	298.088
1798.41	296.161
1798.67	291.331
1798.92	285.527
1799.18	291.245
1799.43	293.107
1799.68	288.256
1799.94	291.1
1800.19	290.109
1800.45	296.811
1800.7	293.916
1800.95	290.069
1801.21	294.877
1801.46	292.972
1801.71	299.721
1801.97	286.305
1802.22	292.114
1802.48	294.091
1802.73	289.348
1802.98	289.414
1803.24	293.305
1803.49	292.362
1803.74	293.341
1804	291.47
1804.25	292.491
1804.51	286.773
1804.76	288.771
1805.01	289.808
1805.26	292.769
1805.52	292.83
1805.77	290.953
1806.03	292.927
1806.28	292.965
1806.53	293.95
1806.79	288.174
1807.04	292.995
1807.29	288.179
1807.55	295.895
1807.8	290.12
1808.05	286.273
1808.31	293.996
1808.56	289.189
1808.81	294.985
1809.07	287.285
1809.32	294.048
1809.57	297.917
1809.83	291.178
1810.08	294.069
1810.33	295.981
1810.59	295.97
1810.84	294.04
1811.09	288.25
1811.35	290.178
1811.6	286.33
1811.85	301.779
1812.11	294.103
1812.36	301.867
1812.61	291.312
1812.87	299.058
1813.12	296.192
1813.37	297.21
1813.63	298.252
1813.88	294.468
1814.13	288.775
1814.39	290.784
1814.64	294.706
1814.89	298.609
1815.14	286.068
1815.4	290.915
1815.65	295.765
1815.9	295.778
1816.16	290.98
1816.41	295.809
1816.66	287.104
1816.92	297.645
1817.17	299.428
1817.42	292.626
1817.68	291.692
1817.93	294.655
1818.18	292.813
1818.43	292.813
1818.69	294.75
1818.94	295.745
1819.19	294.82
1819.44	294.85
1819.7	292.947
1819.95	299.756
1820.2	292.061
1820.46	287.252
1820.71	298.893
1820.96	290.233
1821.22	295.119
1821.47	296.128
1821.72	299.064
1821.97	295.22
1822.23	293.302
1822.48	300.097
1822.73	292.366
1822.99	293.316
1823.24	311.683
1823.49	294.228
1823.74	296.176
1824	300.077
1824.25	295.263
1824.5	300.132
1824.75	292.419
1825.01	297.294
1825.26	297.31
1825.51	291.502
1825.76	302.154
1826.02	294.419
1826.27	293.456
1826.52	288.624
1826.77	295.43
1827.03	292.555
1827.28	294.528
1827.53	296.493
1827.78	293.575
1828.04	293.565
1828.29	295.464
1828.54	291.548
1828.8	292.498
1829.05	298.303
1829.3	296.353
1829.55	291.493
1829.81	297.26
1830.06	292.392
1830.31	291.392
1830.56	286.573
1830.81	296.296
1831.07	295.369
1831.32	291.537
1831.57	292.542
1831.82	292.582
1832.08	298.441
1832.33	287.848
1832.58	293.693
1832.83	295.629
1833.09	301.459
1833.34	300.524
1833.59	289.869
1833.84	302.487
1834.09	302.364
1834.35	290.57
1834.6	298.179
1834.85	291.276
1835.1	293.14
1835.36	295.003
1835.61	292.11
1835.86	296.094
1836.11	290.614
1836.36	288.193
1836.62	296.599
1836.87	298.432
1837.12	294.324
1837.37	298.001
1837.62	288.997
1837.88	291.774
1838.13	291.87
1838.38	297.232
1838.63	297.363
1838.88	295.517
1839.14	290.706
1839.39	295.602
1839.64	297.535
1839.89	299.167
1840.14	298.014
1840.4	291.076
1840.65	289.967
1840.9	296.595
1841.15	292.604
1841.4	293.456
1841.66	297.212
1841.91	291.324
1842.16	294.165
1842.41	293.239
1842.66	290.33
1842.92	290.357
1843.17	291.317
1843.42	296.131
1843.67	290.321
1843.92	301.908
1844.17	291.327
1844.43	293.244
1844.68	291.286
1844.93	290.332
1845.18	302.916
1845.43	289.536
1845.69	300.282
1845.94	293.672
1846.19	298.583
1846.44	307.979
1846.69	294.008
1846.94	295.578
1847.19	296.478
1847.45	289.798
1847.7	292.837
1847.95	295.758
1848.2	294.669
1848.45	292.699
1848.7	292.685
1848.96	297.431
1849.21	291.569
1849.46	290.519
1849.71	290.419
1849.96	299.936
1850.21	297.927
1850.46	289.209
1850.72	292.991
1850.97	298.704
1851.22	290.021
1851.47	296.72
1851.72	297.671
1851.97	286.149
1852.23	294.792
1852.48	293.831
1852.73	289.018
1852.98	288.997
1853.23	286.079
1853.48	288.893
1853.73	288.807
1853.98	293.505
1854.24	296.313
1854.49	284.772
1854.74	293.345
1854.99	289.411
1855.24	294.117
1855.49	293.122
1855.74	285.434
1855.99	290.216
1856.25	294.051
1856.5	297.876
1856.75	290.199
1857	293.998
1857.25	291.092
1857.5	296.8
1857.75	291.962
1858	288.072
1858.26	288.962
1858.51	291.765
1858.76	293.605
1859.01	286.836
1859.26	290.626
1859.51	288.722
1859.76	290.629
1860.01	291.62
1860.26	291.686
1860.52	290.772
1860.77	293.688
1861.02	293.75
1861.27	289.961
1861.52	292.837
1861.77	289.943
1862.02	289.89
1862.27	293.65
1862.52	296.448
1862.77	290.643
1863.03	291.533
1863.28	291.472
1863.53	292.373
1863.78	287.544
1864.03	289.405
1864.28	283.623
1864.53	292.154
1864.78	293.028
1865.03	289.121
1865.28	289.974
1865.53	293.672
1865.78	282.111
1866.04	294.373
1866.29	289.491
1866.54	295.079
1866.79	290.204
1867.04	291.999
1867.29	292.875
1867.54	290.935
1867.79	292.807
1868.04	288.04
1868.29	288.054
1868.54	289.972
1868.79	287.109
1869.04	292.797
1869.29	287.075
1869.54	291.813
1869.79	294.65
1870.05	287.983
1870.3	287.974
1870.55	285.118
1870.8	288.914
1871.05	286.987
1871.3	288.852
1871.55	290.7
1871.8	284.022
1872.05	296.339
1872.3	281.084
1872.55	284.827
1872.8	295.24
1873.05	282.89
1873.3	289.506
1873.55	285.664
1873.8	290.351
1874.05	296.925
1874.31	293.056
1874.56	289.187
1874.81	288.159
1875.05	283.337
1875.31	288.904
1875.56	289.692
1875.81	283.921
1876.06	282.893
1876.31	285.67
1876.56	287.506
1876.81	290.174
1877.06	286.187
1877.31	293.504
1877.56	283.598
1877.81	288.211
1878.06	290.518
1878.31	290.47
1878.56	295.239
1878.81	284.155
1879.06	289.903
1879.31	283.166
1879.56	288.78
1879.81	286.878
1880.06	288.772
1880.31	285.025
1880.56	288.75
1880.81	294.393
1881.06	297.096
1881.31	283.707
1881.56	291.124
1881.81	283.407
1882.06	294.562
1882.31	285.896
1882.56	297.102
1882.81	287.104
1883.06	288.194
1883.31	288.869
1883.56	287.414
1883.81	285.615
1884.06	288.523
1884.31	288.441
1884.56	291.397
1884.81	300.007
1885.06	288.725
1885.31	286.908
1885.56	286.084
1885.81	285.202
1886.06	286.169
1886.31	284.222
1886.56	284.121
1886.81	285.944
1887.06	289.651
1887.31	285.806
1887.56	286.674
1887.81	284.697
1888.06	285.53
1888.31	288.261
1888.56	281.576
1888.81	288.09
1889.06	290.883
1889.31	284.279
1889.56	287.102
1889.81	287.144
1890.06	284.392
1890.31	288.21
1890.56	285.396
1890.81	286.318
1891.06	283.478
1891.31	290.06
1891.56	290.04
1891.8	281.557
1892.05	290.952
1892.3	297.497
1892.55	291.779
1892.8	286.004
1893.05	282.085
1893.3	281.024
1893.55	287.637
1893.8	289.489
1894.05	286.586
1894.3	284.663
1894.55	286.532
1894.8	289.364
1895.05	284.692
1895.3	283.784
1895.55	289.458
1895.8	283.86
1896.05	286.732
1896.3	287.729
1896.55	284.013
1896.79	287.811
1897.04	282.191
1897.29	296.312
1897.54	286.899
1897.79	285.938
1898.04	291.542
1898.29	289.607
1898.54	289.536
1898.79	288.525
1899.04	281.904
1899.29	283.755
1899.54	286.531
1899.79	289.324
1900.04	290.259
1900.28	289.337
1900.53	287.492
1900.78	290.369
1901.03	283.848
1901.28	285.787
1901.53	287.725
1901.78	285.925
1902.03	281.264
1902.28	286.898
1902.53	288.756
1902.78	288.723
1903.03	283.05
1903.27	293.371
1903.52	287.713
1903.77	281.121
1904.02	289.575
1904.27	286.744
1904.52	288.608
1904.77	286.721
1905.02	286.717
1905.27	290.455
1905.52	281.883
1905.76	285.573
1906.01	281.78
1906.26	285.504
1906.51	290.174
1906.76	289.217
1907.01	285.477
1907.26	291.124
1907.51	291.183
1907.76	287.47
1908	286.549
1908.25	288.448
1908.5	286.606
1908.75	288.536
1909	282.019
1909.25	292.44
1909.5	290.651
1909.75	283.223
1909.99	289.914
1910.24	289.998
1910.49	283.466
1910.74	284.449
1910.99	292.01
1911.24	287.307
1911.49	288.246
1911.74	287.278
1911.98	286.323
1912.23	285.378
1912.48	286.322
1912.73	288.207
1912.98	282.572
1913.23	285.456
1913.48	289.319
1913.73	285.637
1913.97	287.582
1914.22	287.647
1914.47	288.653
1914.72	288.709
1914.97	285.914
1915.22	283.094
1915.47	287.8
1915.71	286.831
1915.96	285.879
1916.21	285.823
1916.46	283.879
1916.71	281.947
1916.96	284.737
1917.2	285.655
1917.45	287.527
1917.7	280.946
1917.95	289.482
1918.2	285.78
1918.45	281.145
1918.7	285.952
1918.94	286.046
1919.19	284.289
1919.44	282.487
1919.69	287.255
1919.94	281.589
1920.19	287.212
1920.43	285.374
1920.68	288.29
1920.93	284.584
1921.18	286.507
1921.43	296.011
1921.67	289.409
1921.92	284.676
1922.17	282.756
1922.42	291.218
1922.67	289.29
1922.92	289.267
1923.16	285.464
1923.41	285.437
1923.66	292.007
1923.91	287.229
1924.16	295.706
1924.41	284.364
1924.65	286.273
1924.9	297.658
1925.15	287.332
1925.4	289.319
1925.65	289.396
1925.89	286.635
1926.14	287.664
1926.39	295.328
1926.64	283.074
1926.89	289.745
1927.13	283.157
1927.38	283.193
1927.63	286.068
1927.88	283.257
1928.12	288.015
1928.37	282.373
1928.62	289.992
1928.87	282.461
1929.12	281.583
1929.36	292.107
1929.61	286.489
1929.86	290.375
1930.11	285.698
1930.36	297.164
1930.6	295.277
1930.85	287.686
1931.1	288.607
1931.35	284.772
1931.6	285.684
1931.84	290.39
1932.09	289.401
1932.34	294.104
1932.59	288.402
1932.83	293.109
1933.08	286.507
1933.33	287.556
1933.58	295.309
1933.83	284.118
1934.07	283.426
1934.32	294.134
1934.57	291.487
1934.82	288.799
1935.06	291.792
1935.31	290.889
1935.56	287.824
1935.81	291.637
1936.05	292.567
1936.3	292.525
1936.55	288.651
1936.8	286.677
1937.04	285.667
1937.29	289.417
1937.54	285.558
1937.79	282.654
1938.03	292.193
1938.28	291.344
1938.53	285.66
1938.78	291.422
1939.02	288.612
1939.27	285.794
1939.52	292.507
1939.77	288.715
1940.01	288.793
1940.26	288.887
1940.51	294.8
1940.76	297.749
1941	290.099
1941.25	290.049
1941.5	283.252
1941.75	285.988
1941.99	290.922
1942.24	299.784
1942.49	288.366
1942.74	295.99
1942.98	290.133
1943.23	286.193
1943.48	293.782
1943.72	287.287
1943.97	286.384
1944.22	287.402
1944.46	288.426
1944.71	290.41
1944.96	288.572
1945.21	292.465
1945.45	290.618
1945.7	294.495
1945.95	292.626
1946.2	284.049
1946.44	286.931
1946.69	293.616
1946.94	285.939
1947.18	293.565
1947.43	291.649
1947.68	287.823
1947.92	284.949
1948.17	284.934
1948.42	290.696
1948.67	288.84
1948.91	293.683
1949.16	294.707
1949.41	289.041
1949.65	295.831
1949.9	289.256
1950.15	293.217
1950.4	293.324
1950.64	291.524
1950.89	286.847
1951.13	287.912
1951.38	296.634
1951.63	289.009
1951.88	293.856
1952.12	292.931
1952.37	291.974
1952.62	293.956
1952.86	289.192
1953.11	289.104
1953.36	289.936
1953.6	292.634
1953.85	294.391
1954.1	284.658
1954.34	294.13
1954.59	287.392
1954.84	292.184
1955.08	299.896
1955.33	286.573
1955.58	300.143
1955.82	296.488
1956.07	290.817
1956.32	291.862
1956.56	296.72
1956.81	297.75
1957.06	289.167
1957.3	293.063
1957.55	289.26
1957.8	298.9
1958.04	286.426
1958.29	293.161
1958.54	294.091
1958.78	295.003
1959.03	292.097
1959.28	295.922
1959.52	287.231
1959.77	293.91
1960.02	287.143
1960.26	286.134
1960.51	286.082
1960.76	288.914
1961	290.793
1961.25	293.653
1961.5	289.827
1961.74	295.602
1961.99	295.615
1962.23	292.75
1962.48	292.764
1962.73	289.896
1962.97	298.548
1963.22	288.001
1963.47	294.742
1963.71	293.819
1963.96	292.883
1964.2	287.113
1964.45	282.298
1964.7	290.942
1964.94	289.976
1965.19	290.949
1965.44	294.828
1965.68	290.086
1965.93	294.956
1966.18	291.175
1966.42	287.376
1966.67	297.976
1966.91	296.048
1967.16	292.214
1967.41	289.356
1967.65	294.171
1967.9	288.419
1968.14	287.446
1968.39	296.068
1968.64	299.855
1968.88	294.973
1969.13	293.915
1969.37	295.745
1969.62	287.995
1969.87	290.818
1970.11	288.863
1970.36	287.849
1970.61	288.77
1970.85	290.659
1971.1	291.591
1971.34	292.53
1971.59	288.729
1971.84	282.04
1972.08	290.688
1972.33	284.925
1972.57	292.57
1972.82	287.721
1973.06	291.491
1973.31	285.69
1973.56	293.325
1973.8	293.304
1974.05	291.38
1974.29	286.593
1974.54	285.648
1974.78	288.552
1975.03	291.47
1975.28	299.188
1975.52	292.514
1975.77	292.543
1976.01	289.683
1976.26	287.775
1976.51	300.246
1976.75	297.358
1977	290.622
1977.24	300.178
1977.49	289.581
1977.73	290.494
1977.98	291.416
1978.22	301.931
1978.47	287.54
1978.72	288.503
1978.96	288.514
1979.21	290.431
1979.45	290.448
1979.7	293.326
1979.95	287.54
1980.19	284.61
1980.44	292.231
1980.68	293.171
1980.93	298.87
1981.17	295.013
1981.42	287.368
1981.66	284.544
1981.91	289.247
1982.16	284.61
1982.4	292.828
1982.65	288.208
1982.89	286.324
1983.14	291.777
1983.38	288.327
1983.63	288.937
1983.87	298.306
1984.12	289.206
1984.36	288.832
1984.61	287.83
1984.85	286.859
1985.1	292.443
1985.34	289.257
1985.59	295.142
1985.84	292.128
1986.08	291.517
1986.33	287.133
1986.57	293.487
1986.82	289.556
1987.06	293.724
1987.31	294.011
1987.55	287.574
1987.8	286.46
1988.04	286.359
1988.29	289.649
1988.53	290.778
1988.78	290.229
1989.02	292.396
1989.27	286.531
1989.51	291.663
1989.76	289.621
1990	289.968
1990.25	289.419
1990.49	286.93
1990.74	285.861
1990.98	289.807
1991.23	292.289
1991.47	293.316
1991.72	286.642
1991.96	289.77
1992.21	289.773
1992.45	288.104
1992.7	291.144
1992.94	287.297
1993.19	285.896
1993.43	287.51
1993.68	292.01
1993.92	286.873
1994.17	289.956
1994.41	285.402
1994.66	287.58
1994.9	288.008
1995.15	290.04
1995.39	285.005
1995.64	286.867
1995.88	286.949
1996.13	290.653
1996.37	286.57
1996.62	285.487
1996.86	286.89
1997.11	290.495
1997.35	289.671
1997.6	286.349
1997.84	289.986
1998.09	289.584
1998.33	287.646
1998.58	289.241
1998.82	289.04
1999.07	287.065
1999.31	285.348
1999.55	285.373
1999.8	288.292
2000.04	289.691
2000.29	285.786
2000.53	284.593
2000.78	288.415
2001.02	286.254
2001.27	286.07
2001.51	287.212
2001.76	283.558
2002	284.311
2002.25	288.423
2002.49	287.553
2002.73	285.002
2002.98	285.75
2003.22	286.055
2003.47	289.693
2003.71	290.573
2003.96	289.822
2004.2	288.738
2004.45	287.86
2004.69	285.567
2004.94	284.618
2005.1	288.27
2005.34	285.419
2005.59	286.35
2005.84	285.401
2006.08	287.299
2006.33	290.17
2006.58	283.563
2006.83	287.321
2007.08	291.064
2007.32	283.463
2007.57	289.066
2007.82	288.944
2008.06	287.898
2008.31	286.881
2008.56	287.756
2008.81	283.893
2009.05	294.172
2009.3	283.73
2009.55	286.487
2009.8	283.592
2010.04	277.865
2010.29	282.561
2010.54	282.553
2010.79	282.546
2011.03	285.366
2011.28	280.647
2011.53	285.342
2011.77	286.27
2012.02	285.309
2012.27	285.279
2012.52	289.922
2012.76	285.094
2013.01	287.793
2013.26	285.824
2013.51	284.774
2013.75	282.765
2014	286.362
2014.25	280.619
2014.49	290.919
2014.74	281.553
2014.99	290.046
2015.24	287.277
2015.48	283.555
2015.73	288.19
2015.98	282.717
2016.22	282.882
2016.47	288.547
2016.72	291.343
2016.96	281.898
2017.21	283.706
2017.46	284.553
2017.71	283.499
2017.95	289.012
2018.2	289.848
2018.45	283.174
2018.69	283.058
2018.94	282.022
2019.19	289.476
2019.43	284.747
2019.68	280.051
2019.93	282.854
2020.18	283.776
2020.42	281.894
2020.67	283.791
2020.92	283.807
2021.16	285.679
2021.41	286.6
2021.66	280.952
2021.9	283.719
2022.15	284.598
2022.4	294.82
2022.64	286.314
2022.89	284.387
2023.14	283.387
2023.38	288.935
2023.63	283.263
2023.88	289.752
2024.12	285.909
2024.37	287.679
2024.62	281.047
2024.86	282.825
2025.11	281.809
2025.36	289.195
2025.6	283.504
2025.85	287.288
2026.1	280.881
2026.34	284.807
2026.59	284.101
2026.84	288.078
2027.08	290.07
2027.33	291.871
2027.58	285.121
2027.82	287.559
2028.07	283.329
2028.32	285.093
2028.56	283.016
2028.81	283.554
2029.06	282.731
2029.3	282.268
2029.55	276.348
2029.79	280.761
2030.04	280.69
2030.29	284.28
2030.53	287.286
2030.78	283.679
2031.03	292.977
2031.27	277.116
2031.52	290.205
2031.77	284.693
2032.01	286.659
2032.26	287.699
2032.51	278.449
2032.75	281.322
2033	287.93
2033.24	285.217
2033.49	280.534
2033.74	283.194
2033.98	286.697
2034.23	288.301
2034.48	283.619
2034.72	281.864
2034.97	280.105
2035.21	279.352
2035.46	284.222
2035.71	284.357
2035.95	284.289
2036.2	278.558
2036.45	286.078
2036.69	283.323
2036.94	283.319
2037.18	283.303
2037.43	279.534
2037.68	284.173
2037.92	280.392
2038.17	279.414
2038.41	283.107
2038.66	284.929
2038.91	279.275
2039.15	282.964
2039.4	288.496
2039.64	286.547
2039.89	281.803
2040.14	285.461
2040.38	284.461
2040.63	279.741
2040.87	277.829
2041.12	281.542
2041.37	287.116
2041.61	291.732
2041.86	287.042
2042.1	284.177
2042.35	284.169
2042.6	280.44
2042.84	277.679
2043.09	287.086
2043.33	286.277
2043.58	279.866
2043.83	281.76
2044.07	282.672
2044.32	290.054
2044.56	281.522
2044.81	285.9
2045.05	279.872
2045.3	282.663
2045.55	288.774
2045.79	286.422
2046.04	282.303
2046.28	288.583
2046.53	287.455
2046.77	274.424
2047.02	279.914
2047.26	282.485
2047.51	284.314
2047.76	280.603
2048	286.212
2048.25	283.436
2048.49	289.092
2048.74	282.614
2048.98	286.411
2049.23	285.566
2049.48	288.475
2049.72	281.081
2049.97	290.502
2050.21	278.398
2050.46	280.276
2050.7	282.121
2050.95	284.86
2051.2	291.321
2051.44	284.788
2051.69	279.198
2051.93	280.172
2052.18	282.057
2052.42	283.028
2052.67	279.341
2052.91	281.269
2053.16	286.965
2053.4	279.607
2053.65	276.854
2053.89	281.564
2054.14	292.798
2054.39	283.436
2054.63	291.841
2054.88	280.587
2055.12	291.747
2055.37	281.433
2055.61	285.158
2055.86	286.065
2056.1	285.102
2056.35	286.956
2056.59	285.088
2056.84	287.909
2057.08	283.261
2057.33	287.039
2057.57	283.343
2057.82	284.329
2058.07	284.401
2058.31	285.402
2058.56	280.783
2058.8	289.248
2059.04	289.266
2059.29	283.668
2059.54	280.857
2059.78	276.142
2060.03	291.071
2060.27	285.44
2060.52	287.35
2060.76	288.328
2061.01	282.739
2061.25	285.56
2061.5	287.44
2061.74	281.835
2061.99	280.922
2062.23	283.764
2062.48	286.619
2062.72	282.926
2062.97	282.973
2063.21	287.698
2063.46	281.169
2063.7	278.382
2063.95	286.843
2064.19	288.756
2064.44	285.987
2064.68	286.064
2064.93	288.967
2065.17	284.356
2065.42	286.304
2065.66	284.482
2065.91	283.581
2066.15	278.895
2066.39	287.387
2066.64	284.598
2066.88	282.748
2067.13	285.607
2067.37	283.779
2067.62	280.998
2067.86	286.668
2068.11	286.684
2068.35	285.796
2068.6	283.908
2068.84	289.503
2069.09	286.594
2069.33	285.522
2069.58	281.737
2069.82	285.531
2070.07	285.67
2070.31	287.697
2070.56	294.436
2070.8	287.796
2071.04	284.887
2071.29	286.243
2071.53	289.125
2071.78	288.153
2072.02	287.193
2072.27	290.012
2072.51	280.569
2072.76	286.223
2073	283.382
2073.25	288.108
2073.49	286.235
2073.73	284.372
2073.98	285.349
2074.22	289.177
2074.47	287.376
2074.71	286.539
2074.96	293.276
2075.2	289.656
2075.45	292.586
2075.69	295.467
2075.94	287.923
2076.18	289.819
2076.42	287.896
2076.67	286.892
2076.91	284.928
2077.16	289.527
2077.4	285.733
2077.65	293.319
2077.89	290.548
2078.13	285.858
2078.38	289.662
2078.62	286.878
2078.87	286.017
2079.11	296.53
2079.35	281.477
2079.6	290.975
2079.84	290.078
2080.09	287.278
2080.33	285.387
2080.58	290.084
2080.82	286.287
2081.06	287.226
2081.31	290.055
2081.55	287.217
2081.8	290.076
2082.04	282.539
2082.29	293.895
2082.53	288.23
2082.77	289.17
2083.02	285.379
2083.26	289.15
2083.51	291.043
2083.75	285.376
2083.99	281.595
2084.24	284.437
2084.48	283.501
2084.73	290.118
2084.97	287.285
2085.21	286.341
2085.46	291.098
2085.7	290.234
2085.95	296.004
2086.19	290.39
2086.43	285.69
2086.68	284.783
2086.92	285.78
2087.17	282.962
2087.41	287.699
2087.65	293.383
2087.9	296.232
2088.14	286.782
2088.39	285.853
2088.63	286.814
2088.87	285.92
2089.12	292.597
2089.36	288.894
2089.6	287.018
2089.85	291.772
2090.09	290.848
2090.33	289.93
2090.58	283.331
2090.82	287.155
2091.07	290.978
2091.31	292.959
2091.55	287.357
2091.8	290.299
2092.04	283.752
2092.28	292.398
2092.53	285.829
2092.77	305.849
2093.02	290.729
2093.26	293.653
2093.5	288.961
2093.75	294.718
2093.99	283.324
2094.23	288.077
2094.48	289.964
2094.72	290.891
2094.96	289.891
2095.21	295.541
2095.45	287.899
2095.7	296.419
2095.94	297.349
2096.18	287.839
2096.43	291.624
2096.67	289.683
2096.91	287.726
2097.16	290.522
2097.4	294.297
2097.64	287.637
2097.89	290.467
2098.13	290.432
2098.37	287.585
2098.62	288.526
2098.86	287.561
2099.1	292.295
2099.35	292.292
2099.59	291.347
2099.83	294.205
2100.08	289.478
2100.32	283.82
2100.56	289.587
2100.81	287.743
2101.05	292.528
2101.29	290.645
2101.54	288.745
2101.78	283.992
2102.02	295.39
2102.27	297.269
2102.51	289.621
2102.75	287.666
2103	285.741
2103.24	286.68
2103.48	293.312
2103.73	288.575
2103.97	288.604
2104.21	291.499
2104.46	291.543
2104.7	290.637
2104.94	284.992
2105.18	294.561
2105.43	288.912
2105.67	290.847
2105.91	289.926
2106.16	297.545
2106.4	289.006
2106.64	295.691
2106.89	290.941
2107.13	290.906
2107.37	286.095
2107.61	287.92
2107.86	300.191
2108.1	293.461
2108.34	283.909
2108.59	287.688
2108.83	290.555
2109.07	291.592
2109.32	291.639
2109.56	287.843
2109.8	288.795
2110.04	283.095
2110.29	289.745
2110.53	288.797
2110.77	291.644
2111.01	295.421
2111.26	288.73
2111.5	288.705
2111.74	280.142
2111.99	291.54
2112.23	289.674
2112.47	288.754
2112.71	287.841
2112.96	288.87
2113.2	283.224
2113.44	288.953
2113.69	288.93
2113.93	293.658
2114.17	292.705
2114.41	289.87
2114.66	292.728
2114.9	292.71
2115.14	284.132
2115.38	286.011
2115.63	295.489
2115.87	284.025
2116.11	295.369
2116.35	284.9
2116.6	288.685
2116.84	289.623
2117.08	294.388
2117.32	289.604
2117.57	294.305
2117.81	299.951
2118.05	283.736
2118.29	291.241
2118.54	284.538
2118.78	293.012
2119.02	293.898
2119.26	289.099
2119.51	292.838
2119.75	284.269
2119.99	285.205
2120.23	294.694
2120.48	287.164
2120.72	285.297
2120.96	291.054
2121.2	282.591
2121.45	287.398
2121.69	288.407
2121.93	288.462
2122.17	294.201
2122.42	283.801
2122.66	290.479
2122.9	285.756
2123.14	285.765
2123.38	294.285
2123.63	291.404
2123.87	281.861
2124.11	288.425
2124.35	297.791
2124.6	288.169
2124.84	292.782
2125.08	283.21
2125.32	294.486
2125.57	283.988
2125.81	288.647
2126.05	294.263
2126.29	289.471
2126.53	286.57
2126.78	289.351
2127.02	289.327
2127.26	284.586
2127.5	290.24
2127.74	286.428
2127.99	280.742
2128.23	289.252
2128.47	286.417
2128.71	292.076
2128.95	288.272
2129.2	295.814
2129.44	287.296
2129.68	285.393
2129.92	292.935
2130.16	291.023
2130.41	286.27
2130.65	292.847
2130.89	286.192
2131.13	288.98
2131.37	292.717
2131.62	292.691
2131.86	289.823
2132.1	285.988
2132.34	291.6
2132.58	289.688
2132.82	292.518
2133.07	295.362
2133.31	286.881
2133.55	284.052
2133.79	288.787
2134.03	289.738
2134.28	285.956
2134.52	288.779
2134.76	289.715
2135	293.474
2135.24	284.008
2135.48	287.731
2135.73	292.353
2135.97	295.097
2136.21	292.23
2136.45	281.879
2136.69	289.431
2136.94	286.61
2137.18	289.474
2137.42	286.711
2137.66	295.163
2137.9	289.421
2138.14	289.363
2138.39	290.374
2138.63	283.868
2138.87	291.479
2139.11	283.763
2139.35	294.98
2139.59	297.756
2139.83	283.58
2140.08	285.428
2140.32	289.166
2140.56	282.551
2140.8	290.063
2141.04	287.246
2141.28	280.588
2141.53	286.175
2141.77	285.213
2142.01	284.274
2142.25	284.337
2142.49	283.438
2142.73	293.122
2142.97	290.132
2143.21	288.406
2143.46	293.19
2143.7	287.594
2143.94	286.764
2144.18	288.744
2144.42	282.215
2144.66	291.43
2144.9	287.717
2145.15	287.727
2145.39	292.41
2145.63	291.445
2145.87	287.66
2146.11	289.517
2146.35	286.674
2146.59	284.766
2146.83	291.303
2147.08	281.868
2147.32	290.289
2147.56	284.622
2147.8	297.739
2148.04	281.739
2148.28	291.091
2148.52	284.473
2148.76	290.046
2149.01	285.28
2149.25	287.979
2149.49	289.786
2149.73	291.584
2149.97	281.216
2150.21	292.437
2150.45	285.873
2150.69	285.9
2150.93	284.072
2151.18	288.792
2151.42	285.085
2151.66	286.046
2151.9	284.204
2152.14	285.1
2152.38	279.433
2152.62	286.882
2152.86	282.149
2153.1	288.686
2153.34	288.658
2153.59	284.859
2153.83	286.661
2154.07	288.432
2154.31	288.311
2154.55	284.449
2154.79	288.065
2155.03	282.363
2155.27	287.887
2155.51	278.47
2155.75	285.893
2155.99	285.864
2156.23	286.787
2156.47	285.846
2156.72	290.52
2156.96	282.136
2157.2	289.653
2157.44	286.904
2157.68	280.406
2157.92	284.156
2158.16	282.284
2158.4	286.01
2158.64	286.919
2158.88	288.751
2159.12	284.966
2159.36	287.71
2159.6	286.703
2159.84	283.831
2160.09	289.369
2160.33	288.38
2160.57	293.017
2160.81	286.469
2161.05	287.374
2161.29	287.348
2161.53	280.809
2161.77	286.406
2162.01	286.408
2162.25	282.671
2162.49	288.241
2162.73	294.732
2162.97	293.767
2163.21	283.48
2163.45	289.976
2163.69	289.009
2163.93	282.418
2164.17	283.277
2164.41	286.028
2164.66	282.319
2164.9	290.731
2165.14	281.417
2165.38	283.286
2165.62	283.289
2165.86	285.117
2166.1	287.882
2166.34	285.043
2166.58	288.71
2166.82	288.669
2167.06	285.806
2167.3	288.511
2167.54	283.715
2167.78	283.588
2168.02	280.761
2168.26	285.406
2168.5	291.002
2168.74	291.044
2168.98	279.016
2169.22	283.748
2169.46	295.948
2169.7	283.962
2169.94	282.162
2170.18	287.773
2170.42	284.957
2170.66	283.968
2170.9	292.321
2171.14	284.752
2171.38	282.689
2171.62	280.73
2171.86	284.396
2172.1	285.276
2172.34	292.672
2172.58	276.87
2172.82	284.299
2173.06	286.155
2173.3	287.107
2173.54	288.073
2173.78	286.242
2174.02	284.396
2174.26	288.118
2174.5	291.834
2174.74	281.605
2174.98	286.234
2175.22	284.357
2175.46	283.419
2175.7	287.12
2175.94	284.308
2176.18	287.981
2176.42	283.32
2176.66	284.25
2176.9	289.832
2177.14	287.979
2177.38	287.975
2177.62	291.7
2177.86	298.172
2178.1	287.877
2178.34	283.18
2178.58	282.246
2178.82	291.543
2179.06	288.763
2179.3	283.195
2179.54	285.052
2179.78	282.265
2180.02	283.185
2180.26	281.31
2180.5	287.792
2180.74	284.999
2180.98	276.626
2181.22	290.515
2181.46	294.197
2181.7	292.324
2181.94	291.358
2182.18	284.837
2182.42	290.375
2182.66	286.608
2182.9	288.396
2183.14	280.897
2183.38	283.619
2183.62	288.207
2183.85	286.314
2184.09	281.669
2184.33	284.461
2184.57	286.342
2184.81	282.658
2185.05	280.828
2185.29	283.645
2185.53	285.549
2185.77	281.892
2186.01	281.017
2186.25	288.522
2186.49	292.322
2186.73	285.912
2186.97	288.782
2187.21	291.631
2187.45	281.428
2187.69	284.183
2187.93	286.92
2188.16	289.649
2188.41	285.874
2188.64	283.949
2188.88	283.871
2189.12	286.558
2189.36	285.554
2189.6	285.517
2189.84	287.362
2190.08	284.588
2190.32	284.616
2190.56	283.71
2190.8	281.858
2191.04	285.585
2191.28	286.537
2191.51	281.927
2191.76	287.518
2191.99	280.122
2192.23	285.715
2192.47	290.405
2192.71	294.168
2192.95	289.578
2193.19	304.499
2193.43	285.132
2193.67	289.916
2193.91	294.658
2194.15	282.625
2194.39	283.536
2194.62	291.87
2194.86	289.052
2195.1	293.654
2195.34	287.086
2195.58	285.147
2195.82	285.975
2196.06	290.525
2196.3	279.319
2196.54	286.688
2196.77	284.785
2197.01	281.034
2197.25	286.604
2197.49	283.83
2197.73	288.501
2197.97	283.934
2198.21	289.576
2198.45	292.45
2198.69	289.768
2198.93	301.002
2199.17	283.447
2199.4	287.261
2199.64	291.125
2199.88	294.075
2200.12	283.041
2200.36	287.816
2200.6	280.448
2200.84	281.45
2201.08	297.162
2201.31	285.683
2201.55	280.418
2201.79	284.661
2202.03	284.869
2202.27	282.58
2202.51	287.443
2202.75	288.293
2202.98	282.654
2203.22	278.289
2203.46	290.35
2203.7	287.203
2203.94	285.323
2204.18	285.363
2204.42	291.689
2204.66	290.498
2204.89	285.616
2205.13	289.179
2205.37	283.559
2205.61	286.358
2205.85	286.426
2206.09	281.781
2206.33	285.399
2206.56	290.997
2206.8	283.604
2207.04	286.448
2207.28	288.37
2207.52	293.086
2207.76	283.844
2208	286.697
2208.23	285.819
2208.47	286.793
2208.71	287.755
2208.95	286.843
2209.19	287.777
2209.43	283.113
2209.67	286.851
2209.9	288.753
2210.14	285.07
2210.38	280.459
2210.62	281.437
2210.86	288.007
2211.09	288.057
2211.33	284.392
2211.57	290.05
2211.81	286.365
2212.05	287.32
2212.29	282.637
2212.52	284.475
2212.76	287.247
2213	294.66
2213.24	284.355
2213.48	289.968
2213.72	287.23
2213.95	283.621
2214.19	287.464
2214.43	284.696
2214.67	285.656
2214.91	292.211
2215.15	295.027
2215.38	284.766
2215.62	291.304
2215.86	292.235
2216.1	282.892
2216.34	279.146
2216.57	291.273
2216.81	290.34
2217.05	293.154
2217.29	289.434
2217.53	290.368
2217.76	286.632
2218	286.646
2218.24	284.809
2218.48	289.52
2218.72	284.904
2218.95	279.353
2219.19	288.729
2219.43	285.964
2219.67	282.256
2219.91	282.25
2220.14	286.912
2220.38	286.903
2220.62	283.136
2220.86	290.543
2221.09	284.863
2221.33	286.668
2221.57	284.748
2221.81	288.447
2222.05	288.441
2222.29	289.397
2222.52	290.375
2222.76	287.618
2223	286.735
2223.24	288.674
2223.47	288.761
2223.71	283.244
2223.95	285.197
2224.19	286.206
2224.43	281.594
2224.66	291.014
2224.9	291.089
2225.14	280.876
2225.38	280.94
2225.61	283.811
2225.85	289.496
2226.09	289.543
2226.33	289.607
2226.56	291.54
2226.8	289.714
2227.04	294.439
2227.28	283.208
2227.51	291.642
2227.75	286.932
2227.99	286.913
2228.23	288.77
2228.47	288.756
2228.7	285.93
2228.94	284.993
2229.18	290.67
2229.42	290.748
2229.65	288.007
2229.89	288.06
2230.13	289.056
2230.36	283.485
2230.6	291.059
2230.84	292.069
2231.08	283.688
2231.31	295.019
2231.55	291.322
2231.79	296.081
2232.03	282.04
2232.27	293.378
2232.5	289.674
2232.74	298.194
2232.98	286.961
2233.21	292.663
2233.45	294.589
2233.69	296.507
2233.93	290.845
2234.16	292.705
2234.4	287.966
2234.64	285.093
2234.87	290.636
2235.11	292.444
2235.35	294.333
2235.59	289.645
2235.82	284.961
2236.06	302.849
2236.3	291.576
2236.54	294.415
2236.77	294.487
2237.01	288.905
2237.25	287.136
2237.48	291.968
2237.72	288.314
2237.96	282.741
2238.2	296.958
2238.43	291.394
2238.67	285.842
2238.91	288.694
2239.14	289.614
2239.38	296.179
2239.62	301.755
2239.85	296.97
2240.09	292.223
2240.33	285.747
2240.57	288.69
2240.8	289.654
2241.04	292.506
2241.28	285.925
2241.51	299.158
2241.75	286.916
2241.99	291.669
2242.22	293.596
2242.46	286.996
2242.7	296.427
2242.94	287.894
2243.17	283.133
2243.41	281.226
2243.65	287.825
2243.88	286.892
2244.12	294.489
2244.36	289.857
2244.59	300.367
2244.83	292.921
2245.07	296.773
2245.3	287.38
2245.54	295.008
2245.78	294.125
2246.01	290.394
2246.25	290.425
2246.49	294.256
2246.72	292.41
2246.96	291.496
2247.2	288.672
2247.43	291.51
2247.67	295.282
2247.91	293.373
2248.14	301.873
2248.38	289.557
2248.62	290.488
2248.85	290.478
2249.09	283.905
2249.33	289.622
2249.56	293.407
2249.8	295.265
2250.04	293.317
2250.27	287.582
2250.51	293.189
2250.75	286.518
2250.98	299.715
2251.22	287.409
2251.46	288.367
2251.69	287.455
2251.93	289.392
2252.17	295.129
2252.4	286.709
2252.64	300.12
2252.88	293.61
2253.11	288.015
2253.35	286.191
2253.59	293.829
2253.82	292.94
2254.06	288.241
2254.29	295.835
2254.53	295.809
2254.77	296.772
2255	291.088
2255.24	289.204
2255.48	296.804
2255.71	289.269
2255.95	294.069
2256.19	290.328
2256.42	294.173
2256.66	290.428
2256.9	292.376
2257.13	298.121
2257.37	289.61
2257.6	296.277
2257.84	287.745
2258.08	288.716
2258.31	295.394
2258.55	301.138
2258.78	292.634
2259.02	293.616
2259.26	290.791
2259.49	287.976
2259.73	296.563
2259.97	289.941
2260.2	294.724
2260.44	286.213
2260.67	296.769
2260.91	285.419
2261.15	297.804
2261.38	288.309
2261.62	292.142
2261.85	298.831
2262.09	295.068
2262.33	295.132
2262.56	295.2
2262.8	289.566
2263.03	295.374
2263.27	291.667
2263.51	295.6
2263.74	300.484
2263.98	293.912
2264.21	300.683
2264.45	295.984
2264.69	290.318
2264.92	300.88
2265.16	286.565
2265.39	291.355
2265.63	291.335
2265.86	288.409
2266.1	304.574
2266.34	294.955
2266.57	286.301
2266.81	287.21
2267.05	293.847
2267.28	292.848
2267.52	288.97
2267.75	292.736
2267.99	296.533
2268.22	296.543
2268.46	301.354
2268.7	290.928
2268.93	294.824
2269.17	296.819
2269.4	295.001
2269.64	292.242
2269.87	296.159
2270.11	295.264
2270.35	286.702
2270.58	291.546
2270.82	295.426
2271.05	290.685
2271.29	291.685
2271.52	292.7
2271.76	296.56
2271.99	289.871
2272.23	293.714
2272.47	293.732
2272.7	294.708
2272.94	294.726
2273.17	295.701
2273.41	296.677
2273.64	292.866
2273.88	292.881
2274.12	302.471
2274.35	295.789
2274.58	293.898
2274.82	297.746
2275.06	292.024
2275.29	290.1
2275.53	298.762
2275.76	298.836
2276	297.955
2276.23	292.274
2276.47	296.17
2276.7	299.114
2276.94	290.583
2277.17	299.329
2277.41	298.489
2277.65	296.704
2277.88	289.069
2278.12	290.054
2278.35	291.021
2278.59	297.735
2278.82	301.561
2279.06	301.513
2279.29	305.214
2279.53	298.41
2279.76	293.534
2280	296.343
2280.23	287.657
2280.47	290.492
2280.71	294.3
2280.94	295.223
2281.17	295.193
2281.41	292.353
2281.65	293.334
2281.88	296.254
2282.11	297.274
2282.35	297.346
2282.59	293.579
2282.82	302.301
2283.06	296.662
2283.29	298.726
2283.53	301.736
2283.76	296.116
2284	296.202
2284.23	289.504
2284.47	297.27
2284.7	294.455
2284.94	297.367
2285.17	296.42
2285.41	290.588
2285.64	293.359
2285.88	298.159
2286.11	304.916
2286.35	302.077
2286.58	297.409
2286.82	297.533
2287.05	294.693
2287.29	302.428
2287.52	295.776
2287.76	296.722
2287.99	295.715
2288.23	292.783
2288.46	299.475
2288.69	294.573
2288.93	299.274
2289.17	302.061
2289.4	293.277
2289.63	294.198
2289.87	292.245
2290.1	297.055
2290.34	288.409
2290.57	296.144
2290.81	297.185
2291.04	296.327
2291.28	297.36
2291.51	301.265
2291.75	290.73
2291.98	298.49
2292.22	294.711
2292.45	293.817
2292.69	296.762
2292.92	294.882
2293.15	292.99
2293.39	298.796
2293.62	297.812
2293.86	295.851
2294.09	294.845
2294.33	291.899
2294.56	300.528
2294.8	306.267
2295.03	293.706
2295.27	292.704
2295.5	296.521
2295.73	292.611
2295.97	296.332
2296.2	298.238
2296.44	296.34
2296.67	295.421
2296.91	293.553
2297.14	294.583
2297.38	291.778
2297.61	299.589
2297.85	293.879
2298.08	294.886
2298.31	288.199
2298.55	304.666
2298.78	298.95
2299.02	298.041
2299.25	298.077
2299.49	296.143
2299.72	308.69
2299.95	297.105
2300.19	292.316
2300.42	292.37
2300.66	292.41
2300.89	299.203
2301.13	300.192
2301.36	297.305
2301.59	299.23
2301.83	292.449
2302.06	296.288
2302.3	294.368
2302.53	294.364
2302.77	291.453
2303	294.345
2303.23	294.351
2303.47	295.345
2303.7	297.329
2303.94	293.518
2304.17	296.45
2304.4	292.63
2304.64	299.451
2304.87	298.524
2305.11	292.743
2305.34	290.836
2305.58	293.773
2305.81	297.68
2306.04	305.428
2306.28	298.671
2306.51	298.669
2306.75	292.863
2306.98	290.907
2307.21	298.601
2307.45	299.546
2307.68	299.522
2307.92	296.597
2308.15	299.497
2308.38	299.509
2308.62	298.59
2308.85	295.743
2309.09	297.75
2309.32	301.716
2309.55	301.787
2309.79	295.048
2310.02	296.995
2310.26	293.12
2310.49	293.092
2310.72	297.865
2310.96	289.975
2311.19	299.435
2311.42	293.537
2311.66	300.216
2311.89	292.453
2312.13	294.332
2312.36	302.977
2312.59	294.287
2312.83	293.356
2313.06	300.198
2313.29	301.287
2313.53	300.414
2313.76	294.707
2314	298.666
2314.23	295.876
2314.46	292.116
2314.7	299.909
2314.93	297.909
2315.16	297.832
2315.4	294.872
2315.63	292.863
2315.87	305.269
2316.1	295.515
2316.33	292.576
2316.57	296.431
2316.8	295.481
2317.03	296.466
2317.27	297.506
2317.5	297.567
2317.73	297.482
2317.97	295.492
2318.2	292.559
2318.43	297.341
2318.67	304.05
2318.9	300.145
2319.13	296.252
2319.37	295.266
2319.6	299.126
2319.84	300.101
2320.07	302.031
2320.3	301.094
2320.54	304.036
2320.77	291.538
2321	298.353
2321.23	301.317
2321.47	299.471
2321.7	309.23
2321.94	293.849
2322.17	303.553
2322.4	305.478
2322.64	299.689
2322.87	305.514
2323.1	291.032
2323.33	298.788
2323.57	304.603
2323.8	301.693
2324.03	315.217
2324.27	298.714
2324.5	311.186
2324.73	308.178
2324.97	307.136
2325.2	315.768
2325.43	314.741
2325.67	315.643
2325.9	317.506
2326.13	322.262
2326.37	325.086
2326.6	332.732
2326.83	339.408
2327.07	352.852
2327.3	388.461
2327.53	404.799
2327.77	433.729
2328	520.486
2328.23	598.574
2328.46	606.183
2328.7	570.411
2328.93	499.946
2329.16	395.865
2329.4	370.807
2329.63	339.063
2329.86	340.014
2330.09	308.202
2330.33	330.325
2330.56	307.2
2330.79	307.219
2331.03	306.301
2331.26	302.499
2331.49	307.39
2331.73	302.51
2331.96	308.222
2332.19	297.584
2332.42	302.359
2332.66	297.505
2332.89	296.505
2333.12	298.398
2333.36	298.37
2333.59	300.257
2333.82	299.245
2334.05	297.247
2334.29	301.046
2334.52	301.976
2334.75	303.888
2334.99	296.18
2335.22	292.343
2335.45	298.135
2335.68	293.322
2335.92	296.178
2336.15	294.235
2336.38	289.415
2336.61	294.213
2336.85	299.968
2337.08	296.111
2337.31	294.166
2337.54	303.758
2337.78	297.016
2338.01	299.886
2338.24	291.227
2338.47	297.004
2338.71	299.897
2338.94	297.976
2339.17	291.24
2339.41	295.064
2339.64	292.147
2339.87	301.708
2340.1	298.775
2340.34	297.751
2340.57	295.749
2340.8	293.735
2341.03	308.02
2341.27	295.457
2341.5	304.991
2341.73	297.227
2341.96	299.019
2342.2	295.215
2342.43	290.584
2342.66	285.189
2342.89	297.763
2343.13	295.136
2343.36	289.657
2343.59	295.985
2343.82	304.456
2344.05	296.911
2344.29	288.395
2344.52	296.766
2344.75	291.164
2344.98	298.401
2345.22	290.917
2345.45	290.757
2345.68	292.441
2345.91	294.849
2346.14	291.298
2346.38	290.897
2346.61	292.394
2346.84	295.427
2347.07	293.991
2347.31	290.337
2347.54	294.701
2347.77	295.497
2348	297.084
2348.23	291.343
2348.47	292.329
2348.7	292.48
2348.93	290.453
2349.16	296.955
2349.39	301.535
2349.63	293.207
2349.86	288.07
2350.09	291.64
2350.32	290.908
2350.56	296.744
2350.79	290.357
2351.02	290.278
2351.25	291.881
2351.48	291.651
2351.72	290.782
2351.95	294.185
2352.18	289.25
2352.41	293.441
2352.64	288.085
2352.88	287.304
2353.11	293.358
2353.34	293.346
2353.57	292.127
2353.8	292.462
2354.03	292.811
2354.27	289.983
2354.5	294.222
2354.73	297.377
2354.96	289.657
2355.19	290.322
2355.43	291.785
2355.66	293.955
2355.89	297.277
2356.12	290.987
2356.35	294.97
2356.59	292.098
2356.82	291.516
2357.05	295.707
2357.28	285.705
2357.51	290.318
2357.74	289.042
2357.98	290.498
2358.21	294.631
2358.44	291.725
2358.67	296.877
2358.9	291.483
2359.13	293.536
2359.37	289.908
2359.6	292.071
2359.83	291.175
2360.06	292.243
2360.29	291.303
2360.52	292.528
2360.75	289.554
2360.99	288.827
2361.22	290.442
2361.45	292.663
2361.68	289.713
2361.91	290.369
2362.14	294.569
2362.38	291.599
2362.61	289.847
2362.84	284.66
2363.07	287.312
2363.3	290.04
2363.53	289.747
2363.77	290.437
2364	291.086
2364.23	291.689
2364.46	291.519
2364.69	288.354
2364.92	286.06
2365.15	288.961
2365.27	291.855
2365.51	286.957
2365.74	284.981
2365.98	283.071
2366.21	285.889
2366.45	292.571
2366.68	298.393
2366.92	290.086
2367.15	291.061
2367.38	286.312
2367.62	290.074
2367.85	295.653
2368.09	288.039
2368.32	287.051
2368.56	288.893
2368.79	294.504
2369.02	285.949
2369.26	300.039
2369.49	297.136
2369.73	288.572
2369.96	283.785
2370.2	289.379
2370.43	288.387
2370.66	287.385
2370.9	285.451
2371.13	286.356
2371.37	290.096
2371.6	288.18
2371.83	284.356
2372.07	289.962
2372.3	288.97
2372.54	294.575
2372.77	288.903
2373	288.889
2373.24	286.989
2373.47	285.056
2373.71	285.93
2373.94	289.64
2374.17	285.831
2374.41	291.422
2374.64	286.667
2374.88	286.605
2375.11	285.613
2375.34	291.219
2375.58	291.197
2375.81	292.117
2376.05	289.269
2376.28	285.457
2376.51	290.106
2376.75	288.202
2376.98	286.301
2377.22	287.207
2377.45	288.094
2377.68	283.345
2377.92	292.681
2378.15	284.182
2378.39	288.813
2378.62	288.751
2378.85	287.734
2379.09	287.631
2379.32	286.602
2379.56	287.481
2379.79	283.704
2380.02	289.298
2380.26	286.466
2380.49	299.554
2380.72	293.925
2380.96	287.368
2381.19	289.246
2381.42	280.834
2381.66	287.377
2381.89	292.038
2382.13	293.901
2382.36	289.204
2382.59	281.69
2382.83	297.58
2383.06	283.534
2383.29	286.331
2383.53	286.322
2383.76	284.45
2384	291.938
2384.23	287.245
2384.46	295.647
2384.7	280.656
2384.93	291.834
2385.16	288.047
2385.4	282.377
2385.63	289.775
2385.86	285.961
2386.1	287.766
2386.33	289.536
2386.56	282.911
2386.8	291.233
2387.03	291.126
2387.26	284.527
2387.5	289.179
2387.73	284.522
2387.97	288.254
2388.2	285.448
2388.43	282.63
2388.67	289.133
2388.9	290.964
2389.13	288.166
2389.36	286.285
2389.6	282.543
2389.83	284.404
2390.06	279.742
2390.3	285.348
2390.53	283.501
2390.77	281.657
2391	284.467
2391.23	288.205
2391.47	289.127
2391.7	288.174
2391.93	294.676
2392.16	290.918
2392.4	280.612
2392.63	279.582
2392.86	287.86
2393.1	283.101
2393.33	283.909
2393.56	283.845
2393.8	285.652
2394.03	284.705
2394.26	280.898
2394.5	283.614
2394.73	281.792
2394.96	284.635
2395.2	282.887
2395.43	289.126
2395.66	286.27
2395.9	284.405
2396.13	293.98
2396.36	284.751
2396.59	281.706
2396.83	282.604
2397.06	285.384
2397.29	289.116
2397.53	291.922
2397.76	283.529
2397.99	287.245
2398.23	286.303
2398.46	290.031
2398.69	285.364
2398.92	290.957
2399.16	286.307
2399.39	295.638
2399.62	290.979
2399.86	282.582
2400.09	281.64
2400.32	290.949
2400.56	290.924
2400.79	283.438
2401.02	286.214
2401.25	283.397
2401.49	284.309
2401.72	286.147
2401.95	283.309
2402.18	284.174
2402.42	282.215
2402.65	291.397
2402.88	292.181
2403.12	282.67
2403.35	284.168
2403.58	292.498
2403.81	285.789
2404.05	292.547
2404.28	289.701
2404.51	286.908
2404.74	289.879
2404.98	283.423
2405.21	280.606
2405.44	287.148
2405.68	289.023
2405.91	280.653
2406.14	290.003
2406.37	290.024
2406.61	285.367
2406.84	287.231
2407.07	285.361
2407.3	280.694
2407.54	283.486
2407.77	287.209
2408	292.798
2408.23	283.471
2408.47	289.991
2408.7	285.312
2408.93	287.152
2409.16	288.064
2409.4	284.344
2409.63	288.091
2409.86	291.827
2410.09	286.231
2410.33	282.5
2410.56	285.307
2410.79	278.797
2411.02	281.59
2411.26	289.976
2411.49	289.998
2411.72	290.982
2411.95	282.633
2412.19	282.661
2412.42	289.213
2412.65	286.459
2412.88	282.755
2413.11	284.631
2413.35	283.696
2413.58	284.607
2413.81	295.79
2414.04	288.326
2414.28	292.047
2414.51	285.482
2414.74	298.487
2414.97	284.45
2415.21	286.279
2415.44	280.653
2415.67	283.398
2415.9	285.223
2416.13	288.939
2416.37	290.814
2416.6	288.98
2416.83	292.76
2417.06	283.484
2417.29	287.297
2417.53	284.524
2417.76	290.135
2417.99	292.061
2418.22	282.773
2418.45	287.545
2418.69	286.715
2418.92	285.858
2419.15	280.314
2419.38	294.381
2419.61	287.884
2419.85	286.042
2420.08	294.453
2420.31	285.115
2420.54	291.684
2420.78	288.941
2421.01	285.238
2421.24	282.275
2421.47	292.398
2421.7	280.216
2421.94	285.815
2422.17	287.707
2422.4	286.83
2422.63	283.183
2422.86	290.788
2423.09	293.764
2423.33	295.783
2423.56	284.5
2423.79	289.035
2424.02	288.19
2424.25	282.631
2424.48	294.861
2424.72	286.5
2424.95	288.436
2425.18	281.941
2425.41	290.432
2425.64	285.802
2425.88	290.539
2426.11	297.156
2426.34	285.029
2426.57	288.825
2426.8	294.482
2427.03	285.134
2427.27	295.482
2427.5	287.062
2427.73	281.437
2427.96	292.68
2428.19	290.775
2428.43	293.557
2428.66	283.229
2428.89	285.098
2429.12	283.21
2429.35	292.578
2429.58	292.575
2429.81	285.069
2430.05	295.381
2430.28	286.939
2430.51	293.524
2430.74	286.968
2430.97	285.126
2431.2	287.994
2431.44	283.392
2431.67	291.94
2431.9	287.338
2432.13	280.85
2432.36	296.898
2432.59	290.394
2432.82	289.521
2433.05	287.694
2433.29	287.729
2433.52	290.545
2433.75	286.799
2433.98	287.772
2434.21	300.01
2434.44	285.911
2434.68	290.671
2434.91	285.084
2435.14	290.781
2435.37	298.363
2435.6	291.845
2435.83	290.037
2436.06	291.057
2436.29	286.413
2436.53	288.306
2436.76	286.432
2436.99	291.16
2437.22	285.523
2437.45	293.063
2437.68	290.178
2437.91	279.806
2438.14	292.071
2438.38	295.892
2438.61	289.354
2438.84	290.354
2439.07	286.665
2439.3	293.336
2439.53	284.917
2439.76	286.873
2439.99	287.889
2440.23	287.026
2440.46	281.425
2440.69	289.962
2440.92	287.145
2441.15	288.082
2441.38	298.433
2441.61	288.996
2441.84	289.037
2442.07	290.985
2442.3	291.044
2442.53	292.993
2442.77	290.211
2443	297.822
2443.23	294.07
2443.46	282.768
2443.69	287.557
2443.92	290.445
2444.15	289.535
2444.38	287.679
2444.61	289.612
2444.84	294.393
2445.08	284.979
2445.31	293.551
2445.54	289.802
2445.77	288.879
2446	291.761
2446.23	290.885
2446.46	293.8
2446.69	292.92
2446.92	295.829
2447.15	283.563
2447.38	294.05
2447.61	285.543
2447.85	292.193
2448.08	289.329
2448.31	290.236
2448.54	292.105
2448.77	292.106
2449	288.325
2449.23	288.344
2449.46	290.294
2449.69	289.408
2449.92	294.202
2450.15	291.414
2450.38	293.399
2450.61	298.259
2450.85	288.898
2451.08	294.682
2451.31	294.712
2451.54	292.833
2451.77	290.017
2452	288.156
2452.23	287.232
2452.46	291.041
2452.69	291.006
2452.92	290.962
2453.15	299.486
2453.38	292.814
2453.61	289.963
2453.84	294.733
2454.07	290.965
2454.3	288.163
2454.53	287.274
2454.76	293.052
2455	291.228
2455.22	287.508
2455.46	288.524
2455.69	295.227
2455.92	285.761
2456.15	290.613
2456.38	285.924
2456.61	288.845
2456.84	289.844
2457.07	287.004
2457.3	287.01
2457.53	292.745
2457.76	297.527
2457.99	293.722
2458.22	286.096
2458.45	290.855
2458.68	300.405
2458.91	301.388
2459.14	287.124
2459.37	291.94
2459.6	300.572
2459.83	294.892
2460.06	304.476
2460.29	288.292
2460.52	288.323
2460.75	295.024
2460.98	297.898
2461.21	292.169
2461.44	292.155
2461.67	291.172
2461.9	292.134
2462.14	299.801
2462.36	291.209
2462.59	295.071
2462.83	285.486
2463.05	284.503
2463.29	284.638
2463.52	288.863
2463.74	291.391
2463.98	298.828
2464.21	295.87
2464.43	297.765
2464.67	291.066
2464.9	298.751
2465.12	290.15
2465.36	297.822
2465.59	291.09
2465.81	290.089
2466.05	293.897
2466.28	295.783
2466.5	289.079
2466.74	294.83
2466.97	294.888
2467.19	294.973
2467.43	290.154
2467.65	300.592
2467.88	291.884
2468.12	294.675
2468.34	292.722
2468.57	295.579
2468.8	294.624
2469.03	302.299
2469.26	291.813
2469.49	291.844
2469.72	292.83
2469.95	296.694
2470.18	289.07
2470.41	293.846
2470.64	298.646
2470.87	292.953
2471.1	293.955
2471.33	294.018
2471.56	290.279
2471.79	294.2
2472.02	292.353
2472.25	293.356
2472.48	290.5
2472.71	294.358
2472.94	296.326
2473.17	296.355
2473.4	295.197
2473.63	289.56
2473.86	299.29
2474.09	291.166
2474.32	300.122
2474.55	293.613
2474.78	286.907
2475.01	292.906
2475.24	282.378
2475.47	294.94
2475.7	296.992
2475.92	287.493
2476.15	295.229
2476.38	289.55
2476.61	297.244
2476.84	297.27
2477.07	295.296
2477.3	303.87
2477.53	297.002
2477.76	294.019
2477.99	301.412
2478.22	294.101
2478.45	291.542
2478.68	292.585
2478.91	291.571
2479.14	291.275
2479.37	292.814
2479.6	296.557
2479.83	291.067
2480.05	296.715
2480.28	296.127
2480.51	296.331
2480.74	290.378
2480.97	296.732
2481.2	298.012
2481.43	298.06
2481.66	300.849
2481.89	296.072
2482.12	295.126
2482.35	293.206
2482.58	292.228
2482.81	299.866
2483.04	297.939
2483.27	294.096
2483.49	296
2483.72	290.235
2483.95	294.994
2484.18	294.975
2484.41	293.062
2484.64	294.027
2484.87	293.071
2485.1	291.147
2485.33	294.995
2485.56	294.076
2485.78	301.764
2486.02	290.268
2486.24	295.048
2486.47	295.03
2486.7	291.166
2486.93	295.904
2487.16	295.837
2487.39	302.488
2487.62	297.675
2487.85	294.795
2488.08	303.391
2488.31	295.695
2488.53	298.487
2488.76	289.793
2488.99	289.778
2489.22	289.767
2489.45	295.509
2489.68	301.262
2489.91	289.803
2490.14	299.378
2490.37	294.599
2490.59	299.382
2490.82	295.554
2491.05	293.626
2491.28	285.945
2491.51	307.897
2491.74	296.373
2491.97	293.439
2492.2	292.378
2492.43	293.202
2492.65	294.994
2492.88	290.086
2493.11	294.688
2493.34	290.79
2493.57	300.332
2493.8	291.76
2494.03	291.028
2494.25	289.647
2494.48	293.527
2494.71	300.09
2494.94	296.307
2495.17	296.316
2495.4	294.244
2495.63	296.66
2495.86	303.245
2496.08	293.698
2496.31	292.6
2496.54	292.5
2496.77	299.109
2497	292.373
2497.23	294.175
2497.46	294.034
2497.69	286.39
2497.91	289.284
2498.14	290.287
2498.37	299.858
2498.6	293.249
2498.83	288.547
2499.06	289.544
2499.28	288.623
2499.51	294.34
2499.74	292.389
2499.97	291.358
2500.2	296.904
2500.43	292.044
2500.66	291.005
2500.88	291.874
2501.11	291.789
2501.34	295.515
2501.57	292.603
2501.8	286.851
2502.03	291.556
2502.25	290.574
2502.48	297.198
2502.71	295.254
2502.94	295.231
2503.17	292.412
2503.4	291.439
2503.62	298.045
2503.85	292.301
2504.08	297.941
2504.31	288.409
2504.54	287.412
2504.77	293.011
2504.99	294.822
2505.22	294.795
2505.45	301.489
2505.68	295.912
2505.91	290.395
2506.14	297.259
2506.36	292.67
2506.59	294.429
2506.82	294.234
2507.05	300.865
2507.28	294.222
2507.5	289.492
2507.73	289.516
2507.96	285.743
2508.19	299.051
2508.42	291.465
2508.64	291.462
2508.87	298.093
2509.1	304.713
2509.33	299.93
2509.56	287.523
2509.79	302.625
2510.01	293.055
2510.24	296.743
2510.47	294.721
2510.7	294.577
2510.92	290.63
2511.15	292.393
2511.38	292.295
2511.61	287.493
2511.84	291.233
2512.06	283.646
2512.29	290.257
2512.52	295.928
2512.75	285.529
2512.98	291.207
2513.2	289.362
2513.43	296.046
2513.66	288.542
2513.89	302.757
2514.11	291.369
2514.34	287.554
2514.57	293.198
2514.8	287.469
2515.03	293.991
2515.26	292.945
2515.48	291.9
2515.71	290.852
2515.94	295.459
2516.17	290.615
2516.39	295.205
2516.62	295.117
2516.85	295.037
2517.08	300.607
2517.3	292.989
2517.53	291.982
2517.76	289.107
2517.99	293.76
2518.21	288.053
2518.44	288.922
2518.67	293.603
2518.9	287.954
2519.13	289.848
2519.35	293.632
2519.58	284.25
2519.81	285.253
2520.04	296.619
2520.26	289.145
2520.49	286.38
2520.72	293.044
2520.95	285.525
2521.17	291.188
2521.4	291.179
2521.63	288.34
2521.86	292.977
2522.08	289.079
2522.31	297.507
2522.54	287.104
2522.77	290.847
2522.99	286.121
2523.22	293.632
2523.45	288.916
2523.68	291.749
2523.9	299.256
2524.13	292.628
2524.36	289.782
2524.58	294.463
2524.81	285.975
2525.04	290.62
2525.27	288.633
2525.49	293.203
2525.72	285.547
2525.95	284.514
2526.18	298.507
2526.4	289.97
2526.63	296.47
2526.86	288.953
2527.09	297.375
2527.31	291.731
2527.54	292.666
2527.77	290.8
2527.99	289.886
2528.22	288.045
2528.45	293.701
2528.68	295.614
2528.9	292.843
2529.13	291.949
2529.36	288.213
2529.58	287.274
2529.81	291.961
2530.04	294.772
2530.27	291.01
2530.49	291.927
2530.72	296.575
2530.95	295.583
2531.18	289.923
2531.4	299.263
2531.63	280.451
2531.86	286.034
2532.08	302.881
2532.31	292.502
2532.54	286.795
2532.76	296.124
2532.99	292.349
2533.22	283.918
2533.45	290.501
2533.67	294.282
2533.9	289.647
2534.13	289.669
2534.35	285.914
2534.58	294.29
2534.81	291.428
2535.03	286.703
2535.26	288.553
2535.49	282.925
2535.71	289.48
2535.94	294.163
2536.17	289.473
2536.4	288.516
2536.62	291.284
2536.85	290.298
2537.08	289.331
2537.3	291.169
2537.53	290.187
2537.76	290.138
2537.98	289.149
2538.21	290.95
2538.44	291.815
2538.66	289.879
2538.89	297.29
2539.12	287.858
2539.34	286.901
2539.57	289.655
2539.8	293.351
2540.02	291.45
2540.25	295.165
2540.48	288.616
2540.7	290.486
2540.93	288.635
2541.16	288.682
2541.38	294.387
2541.61	286.033
2541.84	285.122
2542.06	286.082
2542.29	302.939
2542.52	290.811
2542.74	285.219
2542.97	295.527
2543.2	293.648
2543.42	290.811
2543.65	294.511
2543.88	285.107
2544.1	288.794
2544.33	292.497
2544.55	300.885
2544.78	287.818
2545.01	298.104
2545.23	285.961
2545.46	285.034
2545.69	285.041
2545.91	290.652
2546.14	285.012
2546.37	290.516
2546.59	293.306
2546.82	289.562
2547.05	292.365
2547.27	286.767
2547.5	286.78
2547.73	295.207
2547.95	291.492
2548.18	292.441
2548.4	284.048
2548.63	284.087
2548.86	286.005
2549.08	287.913
2549.31	289.823
2549.54	288.933
2549.76	288.054
2549.99	290.929
2550.21	293.814
2550.44	291.066
2550.67	289.242
2550.89	291.147
2551.12	289.311
2551.34	280.939
2551.57	287.545
2551.8	294.14
2552.02	288.545
2552.25	293.242
2552.48	289.485
2552.7	291.327
2552.93	289.419
2553.15	295.947
2553.38	289.371
2553.61	282.801
2553.83	284.663
2554.06	288.404
2554.28	289.343
2554.51	290.293
2554.74	281.885
2554.96	292.214
2555.19	290.384
2555.42	295.135
2555.64	289.601
2555.87	286.888
2556.09	286.045
2556.32	288.947
2556.55	289.973
2556.77	301.31
2557	295.729
2557.22	288.232
2557.45	291.048
2557.67	293.882
2557.9	298.614
2558.13	289.25
2558.35	298.65
2558.58	293.02
2558.8	293.958
2559.03	296.765
2559.26	296.752
2559.48	292.04
2559.71	289.203
2559.93	294.813
2560.16	287.282
2560.39	285.396
2560.61	292.914
2560.84	286.351
2561.06	291.054
2561.29	292.944
2561.51	298.601
2561.74	285.485
2561.96	289.274
2562.19	289.308
2562.42	298.752
2562.64	293.2
2562.87	294.244
2563.09	292.464
2563.32	284.093
2563.55	287.95
2563.77	294.633
2564	284.401
2564.22	286.403
2564.45	287.435
2564.67	295.985
2564.9	294.143
2565.12	299.82
2565.35	290.396
2565.58	297.916
2565.8	291.3
2566.03	289.411
2566.25	290.35
2566.48	294.123
2566.7	297.913
2566.93	289.455
2567.15	286.636
2567.38	294.177
2567.61	285.682
2567.83	290.384
2568.06	297.917
2568.28	291.32
2568.51	298.875
2568.73	292.294
2568.96	288.543
2569.18	286.668
2569.41	298.945
2569.63	287.676
2569.86	290.577
2570.08	287.803
2570.31	287.86
2570.53	296.427
2570.76	289.906
2570.99	286.239
2571.21	292.992
2571.44	292.178
2571.66	293.243
2571.89	299.027
2572.11	293.448
2572.34	296.374
2572.56	290.77
2572.79	295.568
2573.01	282.357
2573.24	295.685
2573.46	297.645
2573.69	292.931
2573.91	294.886
2574.14	294.802
2574.36	297.592
2574.59	297.531
2574.81	293.692
2575.04	286.107
2575.26	299.391
2575.49	291.932
2575.71	298.68
2575.94	295.886
2576.16	291.17
2576.39	292.148
2576.61	287.446
2576.84	304.582
2577.06	296.116
2577.29	293.354
2577.52	306.74
2577.74	300.187
2577.96	289.83
2578.19	299.425
2578.42	293.799
2578.64	289.101
2578.86	298.687
2579.09	292.125
2579.31	297.941
2579.54	299.934
2579.77	292.374
2579.99	292.419
2580.21	297.228
2580.44	288.669
2580.66	298.219
2580.89	294.428
2581.11	300.169
2581.34	296.387
2581.56	298.336
2581.79	298.401
2582.01	293.655
2582.24	291.747
2582.46	294.607
2582.69	304.15
2582.91	310.86
2583.14	294.66
2583.36	291.823
2583.59	295.653
2583.81	293.75
2584.04	289.926
2584.26	292.797
2584.49	294.76
2584.71	292.906
2584.94	294.879
2585.16	294.973
2585.38	295.071
2585.61	300.892
2585.83	299.089
2586.06	300.147
2586.28	295.444
2586.51	290.742
2586.73	291.687
2586.96	303.304
2587.18	300.578
2587.41	295.95
2587.63	297.102
2587.86	304.89
2588.08	299.237
2588.3	297.391
2588.53	294.547
2588.75	301.979
2588.98	295.272
2589.2	301.329
2589.43	296.542
2589.65	296.55
2589.88	300.388
2590.1	309.023
2590.32	289.825
2590.55	293.659
2590.77	303.25
2591	288.85
2591.22	305.166
2591.45	296.54
2591.67	306.177
2591.9	299.497
2592.12	296.658
2592.34	296.716
2592.57	287.172
2592.79	295.883
2593.02	295.002
2593.24	297.031
2593.47	299
2593.69	298.097
2593.91	295.282
2594.14	297.298
2594.36	301.229
2594.59	296.462
2594.81	298.414
2595.04	303.232
2595.26	295.552
2595.48	291.721
2595.71	291.743
2595.93	300.434
2596.16	304.326
2596.38	295.837
2596.6	295.117
2596.83	305.962
2597.05	291.707
2597.28	299.108
2597.5	296.391
2597.73	306.977
2597.95	295.256
2598.17	299.979
2598.4	299.909
2598.62	308.633
2598.85	293.273
2599.07	302.07
2599.29	296.365
2599.52	299.335
2599.74	306.172
2599.97	305.252
2600.19	296.459
2600.41	298.28
2600.64	299.426
2600.86	299.554
2601.09	304.611
2601.31	294.061
2601.53	297.996
2601.76	297.07
2601.98	296.122
2602.21	299.99
2602.43	295.135
2602.65	299.958
2602.88	296.076
2603.1	295.102
2603.33	298.988
2603.55	296.124
2603.77	298.065
2604	301.92
2604.22	304.807
2604.45	299.016
2604.67	297.109
2604.89	297.149
2605.12	293.314
2605.34	300.118
2605.56	309.817
2605.79	300.146
2606.01	298.207
2606.24	294.328
2606.46	297.233
2606.68	298.206
2606.91	302.104
2607.13	296.349
2607.35	303.204
2607.58	304.261
2607.8	294.668
2608.02	303.492
2608.25	299.725
2608.47	304.648
2608.7	300.831
2608.92	301.852
2609.14	296.06
2609.37	303.849
2609.59	303.863
2609.81	296.119
2610.04	307.81
2610.26	301.044
2610.48	297.163
2610.71	302.036
2610.93	302.044
2611.15	307.868
2611.38	315.616
2611.6	301.024
2611.83	293.211
2612.05	306.736
2612.27	296.013
2612.5	295.022
2612.72	296.967
2612.94	296.965
2613.17	293.057
2613.39	294.996
2613.61	302.795
2613.84	297.04
2614.06	304.911
2614.28	297.251
2614.51	309.02
2614.73	295.534
2614.95	301.493
2615.18	291.846
2615.4	305.528
2615.62	293.888
2615.85	293.904
2616.07	302.707
2616.29	309.557
2616.52	299.854
2616.74	298.908
2616.96	304.778
2617.19	312.598
2617.41	305.801
2617.63	304.832
2617.86	297.076
2618.08	298.151
2618.3	308.857
2618.53	302.001
2618.75	301.947
2618.97	305.757
2619.19	305.661
2619.42	296.807
2619.64	296.699
2619.87	298.488
2620.09	303.214
2620.31	296.347
2620.53	304.086
2620.76	301.172
2620.98	297.38
2621.2	302.431
2621.43	296.673
2621.65	297.727
2621.87	298.795
2622.1	305.695
2622.32	301.85
2622.54	298.973
2622.76	295.073
2622.99	305.73
2623.21	302.808
2623.43	313.547
2623.66	306.765
2623.88	301.918
2624.1	311.67
2624.32	300.955
2624.55	308.736
2624.77	302.895
2624.99	301.949
2625.22	303.913
2625.44	308.808
2625.66	309.818
2625.89	306.933
2626.11	293.328
2626.33	314.806
2626.55	302.175
2626.78	295.391
2627	300.303
2627.22	310.064
2627.45	302.267
2627.67	307.16
2627.89	305.219
2628.11	303.264
2628.34	302.269
2628.56	304.183
2628.78	297.305
2629	300.179
2629.23	302.106
2629.45	298.207
2629.67	301.139
2629.9	303.105
2630.12	301.177
2630.34	324.592
2630.56	296.347
2630.79	303.198
2631.01	304.216
2631.23	308.172
2631.45	296.487
2631.68	303.316
2631.9	307.224
2632.12	302.334
2632.34	309.135
2632.57	303.283
2632.79	308.158
2633.01	313.037
2633.23	293.527
2633.46	300.341
2633.68	307.14
2633.9	299.279
2634.12	293.359
2634.35	295.21
2634.57	305.816
2634.79	311.549
2635.01	301.712
2635.24	295.777
2635.46	309.382
2635.68	299.803
2635.9	303.882
2636.13	301.079
2636.35	295.33
2636.57	300.284
2636.79	292.413
2637.02	303.961
2637.24	297.075
2637.46	303.697
2637.68	297.707
2637.91	300.672
2638.13	297.797
2638.35	305.6
2638.57	300.756
2638.79	297.863
2639.02	302.763
2639.24	297.926
2639.46	301.861
2639.68	300.91
2639.91	304.846
2640.13	304.926
2640.35	300.14
2640.57	306.086
2640.8	294.423
2641.02	303.147
2641.24	299.94
2641.46	298.49
2641.68	301.867
2641.91	304.482
2642.13	297.645
2642.35	294.718
2642.57	295.736
2642.79	301.686
2643.02	299.962
2643.24	297.042
2643.46	300.798
2643.68	296.905
2643.9	303.626
2644.13	304.504
2644.35	298.594
2644.57	293.687
2644.79	298.499
2645.01	302.345
2645.24	300.374
2645.46	301.306
2645.68	300.297
2645.9	302.19
2646.13	294.415
2646.35	307.963
2646.57	297.293
2646.79	299.208
2647.01	295.313
2647.23	296.248
2647.46	296.194
2647.68	291.279
2647.9	297.933
2648.12	299.729
2648.34	303.485
2648.57	293.737
2648.79	296.58
2649.01	296.549
2649.23	306.176
2649.45	294.548
2649.67	297.416
2649.9	292.544
2650.12	300.224
2650.34	296.351
2650.56	293.471
2650.78	292.53
2651	290.607
2651.23	294.386
2651.45	295.233
2651.67	301.933
2651.89	295.155
2652.11	303.803
2652.34	295.089
2652.56	298.92
2652.78	300.841
2653	289.269
2653.22	287.325
2653.44	289.224
2653.66	296.889
2653.89	299.737
2654.11	292.961
2654.33	299.666
2654.55	299.604
2654.77	302.403
2655	301.353
2655.22	294.564
2655.44	298.386
2655.66	299.331
2655.88	298.354
2656.1	305.098
2656.32	300.336
2656.55	299.434
2656.77	294.659
2656.99	299.496
2657.21	295.657
2657.43	288.918
2657.65	302.409
2657.87	301.444
2658.1	302.368
2658.32	292.666
2658.54	300.271
2658.76	300.171
2658.98	295.255
2659.2	298.043
2659.42	303.683
2659.65	309.344
2659.87	303.528
2660.09	298.71
2660.31	292.01
2660.53	299.717
2660.75	299.703
2660.97	298.706
2661.19	291.944
2661.42	302.453
2661.64	297.553
2661.86	295.5
2662.08	299.195
2662.3	298.091
2662.52	296.027
2662.74	298.75
2662.96	290.936
2663.19	295.619
2663.41	293.644
2663.63	287.885
2663.85	296.48
2664.07	294.535
2664.29	292.59
2664.51	297.341
2664.73	294.448
2664.95	291.566
2665.18	295.385
2665.4	295.381
2665.62	296.325
2665.84	297.258
2666.06	293.408
2666.28	300.067
2666.5	288.568
2666.72	296.183
2666.94	288.52
2667.16	292.3
2667.39	300.838
2667.61	289.315
2667.83	296.883
2668.05	292.037
2668.27	297.665
2668.49	295.67
2668.71	298.46
2668.93	293.659
2669.15	292.704
2669.38	287.943
2669.6	292.721
2669.82	290.824
2670.04	291.793
2670.26	287.047
2670.48	297.56
2670.7	296.601
2670.92	301.331
2671.14	295.553
2671.36	289.779
2671.58	303.074
2671.8	291.602
2672.02	296.303
2672.25	294.315
2672.47	294.23
2672.69	289.381
2672.91	283.578
2673.13	292.043
2673.35	289.102
2673.57	293.779
2673.79	294.683
2674.01	295.696
2674.23	292.878
2674.45	294.768
2674.67	291.911
2674.89	300.509
2675.11	305.445
2675.34	290.436
2675.56	295.232
2675.78	298.71
2676	297.368
2676.22	288.738
2676.44	289.618
2676.66	294.308
2676.88	299.008
2677.1	289.478
2677.32	291.342
2677.54	284.664
2677.76	288.42
2677.98	294.069
2678.2	292.126
2678.42	290.181
2678.65	301.511
2678.87	288.188
2679.09	289.083
2679.31	296.631
2679.53	291.893
2679.75	294.749
2679.97	299.475
2680.19	289.942
2680.41	301.266
2680.63	286.102
2680.85	289.919
2681.07	304.177
2681.29	289.986
2681.51	302.308
2681.73	297.564
2681.95	288.075
2682.17	291.808
2682.39	295.466
2682.61	294.42
2682.83	294.302
2683.05	287.677
2683.27	286.742
2683.49	292.188
2683.71	291.084
2683.93	296.136
2684.15	290.64
2684.37	295.627
2684.59	286.581
2684.81	285.941
2685.03	293.521
2685.25	293.394
2685.48	286.177
2685.7	291.161
2685.92	289.91
2686.14	292.527
2686.36	288.637
2686.58	297.585
2686.8	289.109
2687.02	284.637
2687.24	286.12
2687.46	283.86
2687.68	288.551
2687.9	303.756
2688.12	294.279
2688.34	289.91
2688.56	290.836
2688.78	289.617
2689	288.268
2689.22	295.719
2689.44	289.564
2689.66	290.888
2689.88	287.462
2690.1	293.003
2690.32	286.776
2690.54	295.152
2690.76	288.453
2690.98	293.599
2691.2	295.169
2691.42	295.396
2691.64	290.577
2691.86	287.778
2692.08	289.509
2692.3	291.003
2692.52	291.203
2692.74	289.506
2692.96	287.994
2693.18	288.165
2693.4	290.682
2693.62	287.147
2693.84	291.233
2694.06	288.439
2694.28	289.524
2694.49	298.173
2694.71	294.155
2694.93	287.664
2695.15	288.437
2695.37	291.113
2695.59	291.883
2695.81	290.32
2696.03	287.176
2696.25	285.516
2696.47	290.686
2696.69	295.813
2696.91	292.934
2697.13	290.243
2697.35	290.954
2697.57	287.98
2697.79	289.461
2698.01	288.764
2698.23	288.891
2698.45	293.171
2698.67	292.428
2698.89	293.479
2699.11	292.966
2699.33	294.359
2699.55	291.647
2699.77	288.375
2699.99	291.073
2700.21	293.222
2700.43	290.921
2700.64	286.137
2700.86	288.016
2701.08	289.35
2701.3	288.491
2701.52	292.734
2701.74	293.067
2701.96	290.611
2702.18	289.983
2702.4	289.081
2702.62	285.96
2702.84	288.469
2703.06	290.249
2703.28	291.836
2703.5	291.024
2703.72	291.746
2703.94	292.005
2704.15	290.518
2704.37	292.344
2704.59	291.513
2704.81	292.822
2705.03	295.612
2705.25	287.517
2705.45	295.043
2705.67	285.631
2705.9	284.697
2706.12	290.33
2706.34	297.83
2706.56	288.425
2706.78	293.134
2707.01	288.454
2707.23	283.75
2707.45	283.717
2707.67	296.817
2707.9	284.547
2708.12	299.503
2708.34	295.733
2708.56	291.076
2708.78	297.68
2709.01	297.71
2709.23	293.043
2709.45	281.798
2709.67	292.155
2709.89	295.935
2710.12	291.255
2710.34	293.142
2710.56	289.39
2710.78	287.513
2711	293.125
2711.23	286.496
2711.45	282.673
2711.67	288.202
2711.89	291.885
2712.11	287.124
2712.34	287.054
2712.56	292.572
2712.78	292.502
2713	286.888
2713.22	285.987
2713.45	291.672
2713.67	288.929
2713.89	290.899
2714.11	290.092
2714.33	284.565
2714.56	285.592
2714.78	286.599
2715	289.465
2715.22	291.365
2715.44	292.309
2715.66	286.668
2715.89	292.25
2716.11	292.17
2716.33	286.482
2716.55	289.261
2716.77	285.476
2716.99	290.142
2717.22	291.996
2717.44	295.738
2717.66	285.418
2717.88	292.014
2718.1	297.674
2718.33	290.198
2718.55	289.304
2718.77	292.177
2718.99	298.819
2719.21	292.315
2719.43	285.817
2719.66	291.553
2719.88	296.358
2720.1	288.923
2720.32	288.985
2720.54	289.97
2720.76	302.251
2720.98	294.75
2721.21	289.115
2721.43	286.274
2721.65	290.932
2721.87	286.182
2722.09	287.099
2722.32	290.817
2722.54	296.413
2722.76	294.491
2722.98	285.996
2723.2	301.038
2723.42	295.395
2723.64	296.379
2723.86	291.74
2724.09	286.162
2724.31	293.758
2724.53	285.35
2724.75	292.927
2724.97	295.757
2725.19	293.875
2725.42	291.041
2725.64	288.169
2725.86	291.883
2726.08	296.559
2726.3	284.303
2726.52	289.945
2726.74	285.244
2726.96	306.914
2727.19	289.991
2727.41	299.435
2727.63	300.406
2727.85	291.963
2728.07	285.403
2728.29	291.086
2728.51	296.771
2728.74	290.203
2728.96	287.401
2729.18	287.371
2729.4	293.991
2729.62	287.439
2729.84	285.599
2730.06	290.37
2730.28	294.226
2730.51	297.15
2730.73	294.401
2730.95	293.527
2731.17	293.593
2731.39	290.79
2731.61	286.083
2731.83	289.856
2732.05	294.562
2732.27	298.318
2732.49	293.572
2732.72	290.703
2732.94	283.111
2733.16	289.648
2733.38	288.655
2733.6	293.331
2733.82	289.532
2734.04	294.23
2734.26	286.684
2734.48	294.256
2734.71	294.315
2734.93	285.915
2735.15	288.836
2735.37	294.584
2735.59	289.002
2735.81	288.133
2736.03	295.745
2736.25	295.782
2736.47	290.128
2736.69	293.922
2736.91	295.84
2737.14	298.696
2737.36	293.036
2737.58	285.472
2737.8	297.75
2738.02	294.884
2738.24	296.755
2738.46	289.213
2738.68	292.087
2738.9	294.988
2739.12	297.875
2739.34	295.977
2739.56	289.324
2739.79	293.076
2740.01	291.195
2740.23	291.139
2740.45	296.677
2740.67	293.665
2740.89	287.051
2741.11	288.971
2741.33	296.679
2741.55	293.946
2741.77	298.731
2741.99	287.483
2742.21	294.179
2742.43	284.774
2742.65	296.186
2742.88	293.412
2743.1	296.33
2743.32	292.629
2743.54	287.981
2743.76	289.013
2743.98	294.799
2744.2	299.637
2744.42	283.585
2744.64	301.654
2744.86	295.989
2745.08	301.687
2745.3	299.798
2745.52	295.998
2745.74	288.336
2745.96	285.451
2746.18	294.879
2746.4	294.841
2746.62	291.928
2746.84	292.853
2747.06	295.642
2747.29	288.996
2747.51	294.692
2747.73	290.966
2747.95	292.897
2748.17	293.875
2748.39	293.891
2748.61	293.9
2748.83	292.964
2749.05	295.819
2749.27	285.378
2749.49	292.933
2749.71	294.81
2749.93	287.224
2750.15	293.925
2750.37	286.397
2750.59	289.273
2750.81	295.01
2751.03	291.277
2751.25	284.699
2751.47	293.312
2751.69	299.09
2751.91	288.73
2752.13	285.024
2752.35	296.507
2752.57	293.724
2752.79	300.428
2753.01	297.604
2753.23	293.792
2753.45	300.433
2753.67	295.657
2753.9	294.68
2754.11	296.552
2754.33	289.87
2754.55	295.545
2754.77	293.61
2755	293.574
2755.22	292.602
2755.44	292.582
2755.66	296.372
2755.88	292.572
2756.1	291.65
2756.32	288.861
2756.54	303.2
2756.76	299.448
2756.98	289.058
2757.2	300.506
2757.42	292.923
2757.64	299.591
2757.86	296.746
2758.08	292.003
2758.3	289.175
2758.51	299.63
2758.74	291.982
2758.96	292.913
2759.18	285.302
2759.4	291.989
2759.61	293.022
2759.83	296.734
2760.05	290.98
2760.28	297.611
2760.5	294.767
2760.71	294.087
2760.93	293.264
2761.15	298.001
2761.37	290.251
2761.59	291.077
2761.81	293.807
2762.03	297.587
2762.25	289.954
2762.47	295.705
2762.69	291.055
2762.91	287.317
2763.13	295.929
2763.35	287.334
2763.57	296.85
2763.79	286.466
2764.01	299.973
2764.23	302.052
2764.45	293.311
2764.67	287.513
2764.89	286.558
2765.11	298.04
2765.33	293.273
2765.55	297.051
2765.77	288.451
2765.99	297
2766.21	292.215
2766.43	296.92
2766.65	293.999
2766.87	288.226
2767.09	296.737
2767.31	295.748
2767.53	298.567
2767.75	289.02
2767.96	299.444
2768.18	290.87
2768.4	301.325
2768.62	284.235
2768.84	295.661
2769.06	300.417
2769.28	289.971
2769.5	293.806
2769.72	296.709
2769.94	293.929
2770.16	294.893
2770.38	289.195
2770.6	299.669
2770.82	290.188
2771.04	292.128
2771.26	295.052
2771.48	293.233
2771.7	291.44
2771.92	298.319
2772.13	296.554
2772.35	292.852
2772.57	296.697
2772.79	292.842
2773.01	290.031
2773.23	300.421
2773.45	291.556
2773.67	292.429
2773.89	296.135
2774.11	290.283
2774.33	296.19
2774.55	300.092
2774.77	297.235
2774.98	292.455
2775.2	293.316
2775.42	294.196
2775.64	296.978
2775.86	297.861
2776.08	297.83
2776.3	295.905
2776.52	288.278
2776.74	295.879
2776.96	295.868
2777.18	300.613
2777.4	294.894
2777.61	287.295
2777.83	287.307
2778.05	293.022
2778.27	298.732
2778.49	298.737
2778.71	291.147
2778.93	296.847
2779.15	292.073
2779.37	294.845
2779.59	295.68
2779.81	290.867
2780.02	301.283
2780.24	292.712
2780.46	293.678
2780.68	284.165
2780.9	288.918
2781.12	294.653
2781.34	297.532
2781.56	298.497
2781.78	303.255
2782	293.743
2782.21	293.744
2782.43	292.797
2782.65	291.807
2782.87	289.763
2783.09	293.524
2783.31	294.395
2783.53	293.333
2783.75	300.886
2783.97	291.382
2784.18	293.284
2784.4	287.578
2784.62	295.187
2784.84	297.138
2785.06	300.057
2785.28	291.576
2785.5	293.541
2785.72	292.651
2785.93	297.456
2786.15	289.875
2786.37	294.62
2786.59	297.489
2786.81	292.717
2787.03	289.805
2787.25	291.622
2787.47	290.584
2787.68	294.268
2787.9	288.448
2788.12	297.846
2788.34	291.165
2788.56	297.766
2788.78	290.144
2789	295.813
2789.21	296.734
2789.43	292.899
2789.65	295.703
2789.87	300.407
2790.09	284.269
2790.31	294.672
2790.52	297.503
2790.74	288.96
2790.96	291.768
2791.18	296.434
2791.4	294.483
2791.62	292.547
2791.84	297.249
2792.06	301.026
2792.27	282.112
2792.49	293.539
2792.71	291.695
2792.93	289.827
2793.15	292.673
2793.37	294.557
2793.58	291.689
2793.8	299.224
2794.02	295.395
2794.24	286.832
2794.46	288.478
2794.68	291.329
2794.89	292.603
2795.11	288.826
2795.33	291.585
2795.55	295.333
2795.77	287.732
2795.99	291.491
2796.2	296.193
2796.42	292.376
2796.64	294.238
2796.86	293.266
2797.08	293.249
2797.3	294.177
2797.51	291.345
2797.73	300.789
2797.95	294.128
2798.17	289.326
2798.39	292.125
2798.6	290.247
2798.82	296.894
2799.04	295.038
2799.26	296.967
2799.48	297.014
2799.7	300.881
2799.91	290.533
2800.13	286.696
2800.35	296.055
2800.57	292.19
2800.79	294.894
2801	298.635
2801.22	286.808
2801.44	294.187
2801.66	293.054
2801.88	302.492
2802.1	293.992
2802.31	297.942
2802.53	299.881
2802.75	287.52
2802.97	293.161
2803.19	297.822
2803.4	289.255
2803.62	288.235
2803.84	292.886
2804.06	293.768
2804.27	298.432
2804.49	293.652
2804.71	290.763
2804.93	293.554
2805.15	296.356
2805.36	289.748
2805.58	292.601
2805.8	295.465
2806.02	301.182
2806.24	289.851
2806.45	290.78
2806.67	293.607
2806.89	292.658
2807.11	295.473
2807.33	291.683
2807.54	294.503
2807.76	288.826
2807.98	289.757
2808.2	287.858
2808.41	293.51
2808.63	292.55
2808.85	291.59
2809.07	286.856
2809.28	295.331
2809.5	290.594
2809.72	292.461
2809.94	290.556
2810.16	281.102
2810.37	291.453
2810.59	290.46
2810.81	299.822
2811.03	292.224
2811.24	292.158
2811.46	287.367
2811.68	297.662
2811.9	293.863
2812.11	296.655
2812.33	296.588
2812.55	293.71
2812.77	292.757
2812.98	291.817
2813.2	286.185
2813.42	289.041
2813.64	292.914
2813.86	292.009
2814.07	291.924
2814.29	289.941
2814.51	285.208
2814.73	290.89
2814.94	290.921
2815.16	291.821
2815.38	292.684
2815.59	293.509
2815.81	294.463
2816.03	292.62
2816.25	290.71
2816.46	294.431
2816.68	297.208
2816.9	292.466
2817.12	289.597
2817.34	295.189
2817.55	294.131
2817.77	289.364
2817.99	292.102
2818.2	288.276
2818.42	291.983
2818.64	286.315
2818.86	289.091
2819.07	281.571
2819.29	290.975
2819.51	293.121
2819.72	297.009
2819.94	292.311
2820.16	300.762
2820.38	293.165
2820.59	295.03
2820.81	290.149
2821.03	293.543
2821.25	294.634
2821.46	297.402
2821.68	291.968
2821.9	291.941
2822.11	299.401
2822.33	298.291
2822.55	290.403
2822.77	295.603
2822.98	283.271
2823.2	293.49
2823.42	292.455
2823.63	289.505
2823.85	288.57
2824.07	291.507
2824.28	294.446
2824.5	284.118
2824.72	293.429
2824.94	292.424
2825.15	286.87
2825.37	294.357
2825.59	298.064
2825.81	290.564
2826.02	293.348
2826.24	288.718
2826.46	289.755
2826.67	292.644
2826.89	289.81
2827.11	287.877
2827.32	293.866
2827.54	306.129
2827.76	297.52
2827.97	296.426
2828.19	291.625
2828.41	290.656
2828.62	290.642
2828.84	282.154
2829.06	292.429
2829.27	289.584
2829.49	286.757
2829.71	285.834
2829.93	296.166
2830.14	293.365
2830.36	292.446
2830.58	296.238
2830.79	294.386
2831.01	291.586
2831.23	293.457
2831.44	289.686
2831.66	298.08
2831.88	287.67
2832.09	291.37
2832.31	296.949
2832.53	296.893
2832.74	285.616
2832.96	289.334
2833.18	292.122
2833.39	294.92
2833.61	291.179
2833.83	296.82
2834.04	285.608
2834.26	289.357
2834.48	284.664
2834.69	287.519
2834.91	289.45
2835.13	290.455
2835.34	291.442
2835.56	297.1
2835.78	297.128
2835.99	295.281
2836.21	295.315
2836.43	283.164
2836.64	289.757
2836.86	293.519
2837.07	288.837
2837.29	286.008
2837.51	295.331
2837.72	287.789
2837.94	290.59
2838.16	287.768
2838.37	291.511
2838.59	287.759
2838.81	300.881
2839.02	303.697
2839.24	287.793
2839.46	299.091
2839.67	289.804
2839.89	299.299
2840.11	296.616
2840.32	293.904
2840.54	295.947
2840.75	287.502
2840.97	296.567
2841.19	291.434
2841.4	290.185
2841.62	303.226
2841.84	295.852
2842.05	294.222
2842.27	290.752
2842.49	295.637
2842.7	287.21
2842.92	296.601
2843.13	298.422
2843.35	297.389
2843.57	296.432
2843.78	295.508
2844	297.363
2844.22	295.467
2844.43	294.514
2844.65	296.385
2844.86	297.273
2845.08	288.816
2845.3	297.281
2845.51	294.498
2845.73	291.74
2845.95	290.888
2846.16	292.878
2846.38	294.909
2846.59	293.127
2846.81	294.096
2847.03	295.968
2847.24	290.294
2847.46	293.045
2847.67	299.556
2847.89	298.488
2848.11	287.164
2848.32	291.83
2848.54	298.383
2848.75	290.877
2848.97	294.683
2849.19	297.534
2849.4	292.869
2849.62	294.783
2849.83	297.638
2850.05	296.731
2850.27	294.901
2850.48	295.902
2850.7	296.887
2850.91	292.218
2851.13	294.114
2851.34	286.618
2851.56	294.138
2851.78	295.987
2851.99	294.065
2852.21	294.053
2852.42	299.69
2852.64	293.11
2852.85	296.889
2853.07	299.735
2853.29	289.411
2853.5	296.931
2853.72	290.377
2853.93	293.215
2854.15	302.632
2854.36	295.138
2854.58	293.282
2854.8	299.857
2855.01	297.967
2855.23	286.68
2855.44	294.215
2855.66	297.044
2855.87	290.471
2856.09	294.23
2856.31	293.278
2856.52	285.745
2856.74	290.444
2856.95	301.731
2857.17	287.648
2857.38	299.896
2857.6	302.741
2857.82	297.107
2858.03	285.839
2858.25	290.552
2858.46	295.258
2858.68	291.494
2858.89	297.128
2859.11	294.283
2859.33	290.5
2859.54	292.382
2859.76	301.783
2859.97	291.456
2860.19	289.596
2860.4	293.417
2860.62	294.447
2860.83	297.383
2861.05	297.5
2861.26	294.77
2861.48	297.678
2861.7	302.479
2861.91	292.192
2862.13	304.509
2862.34	295.128
2862.56	297.968
2862.77	296.053
2862.99	287.515
2863.2	300.637
2863.42	299.627
2863.63	292.027
2863.85	299.511
2864.06	290.068
2864.28	295.697
2864.49	290.974
2864.71	300.393
2864.93	292.879
2865.14	293.871
2865.36	298.627
2865.57	291.119
2865.79	297.748
2866	301.56
2866.22	299.719
2866.43	297.891
2866.65	292.283
2866.86	293.251
2867.08	292.317
2867.29	292.319
2867.51	290.446
2867.72	296.121
2867.94	294.285
2868.15	298.116
2868.37	287.824
2868.58	304.903
2868.8	296.524
2869.01	293.826
2869.23	295.728
2869.44	288.132
2869.66	291.733
2869.87	292.658
2870.09	297.4
2870.3	296.453
2870.52	301.172
2870.73	295.506
2870.95	292.669
2871.17	288.881
2871.38	295.468
2871.59	296.376
2871.81	300.107
2872.02	300.073
2872.24	294.407
2872.45	306.685
2872.67	292.533
2872.88	291.599
2873.1	294.473
2873.31	291.705
2873.53	294.608
2873.74	289.964
2873.96	289.105
2874.17	295.809
2874.39	299.661
2874.6	296.905
2874.82	291.295
2875.03	306.519
2875.25	297.087
2875.46	300.872
2875.68	291.383
2875.89	312.179
2876.11	299.859
2876.32	293.241
2876.54	294.192
2876.75	293.25
2876.97	297.037
2877.18	296.099
2877.4	291.38
2877.61	306.535
2877.83	300.886
2878.04	300.925
2878.25	302.838
2878.47	301.005
2878.68	291.544
2878.9	309.489
2879.11	301.831
2879.33	300.86
2879.54	296.111
2879.76	291.338
2879.97	296.992
2880.19	292.253
2880.4	299.837
2880.62	290.434
2880.83	300.898
2881.04	305.681
2881.26	301.947
2881.47	298.219
2881.69	303.042
2881.9	299.34
2882.12	300.295
2882.33	297.473
2882.55	293.698
2882.76	291.799
2882.98	297.457
2883.19	294.51
2883.4	290.589
2883.62	289.597
2883.83	297.153
2884.05	294.31
2884.26	292.484
2884.48	301.977
2884.69	296.341
2884.9	296.473
2885.12	290.919
2885.33	296.679
2885.55	303.35
2885.76	300.509
2885.98	300.486
2886.19	294.788
2886.41	296.703
2886.62	300.51
2886.83	291.058
2887.05	301.537
2887.26	299.718
2887.48	296.052
2887.69	296.212
2887.91	294.284
2888.12	303.774
2888.33	304.757
2888.55	300.039
2888.76	302.944
2888.98	303.915
2889.19	297.272
2889.41	289.674
2889.62	291.567
2889.83	300.102
2890.05	301.034
2890.26	289.622
2890.48	294.353
2890.69	300.989
2890.91	299.086
2891.12	301.936
2891.33	300.97
2891.55	298.143
2891.76	298.189
2891.97	294.418
2892.19	303.948
2892.4	300.136
2892.62	296.34
2892.83	302.838
2893.05	293.471
2893.26	295.632
2893.47	300.393
2893.69	295.557
2893.9	295.49
2894.11	292.546
2894.33	291.545
2894.54	295.288
2894.76	298.08
2894.97	300.894
2895.19	295.389
2895.4	301.292
2895.61	305.327
2895.83	293.886
2896.04	298.573
2896.25	306.087
2896.47	300.439
2896.68	301.396
2896.9	300.45
2897.11	302.36
2897.32	294.763
2897.54	287.168
2897.75	296.692
2897.97	294.807
2898.18	299.585
2898.39	296.719
2898.61	300.527
2898.82	300.559
2899.04	290.14
2899.25	296.852
2899.46	303.568
2899.68	299.806
2899.89	296.986
2900.1	304.636
2900.32	303.728
2900.53	296.118
2900.75	300.86
2900.96	295.138
2901.17	301.793
2901.39	303.689
2901.6	297.974
2901.81	297.955
2902.03	294.114
2902.24	298.84
2902.45	296.004
2902.67	302.686
2902.88	304.616
2903.09	298.939
2903.31	300.893
2903.52	297.156
2903.74	304.829
2903.95	293.438
2904.16	293.468
2904.38	301.115
2904.59	297.326
2904.8	292.582
2905.02	293.569
2905.23	295.491
2905.44	296.412
2905.66	302.083
2905.87	298.2
2906.08	296.228
2906.3	300.938
2906.51	298.041
2906.72	298.014
2906.94	297.045
2907.15	302.741
2907.36	297.002
2907.58	295.106
2907.79	296.086
2908	305.639
2908.22	302.852
2908.43	299.083
2908.65	296.193
2908.86	295.166
2909.07	308.484
2909.29	295.169
2909.5	308.52
2909.71	303.779
2909.92	299.042
2910.14	300.97
2910.35	298.131
2910.57	296.238
2910.78	301.959
2910.99	305.775
2911.2	302.938
2911.42	307.734
2911.63	302.045
2911.84	293.479
2912.06	296.345
2912.27	295.42
2912.48	296.409
2912.7	307.868
2912.91	292.621
2913.12	302.147
2913.34	299.242
2913.55	308.726
2913.76	296.338
2913.97	302.048
2914.19	297.269
2914.4	308.665
2914.62	311.461
2914.83	301.885
2915.04	306.597
2915.25	315.121
2915.47	322.768
2915.68	312.375
2915.89	324.749
2916.11	306.659
2916.32	310.489
2916.53	320.979
2916.74	316.215
2916.96	308.597
2917.17	300.037
2917.38	303.861
2917.6	308.639
2917.81	304.826
2918.02	303.846
2918.24	303.811
2918.45	302.827
2918.66	307.586
2918.88	306.642
2919.09	299.971
2919.3	298.048
2919.51	296.11
2919.73	299.873
2919.94	298.865
2920.15	296.907
2920.36	297.819
2920.58	291.119
2920.79	294.864
2921	306.229
2921.22	297.653
2921.43	303.33
2921.64	300.447
2921.85	293.753
2922.07	288.953
2922.28	297.467
2922.49	302.189
2922.71	304.073
2922.92	304.078
2923.13	297.432
2923.34	302.187
2923.56	299.352
2923.77	306.962
2923.98	298.405
2924.19	295.544
2924.41	294.58
2924.62	298.368
2924.83	299.306
2925.05	298.352
2925.26	305.955
2925.47	294.554
2925.68	291.697
2925.9	290.738
2926.11	302.128
2926.32	301.159
2926.53	295.439
2926.74	300.215
2926.96	306.866
2927.17	298.299
2927.38	301.116
2927.6	301.07
2927.81	301.995
2928.02	306.751
2928.23	305.779
2928.45	297.169
2928.66	300.938
2928.87	299.969
2929.08	300.959
2929.3	307.669
2929.51	290.727
2929.72	297.636
2929.93	306.394
2930.14	299.829
2930.36	304.247
2930.57	300.876
2930.78	304.95
2930.99	303.144
2931.21	296.609
2931.42	299.419
2931.63	303.267
2931.84	300.34
2932.06	295.53
2932.27	291.634
2932.48	300.06
2932.69	295.306
2932.91	298.177
2933.12	303.902
2933.33	304.877
2933.54	300.152
2933.75	303.978
2933.97	286.913
2934.18	314.443
2934.39	292.556
2934.6	302.967
2934.82	292.489
2935.03	296.209
2935.24	300.888
2935.45	297.984
2935.66	297.946
2935.88	297.931
2936.09	298.9
2936.3	297.002
2936.51	302.707
2936.72	302.719
2936.94	295.176
2937.15	295.211
2937.36	300.927
2937.57	293.32
2937.79	299.96
2938	295.194
2938.21	298.006
2938.42	293.219
2938.63	299.805
2938.85	300.662
2939.06	294.921
2939.27	302.459
2939.48	304.342
2939.69	301.502
2939.91	301.528
2940.12	295.843
2940.33	298.762
2940.54	306.452
2940.75	294.252
2940.97	296.319
2941.18	293.54
2941.39	305.039
2941.6	294.659
2941.81	301.359
2942.02	292.74
2942.24	295.419
2942.45	298.591
2942.66	299.41
2942.87	295.375
2943.08	301.223
2943.29	295.56
2943.51	298.737
2943.72	302.254
2943.93	297.304
2944.14	296.247
2944.35	299.964
2944.57	297.079
2944.78	293.21
2944.99	296.844
2945.2	297.432
2945.41	291.345
2945.63	307.881
2945.84	296.46
2946.05	286.76
2946.26	296.112
2946.47	302.732
2946.68	307.441
2946.89	292.305
2947.11	297.993
2947.32	296.13
2947.53	296.177
2947.74	297.185
2947.95	298.126
2948.17	299.093
2948.38	306.666
2948.59	295.297
2948.8	298.109
2949.01	292.392
2949.22	294.249
2949.43	299.884
2949.65	294.168
2949.86	296.965
2950.07	300.745
2950.28	300.758
2950.49	294.146
2950.7	297.008
2950.92	301.779
2951.13	295.217
2951.34	295.283
2951.55	289.634
2951.76	299.088
2951.97	299.049
2952.18	307.532
2952.4	300.91
2952.61	289.543
2952.82	298.983
2953.03	299.886
2953.24	285.644
2953.45	298.818
2953.66	296.846
2953.87	296.783
2954.09	296.723
2954.3	301.387
2954.51	297.551
2954.72	288.999
2954.93	300.285
2955.14	297.398
2955.35	295.471
2955.56	300.182
2955.78	302.065
2955.99	315.281
2956.2	305.88
2956.41	292.718
2956.62	296.529
2956.83	297.489
2957.04	294.661
2957.25	293.719
2957.47	300.335
2957.68	291.842
2957.89	296.574
2958.1	295.64
2958.31	299.428
2958.52	304.162
2958.73	289.06
2958.94	298.523
2959.16	296.623
2959.37	305.102
2959.58	296.542
2959.79	308.7
2960	297.335
2960.21	301.166
2960.42	298.369
2960.63	300.234
2960.84	292.532
2961.05	310.248
2961.27	295.269
2961.48	292.583
2961.69	297.342
2961.9	290.549
2962.11	296.945
2962.32	294.093
2962.53	295.975
2962.74	299.744
2962.95	297.88
2963.16	291.324
2963.38	295.155
2963.59	298.996
2963.8	308.492
2964.01	294.394
2964.22	291.612
2964.43	302.982
2964.64	296.41
2964.85	294.547
2965.06	298.324
2965.27	296.417
2965.48	294.445
2965.7	298.132
2965.91	296.177
2966.12	296.107
2966.33	305.473
2966.54	296.941
2966.75	293.13
2966.96	291.191
2967.17	301.513
2967.38	300.525
2967.59	290.112
2967.8	290.078
2968.01	293.822
2968.23	298.527
2968.43	291.956
2968.65	291.993
2968.86	292.034
2969.07	302.43
2969.28	296.781
2969.49	297.72
2969.7	300.552
2969.91	296.794
2970.12	293.037
2970.33	292.103
2970.54	294.952
2970.75	299.688
2970.96	293.092
2971.17	291.195
2971.38	295.905
2971.59	300.625
2971.81	297.813
2972.02	294.061
2972.23	295.02
2972.44	308.23
2972.65	300.696
2972.86	294.097
2973.07	301.616
2973.28	297.821
2973.49	296.85
2973.7	292.136
2973.91	292.145
2974.12	300.605
2974.33	299.643
2974.54	294.91
2974.75	292.059
2974.96	283.551
2975.17	295.76
2975.38	307.038
2975.59	291.004
2975.8	297.598
2976.01	294.795
2976.22	295.772
2976.44	299.594
2976.65	293.966
2976.86	296.769
2977.07	293.016
2977.28	284.563
2977.49	291.227
2977.7	296.029
2977.91	297.997
2978.12	291.434
2978.33	299.864
2978.54	291.987
2978.75	302.075
2978.96	289.851
2979.17	295.557
2979.38	293.355
2979.59	293.676
2979.8	297.112
2980.01	294.608
2980.22	289.734
2980.43	296.076
2980.64	300.671
2980.85	290.26
2981.06	294.958
2981.27	299.714
2981.48	304.451
2981.69	297.876
2981.9	295.864
2982.11	295.751
2982.32	307.041
2982.53	298.603
2982.74	293.911
2982.95	309.919
2983.16	297.662
2983.37	290.099
2983.58	296.545
2983.79	297.414
2984	298.339
2984.21	300.204
2984.42	292.653
2984.63	304.864
2984.84	292.614
2985.05	296.365
2985.26	298.244
2985.47	298.251
2985.68	302.044
2985.89	290.796
2986.1	295.539
2986.31	297.453
2986.52	291.834
2986.73	295.629
2986.94	299.425
2987.15	294.729
2987.36	306.025
2987.57	304.153
2987.78	307.006
2987.99	293.862
2988.2	304.265
2988.41	298.645
2988.62	298.651
2988.83	295.836
2989.04	292.082
2989.25	293.966
2989.46	293.959
2989.67	293.008
2989.88	296.774
2990.09	293.939
2990.3	289.218
2990.51	298.63
2990.72	290.159
2990.93	298.674
2991.14	301.538
2991.35	291.203
2991.56	304.426
2991.76	297.861
2991.98	299.768
2992.18	298.828
2992.39	297.875
2992.6	295.971
2992.81	292.177
2993.02	295.919
2993.23	293.062
2993.44	300.573
2993.65	299.615
2993.86	299.617
2994.07	300.562
2994.28	298.697
2994.49	284.597
2994.7	303.499
2994.91	291.311
2995.12	298.928
2995.33	285.802
2995.54	293.427
2995.75	300.108
2995.96	296.409
2996.17	303.063
2996.38	304.033
2996.59	298.386
2996.79	296.514
2997	300.312
2997.21	296.553
2997.42	297.536
2997.63	291.907
2997.84	294.772
2998.05	307.085
2998.26	295.789
2998.47	296.779
2998.68	303.412
2998.89	290.183
2999.1	300.576
2999.31	294.882
2999.52	303.358
2999.73	305.221
2999.94	302.359
