#Acq. time (s)=	40
#Accumulations=	2
#Range (cm-¹)=	1200...2365
#Windows=	3
#Auto scanning=	Off
#Autofocus=	Off
#Macrospot=	Off
#AutoExposure=	Off
#Spike filter=	Multiple accum.
#Delay time (s)=	2
#Binning=	1
#Readout mode=	Signal
#DeNoise=	Off
#ICS correction=	On
#Dark correction=	Off
#Inst. Process=	Off
#Detector Gain=	Best Dynamic
#Detector ADC=	50 kHz EM
#Detector EM gain=	400
#Detector temperature (°C)=	-60.09
#Instrument=	LabRAM HR Evol
#Detector=	SIN-EM FIVIS
#Objective=	x100_VIS_LWD
#Grating=	1800 (450-850nm)
#ND Filter=	100%
#Laser=	532nm_Edge
#Hole=	30.0125
#Temperature=	0
#Range=	Visible
#StageXY=	75x50mm Scan+
#StageZ=	Z motor
#X (µm)=	0
#Y (µm)=	0
#Z (µm)=	1.4
#Full time(mm:ss)=	4:20
#Project=	21_11_26
#Sample=	BU32
#Site=	
#Title=	BU32-A-incC-FI02-V_1800 (450-850nm)_532nm_Edge_100%_x100_VIS_LWD_H30um_40sX2
#Remark=	
#Date=	26.11.2021 17:41
#Acquired=	26.11.2021 17:41:20
1202.72	420.489
1203	420.018
1203.28	418.002
1203.56	414.521
1203.84	410.975
1204.11	403.249
1204.39	394.49
1204.67	398.807
1204.95	396.703
1205.23	415.973
1205.5	440.526
1205.78	390.937
1206.06	404.709
1206.34	420.609
1206.61	402.178
1206.89	430.932
1207.17	431.798
1207.45	419.847
1207.73	410.101
1208	401.436
1208.28	399.228
1208.56	409.847
1208.84	421.491
1209.11	429.931
1209.39	404.155
1209.67	407.312
1209.95	422.262
1210.23	420.084
1210.5	431.755
1210.78	405.932
1211.06	432.467
1211.34	425.921
1211.61	439.631
1211.89	427.763
1212.17	410.527
1212.45	407.169
1212.72	398.531
1213	429.312
1213.28	400.423
1213.56	389.692
1213.83	430.103
1214.11	406.59
1214.39	398.09
1214.67	406.62
1214.94	416.206
1215.22	430.041
1215.5	414.054
1215.78	414.031
1216.05	405.48
1216.33	390.475
1216.61	413.739
1216.89	409.305
1217.16	413.392
1217.44	398.387
1217.72	426.953
1218	435.324
1218.27	407.616
1218.55	429.815
1218.83	420.171
1219.1	398.897
1219.38	390.379
1219.66	395.645
1219.94	406.202
1220.21	399.765
1220.49	413.539
1220.77	399.75
1221.04	414.574
1221.32	391.2
1221.6	439.902
1221.88	403.778
1222.15	417.436
1222.43	389.728
1222.71	412.844
1222.98	409.46
1223.26	407.148
1223.54	416.478
1223.81	428.987
1224.09	427.778
1224.37	404.389
1224.65	406.4
1224.92	388.373
1225.2	413.653
1225.48	419.973
1225.76	416.856
1226.03	408.451
1226.31	407.447
1226.59	413.757
1226.86	406.335
1227.14	410.479
1227.42	396.686
1227.69	415.467
1227.97	422.444
1228.25	404.281
1228.52	411.418
1228.8	412.077
1229.08	420.167
1229.35	390.711
1229.63	408.529
1229.91	391.451
1230.18	398.462
1230.46	415.995
1230.74	404.26
1231.01	405.356
1231.29	396.694
1231.57	411.672
1231.84	388.627
1232.12	385.465
1232.4	418.025
1232.67	409.568
1232.95	394.847
1233.23	407.43
1233.5	414.742
1233.78	416.83
1234.06	415.8
1234.33	413.735
1234.61	411.673
1234.89	410.681
1235.16	403.39
1235.44	408.676
1235.71	401.353
1235.99	371.963
1236.27	411.946
1236.54	421.4
1236.82	416.09
1237.1	428.636
1237.37	429.591
1237.65	385.322
1237.93	424.038
1238.2	411.288
1238.48	409.038
1238.76	428.821
1239.03	396.19
1239.31	413.944
1239.58	399.208
1239.86	397.068
1240.14	418.005
1240.41	386.544
1240.69	392.829
1240.97	405.417
1241.24	401.243
1241.52	386.58
1241.79	384.447
1242.07	420.008
1242.35	411.575
1242.62	391.67
1242.9	422.084
1243.18	403.276
1243.45	397.038
1243.73	416.948
1244	406.467
1244.28	403.347
1244.56	373.987
1244.83	402.264
1245.11	406.415
1245.39	433.572
1245.66	390.507
1245.94	406.079
1246.21	414.318
1246.49	387.04
1246.76	403.755
1247.04	368.167
1247.32	406.886
1247.59	425.689
1247.87	411.026
1248.14	380.632
1248.42	442.209
1248.7	411.79
1248.97	416.997
1249.25	403.424
1249.52	419.142
1249.8	415.975
1250.08	392.95
1250.35	392.953
1250.63	412.736
1250.9	417.855
1251.18	410.443
1251.45	406.181
1251.73	407.153
1252.01	398.724
1252.28	399.694
1252.56	415.282
1252.83	405.806
1253.11	414.069
1253.39	413.988
1253.66	392.032
1253.94	369.075
1254.21	407.748
1254.49	415.13
1254.76	389.116
1255.04	390.192
1255.31	395.411
1255.59	394.396
1255.87	399.616
1256.14	381.843
1256.42	391.257
1256.69	421.572
1256.97	394.475
1257.24	394.493
1257.52	416.404
1257.79	394.412
1258.07	400.641
1258.35	406.873
1258.62	387
1258.9	408.878
1259.17	418.173
1259.45	400.418
1259.72	387.938
1260	403.652
1260.27	417.394
1260.55	381.785
1260.82	385.866
1261.1	417.03
1261.37	432.576
1261.65	401.212
1261.92	389.79
1262.2	417.284
1262.48	403.191
1262.75	427.505
1263.02	411.137
1263.3	416.9
1263.58	386.468
1263.85	413.982
1264.13	461.302
1264.4	455.461
1264.68	492.3
1264.95	467.946
1265.23	444.835
1265.5	442.743
1265.78	421.801
1266.05	419.634
1266.33	418.585
1266.6	432.197
1266.88	420.758
1267.15	407.246
1267.43	394.793
1267.7	393.851
1267.98	401.287
1268.25	411.882
1268.53	393.219
1268.8	371.367
1269.08	407.053
1269.35	388.26
1269.63	402.976
1269.9	375.709
1270.18	380.862
1270.45	401.688
1270.73	399.507
1271	391.035
1271.28	393.059
1271.55	397.217
1271.83	406.579
1272.1	417.073
1272.38	396.235
1272.65	399.486
1272.93	381.833
1273.2	417.549
1273.47	398.796
1273.75	406.238
1274.03	400.053
1274.3	407.498
1274.57	394.977
1274.85	424.365
1275.12	409.662
1275.4	388.683
1275.67	399.215
1275.95	385.639
1276.22	406.694
1276.5	409.939
1276.77	376.417
1277.05	391.189
1277.32	396.494
1277.6	401.842
1277.87	422.952
1278.14	400.982
1278.42	434.698
1278.69	429.521
1278.97	401.248
1279.24	381.327
1279.52	402.428
1279.79	410.82
1280.07	393.955
1280.34	411.787
1280.61	413.873
1280.89	398.127
1281.16	397.112
1281.44	415.096
1281.71	380.493
1281.99	423.701
1282.26	399.481
1282.53	427.94
1282.81	398.509
1283.08	443.704
1283.36	411.921
1283.63	487.247
1283.91	476.558
1284.18	552.204
1284.45	716.509
1284.73	948.715
1285	1427.28
1285.28	1290.27
1285.55	922.075
1285.83	602.747
1286.1	501.683
1286.37	469.145
1286.65	441.759
1286.92	411.142
1287.2	405.871
1287.47	436.376
1287.75	389.994
1288.02	395.187
1288.29	407.771
1288.57	409.871
1288.84	409.881
1289.12	355.181
1289.39	408.917
1289.66	393.196
1289.94	405.904
1290.21	415.467
1290.49	403.95
1290.76	381.825
1291.03	410.222
1291.31	413.357
1291.58	408.084
1291.86	444.941
1292.13	400.69
1292.4	408.064
1292.68	404.93
1292.95	398.586
1293.22	406.979
1293.5	410.158
1293.77	378.685
1294.05	410.459
1294.32	413.796
1294.59	395.916
1294.87	404.353
1295.14	415.922
1295.42	408.614
1295.69	384.518
1295.96	384.727
1296.24	413.525
1296.51	385.16
1296.79	404.225
1297.06	391.551
1297.33	373.54
1297.61	411.517
1297.88	399.81
1298.15	400.775
1298.43	391.165
1298.7	422.893
1298.97	415.467
1299.25	386.889
1299.52	412.173
1299.79	407.883
1300.07	376.211
1300.34	419.562
1300.62	406.934
1300.89	391.106
1301.16	406.925
1301.44	382.625
1301.71	404.816
1301.98	429.173
1302.25	373.26
1302.53	379.629
1302.8	383.865
1303.08	371.183
1303.35	381.721
1303.62	415.474
1303.9	386.888
1304.17	398.489
1304.44	383.714
1304.72	409.056
1304.99	413.274
1305.26	393.162
1305.54	396.259
1305.81	403.556
1306.08	385.528
1306.35	390.707
1306.63	427.544
1306.9	400.086
1307.18	402.193
1307.45	403.282
1307.72	408.567
1308	399.068
1308.27	401.173
1308.54	386.427
1308.81	373.747
1309.09	408.574
1309.36	406.527
1309.63	381.262
1309.91	393.979
1310.18	381.351
1310.45	410.889
1310.73	399.254
1311	396.088
1311.27	388.717
1311.55	403.512
1311.82	411.973
1312.09	390.896
1312.37	392.018
1312.64	408.968
1312.91	392.101
1313.18	408.977
1313.46	394.132
1313.73	394.117
1314	403.581
1314.28	406.717
1314.55	384.55
1314.82	394.072
1315.09	382.498
1315.37	403.661
1315.64	375.198
1315.91	387.919
1316.18	383.744
1316.46	387.952
1316.73	383.702
1317	398.47
1317.28	371.001
1317.55	385.784
1317.82	402.738
1318.09	376.368
1318.37	393.294
1318.64	398.591
1318.91	372.188
1319.18	407.052
1319.46	383.797
1319.73	417.586
1320	414.401
1320.28	409.146
1320.55	395.416
1320.82	402.788
1321.09	396.392
1321.37	381.518
1321.64	394.078
1321.91	392.898
1322.18	394.936
1322.46	386.385
1322.73	402.153
1323	392.605
1323.27	380.946
1323.55	374.546
1323.82	397.785
1324.09	386.203
1324.36	390.426
1324.64	405.176
1324.91	390.419
1325.18	392.515
1325.45	391.485
1325.73	387.167
1326	398.583
1326.27	367.812
1326.54	372.812
1326.81	406.37
1327.09	410.546
1327.36	390.686
1327.63	418.322
1327.9	381.599
1328.18	400.7
1328.45	396.637
1328.72	422.102
1328.99	385.311
1329.27	392.732
1329.54	385.297
1329.81	383.227
1330.08	386.375
1330.35	366.298
1330.63	388.401
1330.9	376.728
1331.17	413.54
1331.44	384.956
1331.71	400.611
1331.99	420.446
1332.26	386.61
1332.53	402.289
1332.8	386.383
1333.07	404.131
1333.35	367.184
1333.62	396.495
1333.89	382.713
1334.16	426.725
1334.43	400.35
1334.71	392.894
1334.98	370.753
1335.25	394.813
1335.52	377.946
1335.79	410.396
1336.07	379.905
1336.34	416.546
1336.61	410.192
1336.88	395.457
1337.15	394.362
1337.43	401.661
1337.7	388
1337.97	400.533
1338.24	402.528
1338.51	396.149
1338.78	398.185
1339.06	404.401
1339.33	390.744
1339.6	379.213
1339.87	385.509
1340.14	398.095
1340.42	380.3
1340.69	390.786
1340.96	399.175
1341.23	387.646
1341.5	380.297
1341.77	404.353
1342.04	391.743
1342.32	393.773
1342.59	406.247
1342.86	408.231
1343.13	408.123
1343.4	405.973
1343.67	392.345
1343.95	382.918
1344.22	392.326
1344.49	397.561
1344.76	370.368
1345.03	389.157
1345.3	371.317
1345.58	398.411
1345.85	398.285
1346.12	395.049
1346.39	380.292
1346.66	382.19
1346.93	390.415
1347.2	387.167
1347.47	389.131
1347.75	399.449
1348.02	384.78
1348.29	393.068
1348.56	386.779
1348.83	389.876
1349.1	387.73
1349.37	390.782
1349.65	388.621
1349.92	411.46
1350.19	407.22
1350.46	395.695
1350.73	406.03
1351	383.036
1351.27	377.736
1351.54	375.593
1351.81	406.693
1352.09	382.745
1352.36	375.458
1352.63	380.7
1352.9	403.665
1353.17	387.138
1353.44	401.768
1353.71	393.774
1353.98	370.161
1354.25	400.017
1354.53	384.858
1354.8	377.191
1355.07	403.207
1355.34	400.122
1355.61	381.283
1355.88	389.521
1356.15	388.613
1356.42	387.603
1356.69	402.062
1356.96	420.718
1357.24	386.406
1357.51	383.251
1357.78	381.123
1358.05	387.292
1358.32	400.719
1358.59	387.153
1358.86	410.953
1359.13	381.819
1359.4	394.191
1359.67	402.431
1359.94	392.008
1360.22	397.089
1360.49	399.043
1360.76	378.208
1361.03	381.244
1361.3	387.427
1361.57	407.101
1361.84	388.44
1362.11	372.88
1362.38	380.084
1362.65	416.285
1362.92	375.862
1363.19	396.555
1363.46	370.692
1363.73	382.147
1364	368.728
1364.28	408.137
1364.55	407.095
1364.82	411.21
1365.09	395.629
1365.36	377.954
1365.63	397.539
1365.9	406.759
1366.17	381.83
1366.44	375.536
1366.71	381.652
1366.98	388.779
1367.25	402.082
1367.52	380.314
1367.79	373.041
1368.06	398.928
1368.33	424.799
1368.6	371.07
1368.87	367.99
1369.15	369.045
1369.41	389.753
1369.68	408.39
1369.95	413.509
1370.23	402.09
1370.5	413.413
1370.77	381.269
1371.04	368.82
1371.31	372.883
1371.58	386.204
1371.85	378.848
1372.12	414.818
1372.39	383.709
1372.66	385.637
1372.93	382.441
1373.2	385.467
1373.47	381.292
1373.74	375.059
1374.01	371.928
1374.28	416.202
1374.55	390.413
1374.82	385.235
1375.09	391.385
1375.36	394.424
1375.63	384.138
1375.9	394.487
1376.17	389.325
1376.44	395.528
1376.71	378.946
1376.98	380.911
1377.25	409.607
1377.52	378.567
1377.79	393.021
1378.06	382.826
1378.33	400.483
1378.6	376.983
1378.87	413.269
1379.14	350.444
1379.41	374.143
1379.68	396.771
1379.95	411.143
1380.22	415.179
1380.49	411.91
1380.76	382.758
1381.03	368.178
1381.3	392.721
1381.57	382.499
1381.84	373.144
1382.11	406.888
1382.38	414.903
1382.65	382.895
1382.92	404.311
1383.19	397.999
1383.46	380.447
1383.73	382.385
1384	389.494
1384.27	397.639
1384.54	424.308
1384.81	425.369
1385.08	426.471
1385.34	428.638
1385.61	429.831
1385.88	425.838
1386.15	421.823
1386.42	428.039
1386.69	434.288
1386.96	485.686
1387.23	563.74
1387.5	713.135
1387.77	1083.6
1388.04	1783.29
1388.31	2105.22
1388.58	1279.89
1388.85	754.091
1389.12	579.549
1389.39	505.989
1389.66	476.251
1389.93	433.176
1390.2	444.322
1390.46	399.867
1390.73	421.254
1391	419.187
1391.27	397.492
1391.54	391.307
1391.81	411.766
1392.08	399.376
1392.35	412.588
1392.62	379.725
1392.89	368.397
1393.16	406.224
1393.43	391.846
1393.7	385.664
1393.97	373.347
1394.23	383.549
1394.5	401.94
1394.77	401.914
1395.04	391.666
1395.31	393.753
1395.58	366.184
1395.85	389.77
1396.12	384.669
1396.39	398.987
1396.66	417.376
1396.93	398.905
1397.2	393.736
1397.46	381.384
1397.73	368.015
1398	382.299
1398.27	378.203
1398.54	386.41
1398.81	400.777
1399.08	400.805
1399.35	383.432
1399.62	386.566
1399.89	382.513
1400.16	367.196
1400.42	410.18
1400.69	383.621
1400.96	391.908
1401.23	399.122
1401.5	397.059
1401.77	378.671
1402.04	404.271
1402.31	390.064
1402.58	382.083
1402.84	396.676
1403.11	386.589
1403.38	402.108
1403.65	379.584
1403.92	384.72
1404.19	378.482
1404.46	397.76
1404.73	370.116
1404.99	375.213
1405.26	404.916
1405.53	362.794
1405.8	375.031
1406.07	400.596
1406.34	389.255
1406.61	399.464
1406.87	382.008
1407.14	381
1407.41	391.278
1407.68	401.562
1407.95	401.586
1408.22	408.786
1408.49	412.911
1408.76	459.078
1409.02	461.163
1409.29	547.354
1409.56	516.629
1409.83	518.721
1410.1	455.149
1410.37	431.557
1410.63	408.908
1410.9	394.441
1411.17	397.394
1411.44	389.103
1411.71	384.937
1411.98	363.372
1412.25	389.995
1412.51	389.025
1412.78	398.361
1413.05	398.61
1413.32	403.192
1413.59	395.218
1413.86	372.33
1414.12	361.588
1414.39	397.561
1414.66	378.328
1414.93	373.371
1415.2	364.107
1415.47	400.053
1415.73	376.441
1416	388.773
1416.27	374.43
1416.54	383.706
1416.81	383.744
1417.07	361.188
1417.34	386.912
1417.61	397.232
1417.88	391.11
1418.15	376.747
1418.42	411.692
1418.68	401.433
1418.95	399.397
1419.22	362.406
1419.49	376.801
1419.76	367.513
1420.02	404.432
1420.29	402.297
1420.56	375.52
1420.83	383.658
1421.1	390.762
1421.36	403.008
1421.63	370.129
1421.9	394.785
1422.17	379.49
1422.44	390.915
1422.7	392.074
1422.97	360.418
1423.24	390.563
1423.51	373.401
1423.77	371.495
1424.04	393.275
1424.31	389.28
1424.58	380.71
1424.85	388.91
1425.11	366.475
1425.38	371.857
1425.65	397.546
1425.92	407.746
1426.19	388.395
1426.45	369.903
1426.72	397.53
1426.99	390.251
1427.26	372.717
1427.52	383.882
1427.79	384.751
1428.06	381.553
1428.33	387.636
1428.59	367.134
1428.86	380.45
1429.13	407.095
1429.4	367.192
1429.67	389.767
1429.93	383.682
1430.2	398.108
1430.47	396.165
1430.74	403.425
1431	365.609
1431.27	429.371
1431.54	368.974
1431.81	389.565
1432.07	396.752
1432.34	385.391
1432.61	387.353
1432.87	380.115
1433.14	376.923
1433.41	388.06
1433.68	380.723
1433.95	367.258
1434.21	387.65
1434.48	384.54
1434.75	379.596
1435.01	375.577
1435.28	374.569
1435.55	382.769
1435.82	373.539
1436.08	386.842
1436.35	386.819
1436.62	396.014
1436.89	370.366
1437.15	373.404
1437.42	385.664
1437.69	381.556
1437.95	390.732
1438.22	378.423
1438.49	364.105
1438.76	391.818
1439.02	374.439
1439.29	425.675
1439.56	397.011
1439.82	378.629
1440.09	392.039
1440.36	400.351
1440.63	399.377
1440.89	374.791
1441.16	360.442
1441.43	397.381
1441.69	405.555
1441.96	351.148
1442.23	399.303
1442.49	376.826
1442.76	389.141
1443.03	387.168
1443.3	387.12
1443.56	411.663
1443.83	393.151
1444.1	401.313
1444.36	383.872
1444.63	416.702
1444.9	402.465
1445.16	393.332
1445.43	376.015
1445.7	410.867
1445.97	388.26
1446.23	386.176
1446.5	360.501
1446.77	412.782
1447.03	390.188
1447.3	387.082
1447.57	401.399
1447.83	390.07
1448.1	362.352
1448.37	397.206
1448.63	398.301
1448.9	388.134
1449.17	394.312
1449.43	411.744
1449.7	379.916
1449.97	395.249
1450.23	396.211
1450.5	384.87
1450.77	395.088
1451.03	403.257
1451.3	407.325
1451.57	382.695
1451.83	387.781
1452.1	393.891
1452.37	386.689
1452.63	389.746
1452.9	408.194
1453.17	389.771
1453.43	366.248
1453.7	410.349
1453.97	374.484
1454.23	372.409
1454.5	379.562
1454.77	351.894
1455.03	371.365
1455.3	393.897
1455.56	391.822
1455.83	386.707
1456.1	395.998
1456.36	372.462
1456.63	392.96
1456.9	386.778
1457.16	384.663
1457.43	402.02
1457.7	368.182
1457.96	375.329
1458.23	382.484
1458.49	385.56
1458.76	373.276
1459.03	399.934
1459.29	369.217
1459.56	374.352
1459.82	380.508
1460.09	399.96
1460.36	358.955
1460.62	380.442
1460.89	388.605
1461.16	378.321
1461.42	377.248
1461.69	359.791
1461.95	366.906
1462.22	396.532
1462.49	388.271
1462.75	360.564
1463.02	404.479
1463.28	376.769
1463.55	361.339
1463.82	389.891
1464.08	394.989
1464.35	381.816
1464.61	390.177
1464.88	352.445
1465.15	372.065
1465.41	373.828
1465.68	385.408
1465.94	382.033
1466.21	383.015
1466.48	374.966
1466.74	351.454
1467.01	387.009
1467.27	368.595
1467.54	355.367
1467.8	382.889
1468.07	404.283
1468.34	367.543
1468.6	377.736
1468.87	364.467
1469.13	361.385
1469.4	365.428
1469.67	370.482
1469.93	365.313
1470.2	366.246
1470.46	381.464
1470.73	354.917
1470.99	386.461
1471.26	374.206
1471.53	369.061
1471.79	366.951
1472.06	379.12
1472.32	383.166
1472.59	381.114
1472.85	383.139
1473.12	366.836
1473.39	383.098
1473.65	384.06
1473.92	390.109
1474.18	363.601
1474.45	374.768
1474.71	363.572
1474.98	357.497
1475.24	363.627
1475.51	358.542
1475.78	395.171
1476.04	363.585
1476.31	354.378
1476.57	343.15
1476.84	375.676
1477.1	381.719
1477.37	370.468
1477.63	373.488
1477.9	381.609
1478.16	390.751
1478.43	374.436
1478.69	366.23
1478.96	371.258
1479.22	394.578
1479.49	354.88
1479.76	362.941
1480.02	384.193
1480.29	377.002
1480.55	364.685
1480.82	384.877
1481.08	372.624
1481.35	375.633
1481.61	376.583
1481.88	382.704
1482.14	370.587
1482.41	374.713
1482.67	404.228
1482.94	375.862
1483.2	368.753
1483.47	348.489
1483.73	370.852
1484	373.898
1484.26	365.761
1484.53	390.989
1484.79	362.366
1485.06	356.913
1485.32	396.915
1485.59	372.444
1485.85	359.017
1486.12	362.883
1486.38	373.118
1486.65	365.147
1486.91	369.826
1487.18	372.039
1487.44	371.081
1487.71	376.036
1487.97	368.859
1488.24	368.807
1488.5	376.847
1488.77	359.553
1489.03	357.441
1489.3	377.612
1489.56	375.546
1489.83	365.395
1490.09	378.521
1490.36	367.389
1490.62	355.243
1490.89	377.452
1491.15	362.206
1491.42	376.29
1491.68	371.198
1491.95	370.17
1492.21	386.343
1492.48	375.237
1492.74	365.114
1493	383.291
1493.27	369.124
1493.53	370.133
1493.8	375.16
1494.06	379.188
1494.33	380.203
1494.59	365.063
1494.86	396.433
1495.12	392.373
1495.39	358.953
1495.65	350.763
1495.92	367.808
1496.18	356.593
1496.45	384.798
1496.71	349.41
1496.97	335.234
1497.24	345.28
1497.5	357.387
1497.77	364.448
1498.03	363.416
1498.3	352.306
1498.56	356.344
1498.82	357.36
1499.09	374.528
1499.35	394.729
1499.62	365.482
1499.88	350.371
1500.15	384.725
1500.41	356.469
1500.68	360.503
1500.94	376.642
1501.2	350.382
1501.47	376.588
1501.73	363.395
1502	369.426
1502.26	382.532
1502.52	367.38
1502.79	386.515
1503.05	361.212
1503.32	382.32
1503.58	375.215
1503.85	368.088
1504.11	377.16
1504.37	368.119
1504.64	358.05
1504.9	361.077
1505.17	372.152
1505.43	365.054
1505.7	368.022
1505.96	369.934
1506.22	374.839
1506.49	376.827
1506.75	376.814
1507.02	380.859
1507.28	359.753
1507.54	349.689
1507.81	360.788
1508.07	367.837
1508.34	355.72
1508.6	375.851
1508.86	358.728
1509.13	355.717
1509.39	366.805
1509.66	363.775
1509.92	380.902
1510.18	369.858
1510.45	365.849
1510.71	360.74
1510.98	354.625
1511.24	383.751
1511.5	371.56
1511.77	370.403
1512.03	400.389
1512.29	363.982
1512.56	374.857
1512.82	374.698
1513.08	362.548
1513.35	366.481
1513.61	366.409
1513.88	371.397
1514.14	368.47
1514.4	356.557
1514.67	356.591
1514.93	373.625
1515.2	362.492
1515.46	363.399
1515.72	360.294
1515.99	358.177
1516.25	362.082
1516.51	355.987
1516.78	369.99
1517.04	340.881
1517.3	378.958
1517.57	364.909
1517.83	352.883
1518.09	360.929
1518.36	361.996
1518.62	353.99
1518.88	372.069
1519.15	369.08
1519.41	357.074
1519.67	369.139
1519.94	376.18
1520.2	385.199
1520.47	366.103
1520.73	348.019
1520.99	377.131
1521.26	365.127
1521.52	381.213
1521.78	365.171
1522.05	373.182
1522.31	369.134
1522.57	365.079
1522.84	357.01
1523.1	368.004
1523.36	375.965
1523.62	368.834
1523.89	377.706
1524.15	386.621
1524.41	354.487
1524.68	365.44
1524.94	372.39
1525.2	374.434
1525.47	385.467
1525.73	354.433
1525.99	363.498
1526.26	375.587
1526.52	364.662
1526.78	357.72
1527.05	347.723
1527.31	355.733
1527.57	357.686
1527.84	359.666
1528.1	372.661
1528.36	384.654
1528.63	357.556
1528.89	350.504
1529.15	364.495
1529.41	351.454
1529.68	372.48
1529.94	363.441
1530.2	391.421
1530.47	353.35
1530.73	362.395
1530.99	384.504
1531.25	348.513
1531.52	359.588
1531.78	352.58
1532.04	385.621
1532.31	384.629
1532.57	345.503
1532.83	360.573
1533.09	365.678
1533.36	354.779
1533.62	379.962
1533.88	360.955
1534.15	386.062
1534.41	381.042
1534.67	372.995
1534.94	369.956
1535.2	380.948
1535.46	355.841
1535.72	370.813
1535.99	375.638
1536.25	372.518
1536.51	341.382
1536.77	376.309
1537.04	354.148
1537.3	367.038
1537.56	357.982
1537.82	366.9
1538.09	361.902
1538.35	375.828
1538.61	379.708
1538.87	365.674
1539.14	351.643
1539.4	362.736
1539.66	378.947
1539.92	369.211
1540.19	369.395
1540.45	349.509
1540.71	334.623
1540.97	349.754
1541.24	373.861
1541.5	358.668
1541.76	356.645
1542.02	364.564
1542.29	357.459
1542.55	366.383
1542.81	365.289
1543.07	375.215
1543.34	368.123
1543.6	364.028
1543.86	353.905
1544.12	358.785
1544.39	354.799
1544.65	354.819
1544.91	366.896
1545.17	364.003
1545.43	362.08
1545.7	361.221
1545.96	359.295
1546.22	351.328
1546.48	377.41
1546.74	375.383
1547.01	352.36
1547.27	371.434
1547.53	371.477
1547.79	373.519
1548.06	371.433
1548.32	379.25
1548.58	377.245
1548.84	358.238
1549.1	343.317
1549.37	356.009
1549.63	391.632
1549.89	369.555
1550.15	374.76
1550.42	356.127
1550.68	360.673
1550.94	373.112
1551.2	356.393
1551.46	377.237
1551.73	363.215
1551.99	365.149
1552.25	377.076
1552.51	364.191
1552.77	377.396
1553.03	379.355
1553.3	355.148
1553.56	376.961
1553.82	368.875
1554.08	365.833
1554.34	375.787
1554.61	358.634
1554.87	375.551
1555.13	346.362
1555.39	364.349
1555.65	396.379
1555.91	383.352
1556.18	376.363
1556.44	387.385
1556.7	379.312
1556.96	377.312
1557.22	344.278
1557.48	358.322
1557.75	355.321
1558.01	355.3
1558.27	383.277
1558.53	366.134
1558.79	346.021
1559.06	360.913
1559.32	382.809
1559.58	385.706
1559.84	363.624
1560.1	376.555
1560.36	366.504
1560.63	364.465
1560.89	389.419
1561.15	358.415
1561.41	338.424
1561.67	371.426
1561.93	355.499
1562.19	364.594
1562.46	357.7
1562.72	362.702
1562.98	355.682
1563.24	347.652
1563.5	350.667
1563.76	348.632
1564.02	361.608
1564.29	362.734
1564.55	355.868
1564.81	347.905
1565.07	390.91
1565.33	357.684
1565.59	375.027
1565.85	375.116
1566.11	359.72
1566.38	332.232
1566.64	363.63
1566.9	371.439
1567.16	377.186
1567.42	354.499
1567.68	372.821
1567.94	332.721
1568.2	362.475
1568.47	375.514
1568.73	361.567
1568.99	371.59
1569.25	379.552
1569.51	398.402
1569.77	377.33
1570.03	359.344
1570.29	376.36
1570.55	351.382
1570.82	344.39
1571.08	371.365
1571.34	352.359
1571.6	390.298
1571.86	368.255
1572.12	358.198
1572.38	364.179
1572.64	376.116
1572.9	367.055
1573.17	369.995
1573.43	367.944
1573.69	366.884
1573.95	344.874
1574.21	364.841
1574.47	360.912
1574.73	366.984
1574.99	378.055
1575.25	364.164
1575.51	377.239
1575.78	362.316
1576.04	345.342
1576.3	370.298
1576.56	381.282
1576.82	381.237
1577.08	334.169
1577.34	361.997
1577.6	350.885
1577.86	343.777
1578.12	358.629
1578.38	350.543
1578.64	375.401
1578.9	389.334
1579.17	350.448
1579.43	376.364
1579.69	378.359
1579.95	368.409
1580.21	363.475
1580.47	362.503
1580.73	374.474
1580.99	362.491
1581.25	367.433
1581.51	368.37
1581.77	384.268
1582.03	357.282
1582.29	363.182
1582.55	371.123
1582.81	370.099
1583.07	374.053
1583.33	380.006
1583.59	364.056
1583.85	378.985
1584.11	353.051
1584.38	367.988
1584.64	381.962
1584.9	341.146
1585.16	370.046
1585.42	380.998
1585.68	350.097
1585.94	378.971
1586.2	365.986
1586.46	360.92
1586.72	342.911
1586.98	378.678
1587.24	347.776
1587.5	372.613
1587.76	365.615
1588.02	367.585
1588.28	381.515
1588.54	371.594
1588.8	349.741
1589.06	378.653
1589.32	352.818
1589.58	347.884
1589.84	370.813
1590.1	357.881
1590.36	364.847
1590.62	335.999
1590.88	345.995
1591.14	342.041
1591.4	371.906
1591.66	373.893
1591.92	358.929
1592.18	362.873
1592.44	383.696
1592.7	374.616
1592.96	363.582
1593.22	379.441
1593.48	366.373
1593.74	356.285
1594	347.193
1594.26	361.01
1594.52	389.763
1594.78	390.754
1595.04	362.985
1595.3	359.081
1595.56	373.039
1595.82	372.044
1596.08	355.981
1596.34	340.08
1596.6	348.024
1596.86	377.821
1597.12	342.076
1597.38	349.051
1597.64	364.975
1597.9	380.9
1598.16	369.961
1598.42	391.778
1598.68	358.93
1598.94	358.831
1599.2	366.683
1599.46	375.546
1599.72	350.671
1599.98	371.446
1600.24	356.501
1600.5	370.326
1600.76	353.394
1601.02	370.16
1601.28	364.096
1601.54	369.919
1601.8	364.844
1602.06	346.921
1602.32	377.536
1602.58	358.655
1602.84	348.679
1603.1	373.327
1603.36	352.47
1603.62	366.248
1603.88	338.513
1604.14	348.37
1604.4	340.45
1604.66	385.935
1604.92	365.181
1605.17	360.239
1605.43	354.312
1605.69	348.39
1605.95	356.328
1606.21	383.071
1606.47	353.444
1606.73	351.51
1606.99	363.417
1607.25	364.396
1607.51	368.221
1607.77	376.98
1608.03	359.178
1608.29	370.288
1608.55	360.096
1608.81	359.246
1609.07	350.111
1609.32	363.876
1609.58	348.9
1609.84	369.786
1610.1	355.937
1610.36	365.968
1610.62	355.632
1610.88	359.738
1611.14	365.041
1611.4	352.526
1611.66	355.584
1611.92	361.454
1612.18	351.707
1612.44	368.337
1612.69	354.839
1612.95	362.558
1613.21	363.101
1613.47	351.902
1613.73	357.545
1613.99	336.721
1614.25	357.63
1614.51	353.591
1614.77	367.609
1615.03	363.156
1615.29	362.234
1615.54	345.392
1615.8	367.156
1616.06	358.327
1616.32	352.324
1616.58	339.897
1616.84	353.235
1617.1	362.597
1617.36	365.648
1617.62	360.824
1617.88	370.104
1618.13	352.328
1618.39	355.459
1618.65	346.618
1618.91	358.361
1619.17	356.04
1619.43	362.363
1619.69	347.924
1619.95	357.173
1620.2	351.611
1620.46	353.339
1620.72	356.641
1620.98	357.195
1621.24	350.938
1621.5	353.534
1621.76	348.913
1622.02	359.723
1622.27	354.72
1622.53	359.885
1622.79	354.335
1623.05	351.275
1623.31	364.943
1623.57	353.36
1623.83	346.261
1624.09	365.88
1624.34	357.269
1624.6	351.081
1624.86	351.343
1625.12	353.115
1625.38	355.948
1625.64	362.559
1625.9	362.972
1626.15	358.956
1626.41	364.963
1626.67	359.03
1626.93	358.883
1627.19	355.14
1627.45	350.231
1627.7	357.486
1627.96	365.474
1628.22	363.11
1628.48	358.328
1628.74	362.723
1629	367.647
1629.26	363.74
1629.51	362.216
1629.77	366.109
1630.03	371.796
1630.29	344.885
1630.55	339.525
1630.81	348.595
1631.06	349.849
1631.32	369.269
1631.53	371.668
1631.79	359.902
1632.05	351.099
1632.31	359.043
1632.57	337.342
1632.84	362.079
1633.1	341.551
1633.36	344.383
1633.62	350.115
1633.88	358.942
1634.14	359.976
1634.4	352.148
1634.66	354.136
1634.93	379.772
1635.19	383.707
1635.45	337.365
1635.71	361.983
1635.97	382.647
1636.23	362.898
1636.49	351.027
1636.75	351.967
1637.02	346.007
1637.28	365.647
1637.54	338.006
1637.8	360.619
1638.06	361.589
1638.32	358.601
1638.58	346.749
1638.84	345.737
1639.1	359.52
1639.37	362.472
1639.63	359.514
1639.89	363.447
1640.15	363.439
1640.41	353.581
1640.67	353.59
1640.93	385.161
1641.19	346.81
1641.46	373.41
1641.72	340.888
1641.98	345.772
1642.24	335.901
1642.5	365.414
1642.76	356.537
1643.02	359.472
1643.28	363.395
1643.54	341.73
1643.8	358.452
1644.06	340.705
1644.33	372.156
1644.59	355.369
1644.85	352.368
1645.11	371.047
1645.37	344.51
1645.63	340.618
1645.89	354.42
1646.15	344.582
1646.41	349.466
1646.67	349.422
1646.93	356.269
1647.19	352.309
1647.46	351.287
1647.72	361.081
1647.98	348.262
1648.24	376.771
1648.5	380.718
1648.76	353.242
1649.02	348.39
1649.28	360.376
1649.54	366.353
1649.8	374.187
1650.06	392.845
1650.32	388.903
1650.58	344.71
1650.85	364.49
1651.11	356.676
1651.37	365.61
1651.63	348.905
1651.89	360.748
1652.15	370.603
1652.41	345.966
1652.67	345.978
1652.93	372.547
1653.19	367.573
1653.45	357.699
1653.71	345.876
1653.97	329.14
1654.23	365.631
1654.49	390.29
1654.75	353.841
1655.01	349.921
1655.27	355.879
1655.53	384.541
1655.8	360.983
1656.06	358.152
1656.32	357.25
1656.57	358.292
1656.84	364.245
1657.1	348.466
1657.36	348.455
1657.62	347.435
1657.88	372.068
1658.14	353.291
1658.4	362.144
1658.66	374.93
1658.92	341.332
1659.18	345.226
1659.44	365.883
1659.7	354.98
1659.96	359.855
1660.22	356.817
1660.48	367.689
1660.74	367.735
1661	362.86
1661.26	336.293
1661.52	358.058
1661.78	350.237
1662.04	364.08
1662.3	366.081
1662.56	356.869
1662.82	356.559
1663.08	344.075
1663.34	370.569
1663.6	349.771
1663.86	378.332
1664.12	352.897
1664.38	333.53
1664.64	359.28
1664.9	344.5
1665.16	359.489
1665.42	363.513
1665.68	361.142
1665.94	366.717
1666.2	353.825
1666.46	352.911
1666.72	357.816
1666.98	352.374
1667.24	344.381
1667.5	347.375
1667.76	345.324
1668.02	358.093
1668.28	365.947
1668.54	353.059
1668.8	358.985
1669.06	349.276
1669.32	359.349
1669.58	342.596
1669.84	342.602
1670.1	343.6
1670.36	350.476
1670.62	340.598
1670.88	365.479
1671.14	348.795
1671.4	360.618
1671.66	357.623
1671.92	366.5
1672.18	362.561
1672.44	366.545
1672.69	384.349
1672.95	364.575
1673.21	355.675
1673.47	339.866
1673.73	349.765
1673.99	364.617
1674.25	358.721
1674.51	366.68
1674.77	367.713
1675.03	345.008
1675.29	360.902
1675.55	359.966
1675.81	367.913
1676.07	339.217
1676.33	364.94
1676.59	352.085
1676.85	366.948
1677.11	344.192
1677.37	362
1677.63	343.174
1677.89	366.89
1678.14	365.847
1678.4	351.924
1678.66	373.604
1678.92	370.567
1679.18	361.615
1679.44	348.716
1679.7	356.593
1679.96	339.751
1680.22	365.41
1680.48	341.662
1680.74	331.743
1681	346.528
1681.26	341.555
1681.52	359.319
1681.78	367.213
1682.03	354.365
1682.29	359.302
1682.55	366.218
1682.81	357.333
1683.07	358.303
1683.33	351.376
1683.59	360.26
1683.85	367.172
1684.11	351.354
1684.37	357.256
1684.63	362.137
1684.89	347.291
1685.14	376.896
1685.4	362.069
1685.66	348.235
1685.92	369.955
1686.18	361.069
1686.44	360.087
1686.7	365.053
1686.96	357.223
1687.22	350.343
1687.48	348.372
1687.73	346.368
1687.99	350.276
1688.25	373.936
1688.51	362.048
1688.77	366.943
1689.03	350.103
1689.29	335.22
1689.55	348.977
1689.81	351.873
1690.06	340.95
1690.32	356.651
1690.58	340.846
1690.84	353.747
1691.1	349.845
1691.36	337.047
1691.62	354.824
1691.88	335.122
1692.13	344.032
1692.39	359.822
1692.65	365.721
1692.91	373.558
1693.17	355.726
1693.43	356.629
1693.69	358.502
1693.95	337.69
1694.2	372.115
1694.46	403.571
1694.72	356.196
1694.98	351.216
1695.24	355.148
1695.5	366.003
1695.76	361.095
1696.01	357.173
1696.27	340.446
1696.53	358.228
1696.79	365.158
1697.05	359.24
1697.31	350.335
1697.57	338.444
1697.82	331.46
1698.08	347.125
1698.34	357.878
1698.6	354.861
1698.86	361.689
1699.12	342.94
1699.38	343.896
1699.63	344.869
1699.89	358.662
1700.15	355.71
1700.41	348.826
1700.67	353.678
1700.92	348.741
1701.18	361.511
1701.44	375.26
1701.7	359.486
1701.96	349.59
1702.22	344.602
1702.47	356.334
1702.73	354.295
1702.99	369.951
1703.25	364.03
1703.51	337.487
1703.77	361.044
1704.02	337.427
1704.28	352.14
1704.54	358.065
1704.8	350.249
1705.06	378.756
1705.32	345.325
1705.57	365.935
1705.83	362.985
1706.09	342.348
1706.35	368.817
1706.61	371.682
1706.86	349.006
1707.12	373.459
1707.38	351.771
1707.64	355.617
1707.9	339.823
1708.16	367.172
1708.41	350.386
1708.67	351.252
1708.93	354.06
1709.19	331.416
1709.44	356.795
1709.7	356.739
1709.96	348.88
1710.22	365.514
1710.48	357.686
1710.73	348.884
1710.99	353.806
1711.25	355.815
1711.51	353.887
1711.77	364.689
1712.02	364.714
1712.28	348.066
1712.54	360.757
1712.8	351.841
1713.06	355.608
1713.31	348.603
1713.57	363.13
1713.83	355.175
1714.09	341.358
1714.34	334.453
1714.6	345.153
1714.86	355.863
1715.12	346.072
1715.38	354.854
1715.63	319.745
1715.89	349.125
1716.15	340.327
1716.41	363.743
1716.66	348.059
1716.92	356.771
1717.18	329.329
1717.44	354.587
1717.69	355.409
1717.95	338.653
1718.21	356.046
1718.47	351.035
1718.72	345.072
1718.98	338.176
1719.24	349.815
1719.5	358.568
1719.75	362.456
1720.01	350.749
1720.27	364.403
1720.53	348.837
1720.78	371.192
1721.04	357.494
1721.3	358.367
1721.56	344.667
1721.81	335.84
1722.07	350.349
1722.33	351.231
1722.59	348.221
1722.84	367.565
1723.1	347.072
1723.36	336.31
1723.62	344.019
1723.87	337.179
1724.13	331.346
1724.39	366.27
1724.64	342.946
1724.9	358.42
1725.16	362.204
1725.42	348.477
1725.67	353.199
1725.93	346.276
1726.19	364.602
1726.45	333.546
1726.7	342.29
1726.96	353.89
1727.22	344.145
1727.47	342.083
1727.73	354.662
1727.99	343.12
1728.24	338.252
1728.5	338.192
1728.76	361.297
1729.02	336.623
1729.27	366.99
1729.53	351.342
1729.79	321.617
1730.05	341.099
1730.3	361.521
1730.56	342.95
1730.82	339.957
1731.07	365.019
1731.33	362.531
1731.59	343.224
1731.84	365.457
1732.1	344.184
1732.36	357.691
1732.61	353.788
1732.87	346.017
1733.13	331.471
1733.39	343.954
1733.64	349.639
1733.9	332.125
1734.16	358.031
1734.41	330.914
1734.67	348.162
1734.93	334.553
1735.18	326.733
1735.44	329.516
1735.7	349.642
1735.95	347.641
1736.21	344.697
1736.47	341.774
1736.72	334.037
1736.98	359.972
1737.24	345.488
1737.49	354.093
1737.75	351.156
1738.01	365.536
1738.26	331.813
1738.52	346.161
1738.78	339.357
1739.03	368.112
1739.29	348.806
1739.55	347.741
1739.8	341.847
1740.06	361.843
1740.32	350.175
1740.57	344.285
1740.83	341.299
1741.09	346.962
1741.34	346.882
1741.6	359.255
1741.86	351.517
1742.11	366.777
1742.37	347.586
1742.63	344.691
1742.88	346.575
1743.14	348.451
1743.4	348.426
1743.65	335.971
1743.91	335.935
1744.16	337.777
1744.42	361.634
1744.68	334.793
1744.93	333.81
1745.19	328.068
1745.45	334.767
1745.7	347.199
1745.96	339.526
1746.22	332.787
1746.47	341.322
1746.73	363.217
1746.98	339.215
1747.24	343.91
1747.5	346.674
1747.75	344.682
1748.01	356.055
1748.27	346.465
1748.52	349.318
1748.78	356.957
1749.03	335.968
1749.29	334.079
1749.55	332.206
1749.8	351.357
1750.06	343.783
1750.32	347.681
1750.57	340.115
1750.83	349.744
1751.08	353.594
1751.34	341.205
1751.6	353.641
1751.85	348.813
1752.11	326.731
1752.36	349.557
1752.62	333.236
1752.88	341.757
1753.13	344.541
1753.39	380.731
1753.64	317.672
1753.9	346.24
1754.15	345.227
1754.41	337.518
1754.67	332.672
1754.92	343.106
1755.18	348.775
1755.43	354.452
1755.69	341.061
1755.95	355.295
1756.2	347.595
1756.46	335.125
1756.71	336.936
1756.97	334.921
1757.23	343.375
1757.48	333.759
1757.74	355.594
1757.99	323.211
1758.25	352.714
1758.5	350.914
1758.76	357.606
1759.02	336.678
1759.27	344.293
1759.53	346.199
1759.78	340.505
1760.04	335.739
1760.3	351.887
1760.55	326.165
1760.81	351.819
1761.06	327.994
1761.32	353.619
1761.57	350.693
1761.83	344.923
1762.08	344.878
1762.34	336.294
1762.6	339.13
1762.85	344.89
1763.11	330.665
1763.36	341.129
1763.62	353.473
1763.87	349.679
1764.13	327.831
1764.38	334.521
1764.64	337.442
1764.89	344.228
1765.15	345.233
1765.4	356.699
1765.66	332.932
1765.92	341.521
1766.17	322.491
1766.43	353.908
1766.68	356.75
1766.94	346.248
1767.19	339.558
1767.45	352.878
1767.7	332.858
1767.96	341.375
1768.21	322.29
1768.47	340.328
1768.73	342.199
1768.98	329.805
1769.24	337.273
1769.49	336.133
1769.75	345.455
1770	344.384
1770.26	345.342
1770.51	337.823
1770.77	346.457
1771.02	341.711
1771.28	341.734
1771.53	334.221
1771.79	325.784
1772.04	338.186
1772.3	327.742
1772.55	352.524
1772.81	349.741
1773.06	336.473
1773.32	352.69
1773.57	328.937
1773.83	345.15
1774.08	359.46
1774.34	329.976
1774.59	349.986
1774.85	328.103
1775.1	365.285
1775.36	339.6
1775.61	322.515
1775.87	364.589
1776.12	359.917
1776.38	363.776
1776.63	330.421
1776.89	340.89
1777.14	340.845
1777.4	359.844
1777.65	345.509
1777.91	338.776
1778.16	336.808
1778.42	332.933
1778.67	327.158
1778.93	328.99
1779.18	329.852
1779.44	326.903
1779.69	341.117
1779.95	327.791
1780.2	328.836
1780.46	341.23
1780.71	334.591
1780.97	343.185
1781.22	339.411
1781.47	328.944
1781.73	346.094
1781.98	331.841
1782.24	339.504
1782.49	361.464
1782.75	317.726
1783	346.357
1783.26	350.208
1783.51	359.776
1783.77	348.384
1784.02	333.176
1784.28	346.571
1784.53	338.05
1784.79	340.997
1785.04	344.865
1785.29	338.214
1785.55	343.937
1785.8	352.504
1786.06	320.03
1786.31	323.809
1786.57	330.49
1786.82	347.689
1787.08	327.707
1787.33	344.954
1787.58	342.185
1787.84	348.044
1788.09	338.698
1788.35	362.821
1788.6	343.916
1788.86	348.848
1789.11	327.844
1789.37	316.429
1789.62	346.246
1789.87	345.375
1790.13	356.919
1790.38	397.223
1790.64	339.755
1790.89	350.302
1791.15	337.822
1791.4	320.492
1791.65	322.208
1791.91	334.629
1792.16	325.018
1792.42	326.935
1792.67	322.159
1792.93	339.415
1793.18	345.205
1793.43	338.527
1793.69	333.744
1793.94	351.949
1794.2	347.204
1794.45	367.339
1794.7	344.333
1794.96	328.95
1795.21	353.001
1795.47	336.972
1795.72	338.105
1795.97	350.671
1796.23	341.126
1796.48	338.307
1796.74	358.539
1796.99	351.885
1797.25	342.348
1797.5	352.982
1797.75	344.388
1798.01	333.859
1798.26	344.47
1798.51	346.424
1798.77	328.174
1799.02	348.369
1799.28	351.232
1799.53	353.115
1799.78	334.793
1800.04	342.414
1800.29	333.701
1800.55	344.22
1800.8	365.312
1801.05	323.972
1801.31	339.319
1801.56	345.069
1801.81	359.475
1802.07	334.512
1802.32	344.14
1802.58	337.447
1802.83	352.864
1803.08	326.013
1803.34	337.612
1803.59	333.838
1803.84	341.588
1804.1	329.116
1804.35	336.827
1804.61	328.212
1804.86	332.121
1805.11	336.031
1805.37	333.217
1805.62	360.256
1805.87	343.01
1806.13	354.642
1806.38	342.18
1806.64	360.54
1806.89	341.315
1807.14	328.815
1807.4	336.535
1807.65	351.958
1807.9	335.573
1808.16	349.069
1808.41	338.471
1808.66	338.478
1808.92	337.523
1809.17	351.029
1809.42	334.653
1809.68	352.98
1809.93	348.173
1810.18	338.545
1810.44	333.735
1810.69	346.271
1810.94	339.503
1811.2	322.13
1811.45	349.118
1811.7	344.288
1811.96	329.821
1812.21	337.536
1812.46	338.515
1812.72	331.801
1812.97	334.739
1813.22	341.549
1813.48	353.174
1813.73	335.828
1813.98	350.348
1814.24	357.181
1814.49	338.934
1814.74	334.2
1815	348.799
1815.25	354.663
1815.5	351.818
1815.76	363.444
1816.01	340.266
1816.26	345.113
1816.52	322.898
1816.77	338.385
1817.02	345.175
1817.27	352.886
1817.53	339.302
1817.78	331.412
1818.03	365.099
1818.29	338.073
1818.54	347.792
1818.79	324.695
1819.05	342.141
1819.3	367.247
1819.55	341.178
1819.8	352.817
1820.06	334.49
1820.31	341.286
1820.56	342.292
1820.82	337.502
1821.07	351.078
1821.32	350.142
1821.58	339.548
1821.83	352.179
1822.08	347.39
1822.33	340.654
1822.59	346.492
1822.84	349.418
1823.09	347.5
1823.34	371.718
1823.6	343.635
1823.85	341.667
1824.1	358.085
1824.36	332.909
1824.61	365.844
1824.86	354.259
1825.11	348.48
1825.37	362.068
1825.62	364.042
1825.87	334.047
1826.12	344.704
1826.38	368.912
1826.63	340.832
1826.88	340.84
1827.14	349.563
1827.39	347.646
1827.64	350.584
1827.89	344.809
1828.15	348.717
1828.4	336.122
1828.65	338.044
1828.9	335.102
1829.16	362.174
1829.41	346.641
1829.66	329.193
1829.91	362.106
1830.17	356.273
1830.42	339.767
1830.67	370.71
1830.92	358.083
1831.18	333.879
1831.43	344.565
1831.68	352.357
1831.93	379.523
1832.19	344.699
1832.44	354.429
1832.69	352.54
1832.94	362.3
1833.2	345.873
1833.45	349.756
1833.7	379.81
1833.95	350.762
1834.2	352.716
1834.46	350.799
1834.71	358.46
1834.96	374.737
1835.21	369.708
1835.47	352.114
1835.72	379.098
1835.97	354.81
1836.22	338.359
1836.48	361.488
1836.73	373.642
1836.98	345.437
1837.23	352.724
1837.48	342.862
1837.74	355.205
1837.99	354.981
1838.24	335.28
1838.49	358.261
1838.74	342.756
1839	341.397
1839.25	345.518
1839.5	352.427
1839.75	375.731
1840	347.676
1840.26	354.547
1840.51	354.218
1840.76	351.064
1841.01	329.573
1841.27	374.84
1841.52	356.301
1841.77	362.9
1842.02	347.303
1842.27	351.034
1842.53	327.758
1842.78	345.007
1843.03	352.782
1843.28	349.852
1843.53	342.172
1843.78	370.139
1844.04	309.366
1844.29	341.16
1844.54	331.51
1844.79	345.055
1845.04	336.378
1845.3	341.142
1845.55	345.011
1845.8	340.19
1846.05	341.294
1846.3	329.858
1846.55	332.883
1846.81	350.514
1847.06	345.486
1847.31	344.985
1847.56	344.399
1847.81	350.058
1848.07	337.549
1848.32	334.829
1848.57	352.328
1848.82	331.919
1849.07	329.903
1849.32	371.313
1849.57	337.545
1849.83	334.558
1850.08	324.829
1850.33	335.311
1850.58	333.259
1850.83	343.731
1851.09	333.069
1851.34	362.776
1851.59	342.534
1851.84	329.036
1852.09	348.205
1852.34	345.306
1852.59	347.221
1852.84	350.1
1853.1	342.415
1853.35	350.085
1853.6	332.777
1853.85	347.139
1854.1	329.791
1854.35	314.343
1854.6	317.116
1854.86	334.285
1855.11	361.078
1855.36	341.846
1855.61	336.952
1855.86	347.378
1856.11	345.394
1856.36	326.204
1856.61	329.058
1856.87	339.591
1857.12	332.882
1857.37	351.063
1857.62	349.114
1857.87	330.876
1858.12	328.918
1858.37	345.139
1858.63	344.109
1858.88	322.976
1859.13	360.209
1859.38	345.772
1859.63	326.557
1859.88	341.793
1860.13	344.651
1860.38	355.166
1860.63	331.284
1860.89	331.345
1861.14	348.617
1861.39	331.448
1861.64	360.211
1861.89	343.999
1862.14	344.973
1862.39	335.383
1862.64	336.287
1862.9	353.431
1863.15	351.432
1863.4	334.135
1863.65	333.1
1863.9	341.627
1864.15	351.113
1864.4	346.269
1864.65	335.699
1864.9	343.276
1865.15	326.015
1865.4	337.384
1865.66	326.783
1865.91	315.224
1866.16	349.43
1866.41	342.608
1866.66	329.119
1866.91	334.693
1867.16	321.222
1867.41	325.845
1867.66	326.67
1867.91	346.542
1868.16	358.839
1868.41	328.374
1868.67	358.769
1868.92	337.858
1869.17	336.923
1869.42	320.756
1869.67	349.257
1869.92	318.813
1870.17	337.803
1870.42	329.229
1870.67	344.417
1870.92	332.046
1871.17	332.986
1871.42	346.284
1871.67	338.654
1871.92	321.509
1872.17	342.352
1872.42	327.11
1872.68	342.272
1872.93	351.703
1873.18	328.841
1873.43	330.692
1873.68	344.915
1873.93	342.986
1874.18	333.444
1874.43	335.276
1874.68	337.096
1874.93	324.68
1875.18	346.403
1875.43	351.993
1875.68	324.408
1875.93	340.394
1876.18	326
1876.43	344.806
1876.68	356.999
1876.93	333.26
1877.18	322.806
1877.43	333.04
1877.68	320.553
1877.93	315.464
1878.18	314.776
1878.44	326.351
1878.69	319.265
1878.93	336.15
1879.19	347.458
1879.44	354.416
1879.69	330.892
1879.94	331.736
1880.19	332.579
1880.44	344.868
1880.69	317.387
1880.94	346.813
1881.19	343.892
1881.44	331.565
1881.69	350.351
1881.94	325.582
1882.19	338.651
1882.44	316.734
1882.69	324.102
1882.94	338.971
1883.19	332.268
1883.44	353.704
1883.69	337.08
1883.94	335.611
1884.19	327.189
1884.44	309.306
1884.69	331.178
1884.94	327.228
1885.19	337.721
1885.44	320.914
1885.69	328.506
1885.94	334.208
1886.19	319.265
1886.44	325.949
1886.69	339.22
1886.94	337.295
1887.19	331.486
1887.44	333.297
1887.69	336.991
1887.94	330.302
1888.19	328.328
1888.44	332.947
1888.69	336.583
1888.94	334.578
1889.19	325.051
1889.44	351.31
1889.69	334.303
1889.94	335.23
1890.19	359.686
1890.44	334.3
1890.69	317.426
1890.94	314.672
1891.19	326.936
1891.43	335.399
1891.68	345.725
1891.94	327.823
1892.18	328.741
1892.43	329.662
1892.68	339.064
1892.93	334.305
1893.18	328.586
1893.43	328.465
1893.68	326.398
1893.93	326.235
1894.18	345.93
1894.43	316.844
1894.68	352.433
1894.93	327.001
1895.18	325.094
1895.43	338.254
1895.68	348.612
1895.93	312
1896.18	341.168
1896.43	343.09
1896.68	341.264
1896.93	315.943
1897.18	334.803
1897.42	336.726
1897.68	320.766
1897.92	342.414
1898.17	325.479
1898.42	336.744
1898.67	336.702
1898.92	330.058
1899.17	338.442
1899.42	333.653
1899.67	337.346
1899.92	349.523
1900.17	328.807
1900.42	324.065
1900.67	324.052
1900.92	325.939
1901.16	339.123
1901.41	332.601
1901.66	334.548
1901.91	323.332
1902.16	321.516
1902.41	320.65
1902.66	351.759
1902.91	321.66
1903.16	325.392
1903.41	342.286
1903.66	329.077
1903.91	322.463
1904.16	336.544
1904.41	330.885
1904.65	327.112
1904.9	324.277
1905.15	318.617
1905.4	354.325
1905.65	313.895
1905.9	344.895
1906.15	338.217
1906.4	308.037
1906.65	338.989
1906.9	335.189
1907.14	314.493
1907.39	321.98
1907.64	317.286
1907.89	325.755
1908.14	326.735
1908.39	342.765
1908.64	314.607
1908.89	336.233
1909.14	328.749
1909.39	314.703
1909.63	339.205
1909.88	340.23
1910.13	332.806
1910.38	323.507
1910.63	330.207
1910.88	333.132
1911.13	336.973
1911.38	331.373
1911.62	324.811
1911.87	341.778
1912.12	321.05
1912.37	355.877
1912.62	332.304
1912.87	325.702
1913.12	319.106
1913.37	333.233
1913.61	334.185
1913.86	353.075
1914.11	329.618
1914.36	346.688
1914.61	335.453
1914.86	326.091
1915.11	333.706
1915.36	324.336
1915.6	329.099
1915.85	319.681
1916.1	349.867
1916.35	316.812
1916.6	322.454
1916.85	336.556
1917.1	327.994
1917.34	328.877
1917.59	346.741
1917.84	334.447
1918.09	326.883
1918.34	334.432
1918.59	313.733
1918.83	321.346
1919.08	330.865
1919.33	327.189
1919.58	333.9
1919.83	329.317
1920.08	321.875
1920.33	333.273
1920.57	340.846
1920.82	312.46
1921.07	328.542
1921.32	322.009
1921.57	322.093
1921.81	347.67
1922.06	357.174
1922.31	327.886
1922.56	325.993
1922.81	340.151
1923.06	324.968
1923.31	343.827
1923.55	321.104
1923.8	333.364
1924.05	336.167
1924.3	331.392
1924.55	348.338
1924.79	332.232
1925.04	336.941
1925.29	333.174
1925.54	309.593
1925.79	346.516
1926.04	319.204
1926.28	329.694
1926.53	326.94
1926.78	343.114
1927.03	337.542
1927.28	318.677
1927.52	345.235
1927.77	325.396
1928.02	321.647
1928.27	313.158
1928.52	340.662
1928.76	379.528
1929.01	317.04
1929.26	332.242
1929.51	317.129
1929.76	347.534
1930	343.848
1930.25	328.758
1930.5	315.572
1930.75	330.833
1931	347.06
1931.24	326.197
1931.49	348.992
1931.74	332.823
1931.99	324.235
1932.24	327.986
1932.48	317.498
1932.73	325.043
1932.98	324.042
1933.23	335.41
1933.47	354.335
1933.72	335.382
1933.97	327.886
1934.22	343.235
1934.46	333.958
1934.71	330.451
1934.96	318.361
1935.21	330.978
1935.46	335.945
1935.7	330.388
1935.95	321.914
1936.2	323.604
1936.45	350.256
1936.69	333.077
1936.94	331.127
1937.19	313.908
1937.44	322.401
1937.68	328.998
1937.93	347.969
1938.18	331.721
1938.43	325.94
1938.68	336.404
1938.92	328.904
1939.17	339.415
1939.42	349.941
1939.67	338.569
1939.91	326.227
1940.16	320.563
1940.41	349.159
1940.66	325.416
1940.9	338.84
1941.15	337.156
1941.4	339.193
1941.64	305.79
1941.89	314.336
1942.14	318.991
1942.39	323.563
1942.63	318.912
1942.88	356.468
1943.13	350.822
1943.38	324.098
1943.62	325.873
1943.87	344.805
1944.12	353.268
1944.37	348.719
1944.61	321.111
1944.86	350.775
1945.11	345.124
1945.35	333.745
1945.6	327.138
1945.85	347.287
1946.1	320.597
1946.34	331.173
1946.59	329.309
1946.84	344.646
1947.09	334.145
1947.33	319.789
1947.58	334.105
1947.83	319.725
1948.07	332.146
1948.32	347.441
1948.57	341.699
1948.82	334.977
1949.06	344.553
1949.31	337.92
1949.56	346.596
1949.8	334.23
1950.05	343.884
1950.3	343.973
1950.54	332.624
1950.79	324.153
1951.04	348.229
1951.29	327.269
1951.53	353.303
1951.78	328.486
1952.03	345.864
1952.27	338.25
1952.52	346.942
1952.77	327.788
1953.01	319.13
1953.26	333.596
1953.51	327.914
1953.76	337.427
1954	320.973
1954.25	338.996
1954.49	334.008
1954.74	343.414
1954.99	339.423
1955.24	339.372
1955.48	335.526
1955.73	337.481
1955.98	312.655
1956.22	336.757
1956.47	336.995
1956.72	319.814
1956.96	327.597
1957.21	334.374
1957.46	348.858
1957.7	339.324
1957.95	330.74
1958.2	334.63
1958.44	336.585
1958.69	331.801
1958.94	327.011
1959.18	335.633
1959.43	339.41
1959.68	357.63
1959.92	322.064
1960.17	346.03
1960.42	347.894
1960.66	326.711
1960.91	308.409
1961.16	328.51
1961.4	337.088
1961.65	336.075
1961.9	322.604
1962.14	325.491
1962.39	340.864
1962.63	336.077
1962.88	330.331
1963.13	329.384
1963.37	334.195
1963.62	350.524
1963.87	327.496
1964.11	331.35
1964.36	327.549
1964.61	336.226
1964.85	342.94
1965.1	328.509
1965.35	328.513
1965.59	332.34
1965.84	349.629
1966.08	343.901
1966.33	334.361
1966.58	331.553
1966.82	321.055
1967.07	330.715
1967.32	361.514
1967.56	331.705
1967.81	312.482
1968.05	336.54
1968.3	353.856
1968.55	345.217
1968.79	345.209
1969.04	323.066
1969.29	325.89
1969.53	350.79
1969.78	339.15
1970.02	326.556
1970.27	341.83
1970.52	334.078
1970.76	336.907
1971.01	346.442
1971.25	334.875
1971.5	349.223
1971.75	328.085
1971.99	338.608
1972.24	352.06
1972.48	324.272
1972.73	343.475
1972.98	325.242
1973.22	340.56
1973.47	329.95
1973.71	337.546
1973.96	323.101
1974.21	328.807
1974.45	324.943
1974.7	355.6
1974.94	330.679
1975.19	328.772
1975.44	346.053
1975.68	311.581
1975.93	354.778
1976.17	332.766
1976.42	332.799
1976.66	318.431
1976.91	332.829
1977.16	328.992
1977.4	330.899
1977.65	334.711
1977.89	345.221
1978.14	336.535
1978.39	346.066
1978.63	330.678
1978.88	345.018
1979.12	334.451
1979.37	327.739
1979.61	326.789
1979.86	345.001
1980.1	340.221
1980.35	351.727
1980.6	325.812
1980.84	344.918
1981.09	338.151
1981.33	329.497
1981.58	335.195
1981.82	353.356
1982.07	334.174
1982.31	339.906
1982.56	335.102
1982.81	336.962
1983.05	330.202
1983.3	335.865
1983.54	320.453
1983.79	330.904
1984.03	343.306
1984.28	339.453
1984.52	344.2
1984.77	321.209
1985.02	335.524
1985.26	354.588
1985.51	324.861
1985.75	330.553
1986	330.552
1986.24	322.924
1986.49	329.659
1986.73	333.537
1986.98	325.913
1987.22	333.548
1987.47	336.44
1987.71	322.039
1987.96	336.28
1988.21	331.387
1988.45	331.26
1988.7	321.564
1988.94	339.363
1989.19	344.758
1989.43	333.194
1989.68	320.82
1989.92	311.444
1990.17	330.36
1990.41	324.017
1990.66	322.388
1990.9	345.93
1991.15	342.066
1991.39	326.133
1991.64	328.862
1991.88	344.402
1992.13	324.519
1992.37	325.467
1992.62	320.486
1992.86	347.922
1993.11	333.451
1993.35	323.18
1993.6	326.078
1993.84	351.82
1994.09	334.117
1994.33	329.055
1994.58	337.849
1994.82	335.634
1995.07	338.793
1995.31	336.311
1995.56	329.592
1995.8	324.567
1996.05	341.428
1996.29	341.14
1996.54	332.809
1996.78	341.548
1997.03	338.799
1997.27	328.029
1997.52	324.358
1997.76	330.615
1998.01	330.399
1998.25	344.238
1998.5	333.373
1998.74	322.183
1998.99	322.592
1999.23	333.735
1999.48	338.445
1999.72	325.785
1999.97	340.068
2000.21	323.99
2000.46	321.484
2000.7	324.408
2000.95	326.8
2001.19	319.302
2001.43	328.471
2001.68	338.771
2001.92	333.967
2002.17	336.417
2002.41	331.974
2002.66	325.616
2002.9	330.677
2003.15	335.887
2003.39	333.594
2003.64	329.947
2003.88	329.917
2004.13	336.495
2004.37	323.303
2004.61	319.986
2004.86	332.813
2005.1	336.621
2005.35	322.935
2005.59	337.157
2005.84	339.582
2006.08	337.716
2006.33	340.929
2006.57	328.356
2006.81	339.245
2007.06	329.063
2007.3	325.622
2007.55	325.093
2007.79	322.328
2008.04	317.008
2008.28	319.389
2008.53	329.241
2008.77	335.062
2009.01	325.763
2009.26	334.699
2009.5	334.36
2009.75	325.855
2009.99	329.267
2010.24	320.68
2010.48	334.79
2010.73	334.469
2010.97	332.817
2011.21	344.131
2011.46	311.657
2011.7	325.482
2011.95	343.483
2012.19	332.864
2012.43	331.037
2012.68	330.066
2012.92	328.156
2013.17	315.849
2013.42	311.973
2013.67	317.458
2013.91	318.305
2014.16	333.225
2014.41	335.895
2014.66	336.654
2014.9	337.433
2015.15	335.511
2015.4	323.324
2015.64	324.305
2015.89	328.115
2016.14	326.275
2016.39	325.299
2016.63	328.198
2016.88	334.078
2017.13	324.727
2017.37	334.104
2017.62	334.991
2017.87	323.637
2018.11	337.624
2018.36	319.654
2018.61	339.226
2018.86	331.595
2019.1	321.157
2019.35	310.716
2019.6	307.789
2019.84	330.212
2020.09	317.987
2020.34	332.01
2020.58	318.889
2020.83	327.301
2021.08	317.921
2021.33	340.416
2021.57	327.322
2021.82	327.323
2022.07	318.876
2022.31	316.035
2022.56	313.18
2022.81	316.863
2023.05	331.76
2023.3	314.821
2023.55	320.365
2023.8	320.293
2024.04	323.026
2024.29	328.563
2024.54	325.693
2024.78	322.781
2025.03	328.272
2025.27	334.697
2025.52	337.39
2025.77	316.758
2026.02	337.194
2026.26	322.152
2026.51	312.855
2026.76	326.966
2027	329.974
2027.25	334.898
2027.5	328.639
2027.74	326.007
2027.99	333.446
2028.23	327.622
2028.48	319.844
2028.73	321.762
2028.98	310.478
2029.22	320.995
2029.47	325.027
2029.72	351.552
2029.96	322.888
2030.21	339.341
2030.45	334.288
2030.7	310.951
2030.95	333.06
2031.19	326.774
2031.44	314.836
2031.69	313.854
2031.93	329.716
2032.18	313.862
2032.43	332.62
2032.67	346.734
2032.92	311.367
2033.17	330.156
2033.41	345.194
2033.66	320.96
2033.91	331.34
2034.15	321.099
2034.4	334.015
2034.64	341.26
2034.89	326.911
2035.14	327.757
2035.38	314.83
2035.63	330.809
2035.87	330.996
2036.12	320.019
2036.37	342.63
2036.61	314.555
2036.86	322.803
2037.11	324.68
2037.35	321.953
2037.6	328.494
2037.84	332.216
2038.09	306.004
2038.34	326.53
2038.58	340.502
2038.83	317.084
2039.08	331.047
2039.32	329.123
2039.57	322.526
2039.81	327.139
2040.06	304.656
2040.31	343.771
2040.55	335.276
2040.8	312.797
2041.04	327.643
2041.29	329.438
2041.54	306.07
2041.78	320.027
2042.03	328.396
2042.27	312.504
2042.52	332.968
2042.77	317.056
2043.01	306.78
2043.26	320.753
2043.5	310.53
2043.75	320.866
2044	322.859
2044.24	317.395
2044.49	330.504
2044.73	340.749
2044.98	344.396
2045.23	346.103
2045.47	316.917
2045.72	342.486
2045.96	315.537
2046.21	321.593
2046.45	323.991
2046.7	335.866
2046.95	333.671
2047.19	334.355
2047.44	320.367
2047.68	316.537
2047.93	322.808
2048.17	328.331
2048.42	336.733
2048.67	326.493
2048.91	335.837
2049.16	320.02
2049.4	307.977
2049.65	321.102
2049.89	334.258
2050.14	320.377
2050.39	318.596
2050.63	324.29
2050.88	313.13
2051.12	325.29
2051.37	316.861
2051.61	325.2
2051.86	307.362
2052.11	316.695
2052.35	312.032
2052.6	320.484
2052.84	332.638
2053.09	325.204
2053.33	327.125
2053.58	343.074
2053.82	322.599
2054.07	334.909
2054.31	330.295
2054.56	342.499
2054.8	320.994
2055.05	313.502
2055.3	351.835
2055.54	331.232
2055.79	341.437
2056.03	331.112
2056.28	323.615
2056.52	318.908
2056.77	333.829
2057.01	313.242
2057.26	316.977
2057.5	328.209
2057.75	332.908
2058	303.03
2058.24	330.193
2058.49	319.02
2058.73	332.195
2058.98	311.684
2059.22	326.723
2059.47	338.942
2059.71	328.665
2059.96	330.555
2060.2	336.178
2060.45	326.774
2060.69	316.427
2060.94	316.392
2061.18	342.636
2061.43	316.474
2061.67	329.613
2061.92	325.881
2062.16	332.441
2062.41	331.516
2062.65	326.857
2062.9	321.272
2063.14	335.367
2063.39	340.111
2063.63	340.167
2063.88	334.59
2064.12	322.442
2064.37	328.093
2064.61	334.68
2064.86	339.406
2065.1	329.142
2065.35	344.224
2065.59	342.453
2065.84	325.656
2066.08	333.244
2066.33	337.065
2066.57	328.66
2066.82	327.735
2067.06	326.83
2067.31	307.142
2067.55	313.744
2067.8	321.3
2068.04	324.172
2068.29	336.433
2068.53	309.212
2068.78	323.329
2069.02	345.939
2069.27	328.081
2069.51	321.452
2069.76	328.876
2070	332.488
2070.25	331.491
2070.49	331.522
2070.73	326.962
2070.98	326.188
2071.22	321.654
2071.47	339.5
2071.71	336.576
2071.96	326.609
2072.2	330.509
2072.45	335.193
2072.69	337.05
2072.94	321.031
2073.18	323.827
2073.43	338.89
2073.67	331.338
2073.92	320.995
2074.16	326.655
2074.4	321.023
2074.65	332.359
2074.89	328.654
2075.14	336.278
2075.38	335.452
2075.63	336.545
2075.87	332.006
2076.12	334.957
2076.36	334.075
2076.6	313.314
2076.85	333.152
2077.09	342.554
2077.34	319.832
2077.58	332.024
2077.83	329.039
2078.07	327.114
2078.31	330.925
2078.56	324.393
2078.8	353.667
2079.05	337.658
2079.29	327.326
2079.54	334.955
2079.78	320.003
2080.03	343.681
2080.27	334.293
2080.51	331.512
2080.76	324.939
2081	320.218
2081.25	324.908
2081.49	319.215
2081.74	326.763
2081.98	314.476
2082.22	337.138
2082.47	330.549
2082.71	321.124
2082.96	365.556
2083.2	314.532
2083.45	321.141
2083.69	342.86
2083.93	323.002
2084.18	327.726
2084.42	340.959
2084.67	326.78
2084.91	325.839
2085.15	321.123
2085.4	323.015
2085.64	323.958
2085.89	333.409
2086.13	328.706
2086.37	325.009
2086.62	345.917
2086.86	328.971
2087.11	314.813
2087.35	332.827
2087.59	351.807
2087.84	326.289
2088.08	342.379
2088.32	349.955
2088.57	328.196
2088.81	317.798
2089.06	343.371
2089.3	332.028
2089.54	327.345
2089.79	340.657
2090.03	331.276
2090.28	336.042
2090.52	325.639
2090.76	321.872
2091.01	335.166
2091.25	320.988
2091.5	330.5
2091.74	330.535
2091.98	334.412
2092.23	321.233
2092.47	330.822
2092.72	337.571
2092.96	318.703
2093.2	341.578
2093.45	349.262
2093.69	332.25
2093.93	340.884
2094.18	342.855
2094.42	334.363
2094.66	313.465
2094.91	330.577
2095.15	323.905
2095.39	323.881
2095.64	334.28
2095.88	330.416
2096.13	317.065
2096.37	339.829
2096.61	323.652
2096.86	326.489
2097.1	322.675
2097.34	333.078
2097.59	332.06
2097.83	342.436
2098.07	340.507
2098.32	319.603
2098.56	326.231
2098.8	337.572
2099.05	322.385
2099.29	312.885
2099.53	328.999
2099.78	350.81
2100.02	332.772
2100.27	352.703
2100.51	339.426
2100.75	318.564
2101	331.883
2101.24	322.47
2101.48	323.482
2101.73	331.12
2101.97	322.591
2102.21	344.436
2102.45	341.577
2102.7	313.084
2102.94	330.16
2103.18	330.105
2103.43	335.732
2103.67	322.402
2103.92	331.885
2104.16	326.169
2104.4	327.124
2104.64	331.897
2104.89	335.746
2105.13	331.047
2105.37	327.294
2105.62	341.6
2105.86	326.474
2106.1	319.883
2106.35	318.017
2106.59	319.949
2106.83	333.274
2107.08	314.274
2107.32	306.696
2107.56	328.573
2107.8	319.029
2108.05	330.372
2108.29	336.937
2108.53	324.492
2108.78	339.598
2109.02	322.433
2109.26	326.203
2109.51	321.468
2109.75	320.6
2109.99	331.114
2110.23	316.867
2110.48	344.417
2110.72	335.865
2110.96	329.213
2111.21	333.962
2111.45	314.008
2111.69	327.284
2111.93	325.338
2112.18	321.505
2112.42	335.729
2112.66	337.625
2112.91	331.959
2113.15	326.293
2113.39	307.332
2113.63	353.016
2113.88	335.981
2114.12	309.399
2114.36	335.992
2114.61	318.854
2114.85	328.349
2115.09	327.413
2115.33	337.874
2115.58	336.904
2115.82	332.122
2116.06	314.041
2116.31	340.617
2116.55	338.646
2116.79	320.534
2117.03	327.151
2117.28	339.478
2117.52	336.613
2117.76	333.777
2118	335.641
2118.25	329.89
2118.49	345.021
2118.73	306.02
2118.97	340.081
2119.22	331.465
2119.46	317.169
2119.7	329.426
2119.94	349.262
2120.19	354.882
2120.43	340.615
2120.67	332.068
2120.91	332.077
2121.16	317.915
2121.4	334.056
2121.64	333.182
2121.88	338.005
2122.13	328.594
2122.37	313.483
2122.61	330.62
2122.85	332.568
2123.1	328.815
2123.34	324.106
2123.58	326.98
2123.82	316.548
2124.07	322.217
2124.31	352.555
2124.55	324.021
2124.79	327.731
2125.03	320.96
2125.28	321.752
2125.52	327.293
2125.76	354.648
2126	325.182
2126.25	345.911
2126.49	322.159
2126.73	317.358
2126.97	327.695
2127.21	316.273
2127.46	307.695
2127.7	319.958
2127.94	313.321
2128.18	324.646
2128.43	319.883
2128.67	326.478
2128.91	342.547
2129.15	355.781
2129.39	321.737
2129.64	334.942
2129.88	331.137
2130.12	342.461
2130.36	340.553
2130.6	332.026
2130.85	322.551
2131.09	329.131
2131.33	312.085
2131.57	323.371
2131.81	356.373
2132.06	325.16
2132.3	344.954
2132.54	331.696
2132.78	327.854
2133.02	331.566
2133.27	314.547
2133.51	340.962
2133.75	336.257
2133.99	324.001
2134.23	327.777
2134.48	317.41
2134.72	345.731
2134.96	325.902
2135.2	331.553
2135.44	306.062
2135.68	323.031
2135.93	333.376
2136.17	324.826
2136.41	323.782
2136.65	337.825
2136.89	350.028
2137.14	321.76
2137.38	314.23
2137.62	327.434
2137.86	321.811
2138.1	327.538
2138.34	339.771
2138.59	321.759
2138.83	336.77
2139.07	316.09
2139.31	328.451
2139.55	338.903
2139.79	332.132
2140.03	326.349
2140.28	313.099
2140.52	332.834
2140.76	315.833
2141	338.404
2141.24	336.491
2141.49	323.278
2141.73	334.583
2141.97	316.623
2142.21	325.022
2142.45	331.581
2142.69	338.169
2142.93	316.579
2143.18	342.994
2143.42	331.966
2143.66	325.237
2143.9	345.089
2144.14	330.051
2144.38	331.992
2144.62	333.048
2144.87	335.983
2145.11	316.294
2145.35	331.152
2145.59	333.999
2145.83	342.476
2146.07	333.052
2146.31	342.424
2146.55	309.491
2146.8	358.344
2147.04	326.356
2147.28	333.84
2147.52	335.67
2147.76	344.08
2148	328.064
2148.24	341.179
2148.48	318.596
2148.73	319.496
2148.97	326.964
2149.21	329.729
2149.45	335.291
2149.69	335.209
2149.93	337.881
2150.17	315.292
2150.42	319.892
2150.66	322.637
2150.9	318.853
2151.14	332.905
2151.38	335.744
2151.62	314.236
2151.86	322.705
2152.1	332.132
2152.34	316.21
2152.58	328.448
2152.83	317.142
2153.07	335.85
2153.31	324.536
2153.55	326.354
2153.79	325.388
2154.03	334.728
2154.27	328.11
2154.51	349.575
2154.75	329.786
2154.99	323.091
2155.24	314.538
2155.48	334.97
2155.72	317.096
2155.96	327.281
2156.2	304.768
2156.44	318.722
2156.68	335.502
2156.92	335.485
2157.16	313.99
2157.4	321.463
2157.64	324.288
2157.89	322.463
2158.13	341.212
2158.37	335.658
2158.61	331.932
2158.85	328.189
2159.09	322.564
2159.33	347.769
2159.57	327.164
2159.81	328.978
2160.05	311.16
2160.29	321.355
2160.53	323.139
2160.77	332.4
2161.01	332.333
2161.25	325.762
2161.5	328.542
2161.74	322.911
2161.98	310.75
2162.22	334.06
2162.46	328.46
2162.7	305.136
2162.94	321.922
2163.18	320.958
2163.42	345.164
2163.66	333
2163.9	324.572
2164.14	341.318
2164.38	325.426
2164.62	318.829
2164.86	320.607
2165.11	330.802
2165.35	321.496
2165.59	330.845
2165.83	325.257
2166.07	345.761
2166.31	339.24
2166.55	328.017
2166.79	323.321
2167.03	337.244
2167.27	313.891
2167.51	306.393
2167.75	318.422
2167.99	344.384
2168.23	330.26
2168.47	329.181
2168.71	328.197
2168.95	318.891
2169.19	330.065
2169.43	334.757
2169.67	330.174
2169.91	321.893
2170.15	328.518
2170.39	334.231
2170.63	327.786
2170.87	311.05
2171.11	324.996
2171.35	314.688
2171.59	319.313
2171.83	329.418
2172.07	330.114
2172.31	317.905
2172.56	318.772
2172.79	345.662
2173.04	316.811
2173.28	323.304
2173.51	314.006
2173.76	319.575
2174	321.454
2174.24	343.797
2174.48	324.311
2174.72	327.113
2174.96	309.457
2175.2	318.747
2175.44	321.527
2175.68	345.667
2175.92	324.27
2176.16	323.328
2176.4	312.159
2176.64	328.855
2176.88	326.015
2177.12	330.637
2177.36	311.129
2177.6	324.141
2177.84	321.358
2178.08	320.421
2178.32	317.644
2178.55	323.186
2178.8	319.382
2179.03	317.459
2179.28	325.805
2179.52	331.389
2179.75	317.465
2180	339.751
2180.23	332.32
2180.47	319.317
2180.71	334.162
2180.95	321.141
2181.19	331.331
2181.43	320.18
2181.67	335.939
2181.91	319.19
2182.15	328.432
2182.39	333.981
2182.63	327.441
2182.87	343.18
2183.11	313.46
2183.35	311.542
2183.59	317.96
2183.83	323.428
2184.07	340.041
2184.31	337.205
2184.55	319.549
2184.79	336.211
2185.03	326.955
2185.27	336.252
2185.51	335.349
2185.75	336.301
2185.99	323.364
2186.23	324.345
2186.47	326.257
2186.7	331.878
2186.95	326.406
2187.18	320.935
2187.42	316.388
2187.66	318.336
2187.9	310.046
2188.14	318.421
2188.38	312.813
2188.62	337.828
2188.86	331.262
2189.1	321.907
2189.34	325.54
2189.58	331.015
2189.82	335.541
2190.06	320.612
2190.3	324.276
2190.54	327.042
2190.78	320.559
2191.01	340.054
2191.25	351.207
2191.49	324.318
2191.73	325.263
2191.97	324.362
2192.21	325.317
2192.45	335.547
2192.69	330.936
2192.93	337.458
2193.17	344.009
2193.41	300.453
2193.65	341.339
2193.89	308.923
2194.13	320.2
2194.36	335.222
2194.6	313.022
2194.84	314.936
2195.08	299.114
2195.32	324.175
2195.56	319.493
2195.8	332.452
2196.04	328.662
2196.28	333.211
2196.52	334.022
2196.76	316.277
2197	333.829
2197.23	319.846
2197.47	325.357
2197.71	342.002
2197.95	329.018
2198.19	322.534
2198.43	325.35
2198.67	321.716
2198.91	344.072
2199.15	326.534
2199.38	324.789
2199.62	324.883
2199.86	312.909
2200.1	322.309
2200.34	351.297
2200.58	314.261
2200.82	333.028
2201.06	323.849
2201.3	333.262
2201.54	325.888
2201.77	333.204
2202.01	318.901
2202.25	317.292
2202.49	340.944
2202.73	328.171
2202.97	332.46
2203.21	345.745
2203.45	319.606
2203.68	335.344
2203.92	331.914
2204.16	322.718
2204.4	355.888
2204.64	365.183
2204.88	332.604
2205.12	345.422
2205.36	331.145
2205.59	327.159
2205.83	350.221
2206.07	325.994
2206.31	345.525
2206.55	316.775
2206.79	331.665
2207.03	332.47
2207.26	321.333
2207.5	332.538
2207.74	327.949
2207.98	318.715
2208.22	334.6
2208.46	326.296
2208.7	342.186
2208.93	326.42
2209.17	341.365
2209.41	342.331
2209.65	349.803
2209.89	343.285
2210.13	351.656
2210.36	344.217
2210.6	356.37
2210.84	328.473
2211.08	343.433
2211.32	343.489
2211.56	340.744
2211.8	329.615
2212.03	339.943
2212.27	336.285
2212.51	329.806
2212.75	337.293
2212.99	318.613
2213.23	329.772
2213.46	339.999
2213.7	330.619
2213.94	336.153
2214.18	327.78
2214.42	331.575
2214.66	313.986
2214.89	318.774
2215.13	322.541
2215.37	333.771
2215.61	331.925
2215.85	331.94
2216.08	316.076
2216.32	316.076
2216.56	323.541
2216.8	328.199
2217.04	324.449
2217.28	346.841
2217.51	326.301
2217.75	327.247
2217.99	316.991
2218.23	344.999
2218.47	321.653
2218.7	326.335
2218.94	313.294
2219.18	317.073
2219.42	330.207
2219.66	318.122
2219.9	330.305
2220.13	314.459
2220.37	319.163
2220.61	327.566
2220.85	318.205
2221.09	327.539
2221.32	322.832
2221.56	329.295
2221.8	329.205
2222.04	315.125
2222.27	317.865
2222.51	327.159
2222.75	312.213
2222.99	318.77
2223.23	346.826
2223.46	334.738
2223.7	331.059
2223.94	323.664
2224.18	323.758
2224.42	324.793
2224.65	318.341
2224.89	309.067
2225.13	329.716
2225.37	310.137
2225.6	313.021
2225.84	327.155
2226.08	320.672
2226.32	326.36
2226.56	332.989
2226.79	331.166
2227.03	311.555
2227.27	324.739
2227.51	332.292
2227.74	327.643
2227.98	322.976
2228.22	326.719
2228.46	336.07
2228.69	313.542
2228.93	314.458
2229.17	351.004
2229.41	336.922
2229.64	332.234
2229.88	315.412
2230.12	311.743
2230.36	329.643
2230.6	325.949
2230.83	327.889
2231.07	338.281
2231.31	329.903
2231.55	314.015
2231.78	320.667
2232.02	325.427
2232.26	326.432
2232.5	318.977
2232.73	329.381
2232.97	329.442
2233.21	340.79
2233.45	335.208
2233.68	333.387
2233.92	313.689
2234.16	322.204
2234.39	318.475
2234.63	317.515
2234.87	326.901
2235.11	324.979
2235.34	319.275
2235.58	330.448
2235.82	324.72
2236.06	324.727
2236.29	321.919
2236.53	336.984
2236.77	322.896
2237	325.73
2237.24	329.51
2237.48	323.943
2237.72	319.306
2237.95	328.843
2238.19	312.028
2238.43	319.685
2238.67	311.291
2238.9	314.202
2239.14	319.955
2239.38	342.713
2239.61	322.924
2239.85	315.349
2240.09	327.568
2240.33	324.646
2240.56	333.995
2240.8	321.701
2241.04	318.066
2241.27	329.508
2241.51	325.755
2241.75	321.059
2241.99	319.196
2242.22	341.866
2242.46	316.413
2242.7	326.831
2242.93	322.151
2243.17	327.822
2243.41	326.865
2243.64	306.055
2243.88	329.603
2244.12	325.803
2244.36	317.3
2244.59	322.029
2244.83	321.134
2245.07	342.944
2245.3	316.637
2245.54	318.643
2245.78	327.224
2246.01	323.507
2246.25	330.194
2246.49	334.991
2246.72	351.128
2246.96	332.243
2247.2	319.048
2247.43	328.559
2247.67	329.539
2247.91	331.447
2248.14	326.71
2248.38	353.193
2248.62	326.673
2248.85	311.511
2249.09	322.849
2249.33	320.938
2249.56	334.171
2249.8	323.819
2250.04	330.484
2250.27	324.802
2250.51	315.297
2250.75	338.89
2250.98	309.494
2251.22	327.389
2251.46	353.806
2251.69	317.827
2251.93	324.427
2252.17	310.257
2252.4	336.767
2252.64	323.579
2252.88	319.861
2253.11	313.34
2253.35	322.977
2253.59	346.78
2253.82	325.093
2254.06	331.803
2254.3	328.074
2254.53	324.345
2254.77	329.13
2255.01	326.292
2255.24	332.896
2255.48	323.431
2255.72	328.174
2255.95	329.134
2256.19	322.511
2256.42	317.824
2256.66	324.524
2256.9	324.581
2257.13	345.511
2257.37	331.332
2257.61	341.829
2257.84	322.894
2258.08	336.223
2258.32	314.401
2258.55	312.515
2258.79	308.737
2259.02	326.813
2259.26	329.71
2259.5	311.708
2259.73	344.995
2259.97	330.77
2260.2	328.907
2260.44	316.586
2260.68	332.777
2260.91	335.661
2261.15	316.696
2261.39	337.723
2261.62	332.087
2261.86	326.394
2262.1	320.705
2262.33	342.619
2262.57	327.421
2262.8	321.757
2263.04	316.113
2263.28	334.277
2263.51	334.366
2263.75	329.705
2263.98	320.289
2264.22	314.695
2264.46	331.032
2264.69	324.468
2264.93	337.926
2265.16	326.551
2265.4	316.114
2265.64	321.901
2265.87	322.867
2266.11	323.836
2266.34	323.81
2266.58	331.379
2266.81	320.798
2267.05	343.627
2267.29	327.327
2267.52	338.723
2267.76	317.683
2267.99	333.849
2268.23	334.728
2268.47	323.229
2268.7	326.069
2268.94	331.801
2269.17	327.079
2269.41	346.226
2269.65	330.098
2269.88	322.558
2270.12	331.247
2270.35	315.127
2270.59	344.843
2270.82	319.11
2271.06	310.55
2271.3	338.339
2271.53	321.19
2271.77	322.188
2272	334.666
2272.24	330.904
2272.47	343.375
2272.71	336.686
2272.95	325.221
2273.18	317.584
2273.42	331.956
2273.65	325.275
2273.89	320.508
2274.12	335.838
2274.36	355.954
2274.6	315.772
2274.83	324.403
2275.07	325.378
2275.3	311.042
2275.54	324.463
2275.77	350.335
2276.01	346.494
2276.24	339.843
2276.48	326.516
2276.72	324.681
2276.95	314.212
2277.18	324.819
2277.42	343.108
2277.66	361.444
2277.89	320.326
2278.13	340.608
2278.36	342.675
2278.6	350.41
2278.83	326.426
2279.07	341.797
2279.3	336.982
2279.54	329.277
2279.78	319.616
2280.01	311.793
2280.24	319.377
2280.48	320.249
2280.72	321.133
2280.95	329.7
2281.19	332.528
2281.42	331.536
2281.66	329.577
2281.89	314.21
2282.13	332.457
2282.36	318.102
2282.6	336.365
2282.83	338.35
2283.07	323.083
2283.3	328.914
2283.54	324.21
2283.77	332.02
2284.01	337.939
2284.24	335.2
2284.48	316.13
2284.71	337.373
2284.95	358.573
2285.19	332.682
2285.42	324.097
2285.65	336.632
2285.89	316.432
2286.12	348.116
2286.36	327.785
2286.59	312.386
2286.83	333.571
2287.06	342.284
2287.3	326.083
2287.54	307.916
2287.77	331.076
2288	341.707
2288.24	316.752
2288.47	335.033
2288.71	339.798
2288.94	328.19
2289.18	317.538
2289.41	333.806
2289.65	327.906
2289.88	328.755
2290.12	325.733
2290.35	341.069
2290.59	332.382
2290.82	339.113
2291.06	324.699
2291.29	337.247
2291.53	328.681
2291.76	319.17
2292	333.678
2292.23	337.587
2292.47	347.273
2292.7	311.714
2292.94	332.977
2293.17	349.428
2293.41	334.074
2293.64	319.669
2293.88	334.162
2294.11	334.182
2294.34	325.482
2294.58	327.37
2294.81	341.772
2295.05	321.477
2295.28	327.21
2295.52	331.016
2295.75	328.08
2295.99	330.922
2296.22	323.181
2296.46	333.692
2296.69	344.137
2296.93	337.383
2297.16	323.942
2297.39	321.101
2297.63	315.386
2297.86	334.712
2298.1	323.251
2298.33	323.362
2298.57	331.142
2298.8	334.081
2299.04	333.184
2299.27	330.378
2299.51	335.271
2299.74	329.544
2299.97	326.683
2300.21	344.041
2300.44	328.609
2300.68	346.928
2300.91	325.745
2301.15	343.17
2301.38	324.878
2301.61	349.044
2301.85	350.034
2302.08	339.424
2302.32	331.691
2302.55	312.357
2302.79	344.184
2303.02	333.576
2303.25	322.952
2303.49	308.457
2303.72	303.627
2303.96	324.864
2304.19	322.966
2304.43	328.813
2304.66	322.107
2304.89	348.216
2305.13	333.78
2305.36	345.435
2305.6	325.187
2305.83	313.609
2306.07	311.703
2306.3	326.238
2306.53	329.178
2306.77	337.892
2307	331.132
2307.24	321.462
2307.47	325.318
2307.7	333.985
2307.94	327.178
2308.17	326.187
2308.41	335.818
2308.64	325.163
2308.87	328.06
2309.11	324.21
2309.34	331.024
2309.58	308.851
2309.81	334.064
2310.04	323.532
2310.28	319.733
2310.51	332.34
2310.75	334.284
2310.98	321.698
2311.21	312.958
2311.45	332.226
2311.68	329.135
2311.92	326.023
2312.15	332.665
2312.38	332.581
2312.62	327.705
2312.85	330.541
2313.08	322.778
2313.32	322.773
2313.55	327.636
2313.79	313.257
2314.02	332.693
2314.25	317.336
2314.49	337.722
2314.72	334.926
2314.95	333.119
2315.19	341.938
2315.42	325.55
2315.66	341.905
2315.89	341.819
2316.12	333.048
2316.36	322.326
2316.59	351.128
2316.82	334.609
2317.06	316.215
2317.29	322.001
2317.52	327.811
2317.76	326.864
2317.99	312.462
2318.23	333.773
2318.46	324.966
2318.69	329.739
2318.93	343.212
2319.16	325.78
2319.39	330.551
2319.63	316.025
2319.86	330.464
2320.09	319.825
2320.33	341.054
2320.56	326.589
2320.79	332.376
2321.03	334.338
2321.26	345.97
2321.5	338.305
2321.73	326.782
2321.96	328.785
2322.2	344.335
2322.43	337.679
2322.66	334.867
2322.9	335.868
2323.13	321.352
2323.36	332.967
2323.6	334.925
2323.83	345.58
2324.06	338.835
2324.3	322.407
2324.53	327.227
2324.76	324.31
2325	318.43
2325.23	343.456
2325.46	323.044
2325.7	331.66
2325.93	350.906
2326.16	362.421
2326.4	330.492
2326.63	339.105
2326.86	342.889
2327.09	361.141
2327.33	362.99
2327.56	372.549
2327.79	368.636
2328.03	376.284
2328.26	404.191
2328.49	416.74
2328.73	422.526
2328.96	428.319
2329.19	379.084
2329.43	400.206
2329.66	341.339
2329.89	355.753
2330.13	359.589
2330.36	343.261
2330.59	334.567
2330.82	328.759
2331.06	307.541
2331.29	341.234
2331.52	341.257
2331.76	320.116
2331.99	324.022
2332.22	318.319
2332.46	326.9
2332.69	330.686
2332.92	328.711
2333.16	329.627
2333.39	323.805
2333.62	326.651
2333.85	321.801
2334.09	320.807
2334.32	322.686
2334.55	324.555
2334.79	339.859
2335.02	327.304
2335.25	332.077
2335.48	333.026
2335.72	325.314
2335.95	331.095
2336.18	308.036
2336.41	325.336
2336.65	332.993
2336.88	312.778
2337.11	336.801
2337.34	329.095
2337.58	330.039
2337.81	336.754
2338.04	313.653
2338.28	317.475
2338.51	313.615
2338.74	325.132
2338.97	332.811
2339.21	317.443
2339.44	315.528
2339.67	319.371
2339.91	335.7
2340.14	327.982
2340.37	330.824
2340.6	326.923
2340.84	332.63
2341.07	324.87
2341.3	328.618
2341.53	333.311
2341.77	331.263
2342	326.369
2342.23	333.022
2342.46	334.883
2342.7	328.119
2342.93	322.329
2343.16	323.267
2343.39	325.177
2343.63	345.31
2343.86	334.749
2344.09	337.609
2344.32	328.986
2344.56	328.05
2344.79	332.854
2345.02	329.009
2345.25	319.4
2345.49	340.452
2345.72	341.354
2345.95	347.011
2346.18	318.209
2346.41	316.232
2346.65	327.7
2346.88	334.383
2347.11	311.384
2347.34	323.803
2347.58	331.435
2347.81	328.555
2348.04	328.562
2348.27	321.879
2348.5	299.893
2348.74	324.816
2348.97	314.279
2349.2	325.739
2349.43	331.428
2349.67	335.114
2349.9	327.315
2350.13	323.324
2350.36	320.262
2350.59	313.341
2350.83	333.91
2351.06	333.195
2351.29	325.149
2351.52	340.618
2351.75	324.696
2351.99	335.491
2352.22	319.843
2352.45	335.142
2352.68	324.683
2352.91	337.838
2353.15	333.714
2353.38	319.189
2353.61	324.987
2353.84	328.767
2354.07	323.941
2354.31	320.134
2354.54	312.501
2354.77	330.68
2355	330.758
2355.23	326.935
2355.47	324.055
2355.7	315.45
2355.93	311.608
2356.16	318.238
2356.39	317.229
2356.63	322.838
2356.86	338.86
2357.09	340.632
2357.32	317.735
2357.55	316.728
2357.79	323.33
2358.02	330.886
2358.25	304.224
2358.48	327
2358.71	314.619
2358.94	300.297
2359.18	312.616
2359.41	311.642
2359.64	321.122
2359.87	324.881
2360.1	321.975
2360.33	325.701
2360.57	318.03
2360.8	322.7
2361.03	310.29
2361.26	332.98
2361.49	327.207
2361.72	307.214
2361.96	327.988
2362.19	314.634
2362.42	318.333
2362.65	296.464
2362.88	326.695
2363.11	328.52
2363.34	311.422
2363.58	315.158
2363.81	319.851
2364.04	323.598
2364.27	333.965
2364.5	335.807
2364.73	320.623
2364.97	332.866
