#Acq. time (s)=	40
#Accumulations=	2
#Range (cm-¹)=	1200...2365
#Windows=	3
#Auto scanning=	Off
#Autofocus=	Off
#Macrospot=	Off
#AutoExposure=	Off
#Spike filter=	Multiple accum.
#Delay time (s)=	2
#Binning=	1
#Readout mode=	Signal
#DeNoise=	Off
#ICS correction=	On
#Dark correction=	Off
#Inst. Process=	Off
#Detector Gain=	Best Dynamic
#Detector ADC=	50 kHz EM
#Detector EM gain=	400
#Detector temperature (°C)=	-60.09
#Instrument=	LabRAM HR Evol
#Detector=	SIN-EM FIVIS
#Objective=	x100_VIS_LWD
#Grating=	1800 (450-850nm)
#ND Filter=	100%
#Laser=	532nm_Edge
#Hole=	30.0125
#Temperature=	0
#Range=	Visible
#StageXY=	75x50mm Scan+
#StageZ=	Z motor
#X (µm)=	0
#Y (µm)=	0
#Z (µm)=	14.5
#Full time(mm:ss)=	4:22
#Project=	21_11_26
#Sample=	BU32
#Site=	
#Title=	BU32-A-incC-FI04-V_1800 (450-850nm)_532nm_Edge_100%_x100_VIS_LWD_H30um_40sX2
#Remark=	
#Date=	26.11.2021 18:22
#Acquired=	26.11.2021 18:22:23
1202.72	460.279
1203	520.177
1203.28	512.807
1203.56	497.425
1203.84	495.967
1204.11	489.275
1204.39	454.684
1204.67	504.153
1204.95	513.886
1205.23	480.463
1205.5	455.564
1205.78	509.078
1206.06	484.147
1206.34	507.519
1206.61	501.917
1206.89	478.094
1207.17	517.513
1207.45	509.812
1207.73	461.493
1208	471.015
1208.28	511.612
1208.56	474.049
1208.84	512.42
1209.11	502.652
1209.39	517.49
1209.67	505.664
1209.95	466.084
1210.23	493.835
1210.5	501.214
1210.78	455.063
1211.06	471.967
1211.34	448.326
1211.61	471.632
1211.89	503.496
1212.17	504.359
1212.45	503.097
1212.72	473.117
1213	492.155
1213.28	519.699
1213.56	464.217
1213.83	484.387
1214.11	501.316
1214.39	457.688
1214.67	510.935
1214.94	482.194
1215.22	441.731
1215.5	476.844
1215.78	500.238
1216.05	462.938
1216.33	447.918
1216.61	463.714
1216.89	490.096
1217.16	507.969
1217.44	463.181
1217.72	487.479
1218	476.716
1218.27	465.985
1218.55	447.833
1218.83	502.925
1219.1	509.23
1219.38	481.604
1219.66	460.336
1219.94	497.407
1220.21	506.863
1220.49	485.632
1220.77	472.903
1221.04	481.36
1221.32	478.127
1221.6	458.954
1221.88	484.313
1222.15	494.768
1222.43	471.266
1222.71	487.991
1222.98	480.336
1223.26	473.758
1223.54	467.196
1223.81	520.904
1224.09	510.154
1224.37	499.41
1224.65	524.628
1224.92	473.849
1225.2	488.562
1225.48	481.156
1225.76	476.99
1226.03	480.206
1226.31	468.651
1226.59	511.913
1226.86	483.367
1227.14	489.607
1227.42	521.184
1227.69	478.717
1227.97	461.393
1228.25	471.644
1228.52	498.742
1228.8	518.247
1229.08	498.934
1229.35	511.501
1229.63	505.39
1229.91	500.129
1230.18	480.673
1230.46	486.538
1230.74	500.054
1231.01	433.747
1231.29	482.967
1231.57	494.624
1231.84	496.813
1232.12	487.344
1232.4	490.477
1232.67	501.974
1232.95	460.984
1233.23	497.726
1233.5	475.615
1233.78	452.491
1234.06	484.029
1234.33	475.665
1234.61	463.102
1234.89	461.066
1235.16	509.488
1235.44	484.299
1235.71	487.495
1235.99	471.783
1236.27	473.922
1236.54	472.861
1236.82	457.03
1237.1	449.598
1237.37	485.228
1237.65	474.556
1237.93	448.13
1238.2	435.371
1238.48	477.187
1238.76	470.719
1239.03	452.758
1239.31	487.279
1239.58	476.726
1239.86	504.978
1240.14	468.255
1240.41	485.008
1240.69	468.233
1240.97	459.857
1241.24	434.721
1241.52	454.652
1241.79	448.32
1242.07	465.005
1242.35	469.141
1242.62	474.387
1242.9	469.174
1243.18	456.66
1243.45	475.588
1243.73	435.745
1244	446.229
1244.28	437.87
1244.56	469.312
1244.83	439.928
1245.11	482.857
1245.39	467.031
1245.66	475.293
1245.94	465.7
1246.21	446.697
1246.49	435.117
1246.76	490.557
1247.04	474.856
1247.32	456.004
1247.59	497.828
1247.87	462.231
1248.14	456.946
1248.42	505.941
1248.7	470.28
1248.97	483.851
1249.25	450.409
1249.52	455.67
1249.8	472.372
1250.08	457.712
1250.35	482.816
1250.63	499.444
1250.9	460.632
1251.18	454.256
1251.45	481.333
1251.73	477.068
1252.01	454.002
1252.28	469.583
1252.56	455.919
1252.83	462.096
1253.11	483.916
1253.39	426.423
1253.66	454.553
1253.94	450.379
1254.21	489.065
1254.49	442.181
1254.76	495.523
1255.04	472.591
1255.31	466.324
1255.59	469.491
1255.87	461.135
1256.14	464.243
1256.42	480.97
1256.69	456.986
1256.97	484.207
1257.24	443.491
1257.52	466.445
1257.79	464.287
1258.07	440.226
1258.35	478.824
1258.62	491.311
1258.9	469.33
1259.17	461.911
1259.45	473.378
1259.72	466.124
1260	450.531
1260.27	453.848
1260.55	470.435
1260.82	461.968
1261.1	484.756
1261.37	450.209
1261.65	443.875
1261.92	489.837
1262.2	457.902
1262.48	449.089
1262.75	457.739
1263.02	487.278
1263.3	429.313
1263.58	472.909
1263.85	450.407
1264.13	484.175
1264.4	452.217
1264.68	467.087
1264.95	466.791
1265.23	437.41
1265.5	475.033
1265.78	469.764
1266.05	478.036
1266.33	472.806
1266.6	531.355
1266.88	458.269
1267.15	452.081
1267.43	469.957
1267.7	464.852
1267.98	492.184
1268.25	474.554
1268.53	471.622
1268.8	479.122
1269.08	458.265
1269.35	460.432
1269.63	433.245
1269.9	431.122
1270.18	495.97
1270.45	479.062
1270.73	484.192
1271	503.961
1271.28	473.523
1271.55	490.232
1271.83	458.775
1272.1	478.689
1272.38	494.498
1272.65	451.711
1272.93	466.545
1273.2	488.664
1273.47	491.934
1273.75	477.39
1274.03	471.223
1274.3	428.348
1274.57	468.275
1274.85	487.176
1275.12	474.567
1275.4	475.616
1275.67	480.912
1275.95	439.021
1276.22	436.997
1276.5	424.505
1276.77	451.876
1277.05	477.162
1277.32	468.826
1277.6	455.284
1277.87	460.646
1278.14	461.806
1278.42	457.691
1278.69	470.391
1278.97	483.144
1279.24	460.08
1279.52	478.038
1279.79	472.75
1280.07	464.295
1280.34	463.186
1280.61	434.771
1280.89	476.874
1281.16	460.088
1281.44	480.192
1281.71	472.973
1281.99	463.562
1282.26	477.234
1282.53	448.854
1282.81	472.066
1283.08	490.933
1283.36	489.638
1283.63	491.31
1283.91	474.315
1284.18	419.66
1284.45	484.014
1284.73	424.963
1285	510.389
1285.28	455.585
1285.55	435.351
1285.83	418.354
1286.1	442.577
1286.37	423.716
1286.65	459.515
1286.92	467.851
1287.2	461.526
1287.47	456.231
1287.75	493.006
1288.02	488.708
1288.29	467.607
1288.57	468.652
1288.84	445.511
1289.12	460.276
1289.39	458.238
1289.66	453.055
1289.94	469.985
1290.21	464.815
1290.49	453.307
1290.76	466.997
1291.03	439.559
1291.31	455.332
1291.58	419.514
1291.86	457.424
1292.13	448.979
1292.4	448.982
1292.68	411.092
1292.95	439.503
1293.22	470.008
1293.5	457.392
1293.77	456.487
1294.05	454.566
1294.32	454.757
1294.59	487.5
1294.87	451.646
1295.14	476.92
1295.42	440.091
1295.69	449.772
1295.96	466.907
1296.24	448.223
1296.51	451.578
1296.79	454.796
1297.06	420.982
1297.33	447.358
1297.61	436.712
1297.88	452.47
1298.15	465.041
1298.43	454.357
1298.7	438.567
1298.97	487.109
1299.25	466.966
1299.52	478.514
1299.79	455.214
1300.07	467.874
1300.34	438.395
1300.62	466.946
1300.89	424.723
1301.16	443.707
1301.44	447.912
1301.71	454.268
1301.98	446.952
1302.25	452.301
1302.53	463.958
1302.8	441.788
1303.08	426.992
1303.35	438.582
1303.62	476.554
1303.9	460.628
1304.17	462.722
1304.44	473.291
1304.72	500.745
1304.99	441.605
1305.26	445.773
1305.54	422.47
1305.81	494.14
1306.08	424.388
1306.35	482.303
1306.63	428.417
1306.9	446.306
1307.18	445.249
1307.45	450.56
1307.72	421.04
1308	453.729
1308.27	463.217
1308.54	443.2
1308.81	443.172
1309.09	470.62
1309.36	436.934
1309.63	451.766
1309.91	473.991
1310.18	422.322
1310.45	451.858
1310.73	452.884
1311	429.667
1311.27	444.459
1311.55	448.703
1311.82	462.443
1312.09	435.036
1312.37	450.945
1312.64	446.787
1312.91	481.662
1313.18	444.684
1313.46	413.996
1313.73	468.877
1314	461.444
1314.28	436.077
1314.55	452.963
1314.82	425.543
1315.09	472.035
1315.37	444.641
1315.64	463.7
1315.91	462.704
1316.18	443.751
1316.46	470.136
1316.73	444.758
1317	455.298
1317.28	452.116
1317.55	454.227
1317.82	463.797
1318.09	456.446
1318.37	422.67
1318.64	476.564
1318.91	454.388
1319.18	448.05
1319.46	475.503
1319.73	458.58
1320	434.266
1320.28	437.463
1320.55	442.75
1320.82	435.33
1321.09	504.978
1321.37	458.399
1321.64	467.77
1321.91	456.012
1322.18	434.825
1322.46	476.897
1322.73	423.038
1323	490.474
1323.27	435.567
1323.55	429.156
1323.82	455.565
1324.09	454.529
1324.36	449.263
1324.64	445.03
1324.91	485.105
1325.18	455.566
1325.45	471.411
1325.73	457.584
1326	435.248
1326.27	440.263
1326.54	397.853
1326.81	473.487
1327.09	468.189
1327.36	448.349
1327.63	446.536
1327.9	459.334
1328.18	458.44
1328.45	457.561
1328.72	413.444
1328.99	454.717
1329.27	477.97
1329.54	465.251
1329.81	463.188
1330.08	464.222
1330.35	471.567
1330.63	456.738
1330.9	446.107
1331.17	469.195
1331.44	443.757
1331.71	435.155
1331.99	454.974
1332.26	432.706
1332.53	417.849
1332.8	407.199
1333.07	460.703
1333.35	436.353
1333.62	435.158
1333.89	461.295
1334.16	460.112
1334.43	424.274
1334.71	453.56
1334.98	454.498
1335.25	451.253
1335.52	420.735
1335.79	451.078
1336.07	475.123
1336.34	462.457
1336.61	469.727
1336.88	450.789
1337.15	453.881
1337.43	464.319
1337.7	442.267
1337.97	434.88
1338.24	453.632
1338.51	456.668
1338.78	440.889
1339.06	448.145
1339.33	456.472
1339.6	458.551
1339.87	427.153
1340.14	456.496
1340.42	472.212
1340.69	456.52
1340.96	447.108
1341.23	430.341
1341.5	436.603
1341.77	447.042
1342.04	457.461
1342.32	469.949
1342.59	433.214
1342.86	456.117
1343.13	460.181
1343.4	471.621
1343.67	454.85
1343.95	476.796
1344.22	452.736
1344.49	449.605
1344.76	457.97
1345.03	460.019
1345.3	451.577
1345.58	449.383
1345.85	445.06
1346.12	463.752
1346.39	466.727
1346.66	480.064
1346.93	402.685
1347.2	447.423
1347.47	453.539
1347.75	464.881
1348.02	484.601
1348.29	472.03
1348.56	476.156
1348.83	470.909
1349.1	437.489
1349.37	446.783
1349.65	493.566
1349.92	471.604
1350.19	484.013
1350.46	451.653
1350.73	457.813
1351	452.497
1351.27	465.906
1351.54	464.788
1351.81	450.108
1352.09	475.028
1352.36	459.421
1352.63	422.034
1352.9	459.57
1353.17	451.384
1353.44	435.844
1353.71	453.918
1353.98	441.828
1354.25	450.785
1354.53	446.99
1354.8	465.232
1355.07	469.438
1355.34	471.553
1355.61	470.348
1355.88	471.3
1356.15	491.197
1356.42	448.635
1356.69	431.916
1356.96	433.949
1357.24	440.142
1357.51	454.636
1357.78	434.846
1358.05	476.305
1358.32	462.727
1358.59	457.452
1358.86	457.373
1359.13	451.054
1359.4	464.45
1359.67	463.344
1359.94	459.135
1360.22	434.134
1360.49	465.096
1360.76	462.893
1361.03	462.805
1361.3	461.73
1361.57	450.327
1361.84	449.272
1362.11	408.85
1362.38	439.869
1362.65	466.744
1362.92	422.173
1363.19	454.254
1363.46	460.493
1363.73	484.39
1364	446.126
1364.28	437.893
1364.55	465.855
1364.82	453.392
1365.09	478.199
1365.36	423.23
1365.63	417.958
1365.9	479.96
1366.17	450.875
1366.44	423.873
1366.71	427.909
1366.98	438.124
1367.25	416.264
1367.52	439.968
1367.79	431.656
1368.06	466.852
1368.33	464.819
1368.6	424.531
1368.87	485.549
1369.15	445.256
1369.41	459.766
1369.68	438.082
1369.95	483.518
1370.23	448.314
1370.5	450.328
1370.77	466.744
1371.04	441.884
1371.31	457.297
1371.58	443.742
1371.85	461.144
1372.12	437.224
1372.39	452.53
1372.66	450.308
1372.93	438.847
1373.2	449.078
1373.47	432.526
1373.74	422.165
1374.01	466.429
1374.28	432.386
1374.55	452.959
1374.82	448.807
1375.09	448.77
1375.36	429.141
1375.63	460.06
1375.9	462.176
1376.17	453.921
1376.44	443.643
1376.71	457.948
1376.98	442.388
1377.25	499.887
1377.52	428.679
1377.79	450.342
1378.06	530.746
1378.33	472.258
1378.6	478.671
1378.87	458.315
1379.14	461.484
1379.41	485.178
1379.68	479.958
1379.95	466.489
1380.22	496.275
1380.49	499.151
1380.76	445.228
1381.03	461.481
1381.3	496.272
1381.57	458.297
1381.84	470.516
1382.11	507.297
1382.38	473.143
1382.65	466.782
1382.92	488.167
1383.19	466.431
1383.46	458.091
1383.73	509.233
1384	535.801
1384.27	491.639
1384.54	475.25
1384.81	496.822
1385.08	475.374
1385.34	484.736
1385.61	478.766
1385.88	481.971
1386.15	443.06
1386.42	430.796
1386.69	483.262
1386.96	445.301
1387.23	461.727
1387.5	450.069
1387.77	477.881
1388.04	482.182
1388.31	461.461
1388.58	443.582
1388.85	496.533
1389.12	441.728
1389.39	430.71
1389.66	464.627
1389.93	441.061
1390.2	436.805
1390.46	449.799
1390.73	452.709
1391	469.098
1391.27	423.808
1391.54	454.516
1391.81	428.853
1392.08	456.417
1392.35	451.176
1392.62	437.761
1392.89	431.543
1393.16	435.577
1393.43	441.668
1393.7	455.951
1393.97	430.322
1394.23	432.332
1394.5	455.836
1394.77	435.342
1395.04	476.251
1395.31	448.672
1395.58	442.604
1395.85	458.01
1396.12	451.889
1396.39	434.472
1396.66	440.575
1396.93	450.756
1397.2	426.138
1397.46	432.196
1397.73	454.619
1398	447.414
1398.27	458.66
1398.54	433.117
1398.81	436.236
1399.08	407.619
1399.35	460.843
1399.62	459.896
1399.89	412.868
1400.16	446.683
1400.42	429.277
1400.69	445.715
1400.96	480.64
1401.23	426.421
1401.5	438.692
1401.77	416.213
1402.04	429.522
1402.31	422.495
1402.58	404.282
1402.84	436.324
1403.11	434.464
1403.38	408.939
1403.65	425.427
1403.92	430.564
1404.19	425.342
1404.46	458.956
1404.73	429.268
1404.99	411.789
1405.26	426.1
1405.53	405.512
1405.8	406.461
1406.07	418.692
1406.34	442.202
1406.61	437.029
1406.87	441.093
1407.14	441.113
1407.41	454.47
1407.68	436.055
1407.95	461.711
1408.22	415.6
1408.49	462.789
1408.76	442.307
1409.02	407.473
1409.29	392.126
1409.56	436.261
1409.83	434.243
1410.1	402.466
1410.37	444.525
1410.63	443.412
1410.9	443.29
1411.17	416.501
1411.44	427.677
1411.71	436.824
1411.98	449.061
1412.25	445.971
1412.51	430.664
1412.78	413.363
1413.05	397.212
1413.32	415.141
1413.59	443.134
1413.86	443.821
1414.12	430.934
1414.39	444.361
1414.66	459.024
1414.93	418.17
1415.2	431.488
1415.47	441.77
1415.73	424.318
1416	429.464
1416.27	445.928
1416.54	438.781
1416.81	413.149
1417.07	427.571
1417.34	419.404
1417.61	468.768
1417.88	432.856
1418.15	420.55
1418.42	457.551
1418.68	405.161
1418.95	430.873
1419.22	437.044
1419.49	450.413
1419.76	430.841
1420.02	434.87
1420.29	418.348
1420.56	448.055
1420.83	412.024
1421.1	436.574
1421.36	467.287
1421.63	448.771
1421.9	439.56
1422.17	440.703
1422.44	404.905
1422.7	412.233
1422.97	425.818
1423.24	430.297
1423.51	436.855
1423.77	447.127
1424.04	430.816
1424.31	448.366
1424.58	422.322
1424.85	462.282
1425.11	435.77
1425.38	434.02
1425.65	443.307
1425.92	432.99
1426.19	407.492
1426.45	448.495
1426.72	437.134
1426.99	446.25
1427.26	433.827
1427.52	407.055
1427.79	433.524
1428.06	394.467
1428.33	427.169
1428.59	453.763
1428.86	414.862
1429.13	449.701
1429.4	456.907
1429.67	415.993
1429.93	445.764
1430.2	432.54
1430.47	403.96
1430.74	455.299
1431	409.296
1431.27	442.302
1431.54	431.166
1431.81	401.476
1432.07	427.137
1432.34	409.614
1432.61	423.881
1432.87	435.101
1433.14	397.026
1433.41	406.104
1433.68	425.402
1433.95	413.967
1434.21	442.54
1434.48	420.992
1434.75	429.383
1435.01	450.992
1435.28	430.516
1435.55	455.113
1435.82	417.189
1436.08	437.663
1436.35	404.848
1436.62	448.876
1436.89	416.052
1437.15	440.597
1437.42	451.827
1437.69	429.281
1437.95	431.282
1438.22	443.55
1438.49	432.306
1438.76	459.006
1439.02	444.706
1439.29	469.308
1439.56	462.162
1439.82	423.295
1440.09	454.14
1440.36	462.469
1440.63	403.057
1440.89	438.971
1441.16	412.317
1441.43	443.106
1441.69	451.276
1441.96	449.151
1442.23	389.651
1442.49	436.9
1442.76	454.344
1443.03	462.641
1443.3	459.506
1443.56	416.363
1443.83	440.909
1444.1	456.242
1444.36	472.627
1444.63	440.877
1444.9	422.545
1445.16	417.519
1445.43	448.434
1445.7	444.294
1445.97	448.356
1446.23	419.596
1446.5	446.229
1446.77	429.785
1447.03	444.11
1447.3	420.489
1447.57	449.158
1447.83	410.141
1448.1	403.949
1448.37	441.878
1448.63	422.473
1448.9	449.234
1449.17	419.517
1449.43	453.358
1449.7	424.604
1449.97	463.516
1450.23	459.34
1450.5	434.662
1450.77	429.5
1451.03	415.116
1451.3	409.959
1451.57	449.892
1451.83	476.489
1452.1	445.704
1452.37	441.572
1452.63	427.21
1452.9	397.505
1453.17	416.991
1453.43	402.692
1453.7	421.177
1453.97	450.901
1454.23	432.424
1454.5	423.177
1454.77	424.202
1455.03	433.425
1455.3	460.055
1455.56	430.31
1455.83	407.776
1456.1	406.822
1456.36	415.059
1456.63	462.206
1456.9	423.222
1457.16	405.731
1457.43	414.887
1457.7	426.124
1457.96	447.609
1458.23	411.738
1458.49	437.349
1458.76	436.335
1459.03	439.433
1459.29	407.694
1459.56	417.953
1459.82	426.159
1460.09	411.798
1460.36	443.531
1460.62	415.839
1460.89	429.121
1461.16	437.268
1461.42	427.994
1461.69	421.795
1461.95	395.114
1462.22	422.687
1462.49	442.056
1462.75	416.384
1463.02	420.386
1463.28	400.855
1463.55	424.279
1463.82	402.718
1464.08	427.241
1464.35	429.418
1464.61	410.175
1464.88	428.745
1465.15	400.272
1465.41	423.5
1465.68	404.348
1465.94	414.224
1466.21	436.633
1466.48	424.517
1466.74	373.441
1467.01	391.641
1467.27	397.709
1467.54	411.01
1467.8	420.164
1468.07	411.973
1468.34	410.934
1468.6	410.926
1468.87	410.915
1469.13	437.41
1469.4	433.287
1469.67	425.075
1469.93	461.698
1470.2	422.854
1470.46	419.716
1470.73	391.125
1470.99	406.362
1471.26	440.971
1471.53	432.761
1471.79	417.397
1472.06	420.394
1472.32	411.199
1472.59	426.456
1472.85	436.626
1473.12	430.502
1473.39	419.27
1473.65	414.118
1473.92	416.091
1474.18	404.845
1474.45	426.185
1474.71	380.389
1474.98	448.611
1475.24	414.034
1475.51	405.895
1475.78	409.953
1476.04	431.286
1476.31	432.245
1476.57	423.045
1476.84	417.92
1477.1	387.335
1477.37	391.339
1477.63	434.019
1477.9	403.493
1478.16	400.431
1478.43	409.535
1478.69	435.887
1478.96	435.822
1479.22	393.071
1479.49	449.908
1479.76	424.423
1480.02	408.078
1480.29	465.878
1480.55	436.27
1480.82	412.8
1481.08	416.777
1481.35	457.323
1481.61	419.709
1481.88	381.193
1482.14	413.723
1482.41	418.872
1482.67	415.911
1482.94	429.173
1483.2	408.865
1483.47	420.083
1483.73	427.218
1484	426.202
1484.26	390.646
1484.53	414.849
1484.79	404.472
1485.06	413.162
1485.32	428.798
1485.59	429.601
1485.85	406.021
1486.12	406.956
1486.38	396.935
1486.65	402.152
1486.91	399.702
1487.18	411.049
1487.44	405.03
1487.71	418.079
1487.97	422.034
1488.24	401.719
1488.5	432.03
1488.77	417.761
1489.03	410.574
1489.3	408.472
1489.56	416.52
1489.83	436.718
1490.09	437.698
1490.36	427.577
1490.62	414.418
1490.89	434.597
1491.15	437.543
1491.42	420.267
1491.68	412.137
1491.95	423.238
1492.21	418.18
1492.48	410.108
1492.74	433.347
1493	417.147
1493.27	398.935
1493.53	416.118
1493.8	429.229
1494.06	417.081
1494.33	406.976
1494.59	419.132
1494.86	428.265
1495.12	431.28
1495.39	406.95
1495.65	399.756
1495.92	424.865
1496.18	393.435
1496.45	417.594
1496.71	437.727
1496.97	423.539
1497.24	407.332
1497.5	429.53
1497.77	428.516
1498.03	394.176
1498.3	428.478
1498.56	419.397
1498.82	408.303
1499.09	425.473
1499.35	437.601
1499.62	417.441
1499.88	432.618
1500.15	439.72
1500.41	405.408
1500.68	392.279
1500.94	390.245
1501.2	432.631
1501.47	399.273
1501.73	406.259
1502	397.149
1502.26	412.273
1502.52	409.228
1502.79	392.034
1503.05	386.905
1503.32	376.742
1503.58	408.967
1503.85	391.751
1504.11	397.798
1504.37	421.027
1504.64	392.808
1504.9	410.961
1505.17	420.017
1505.43	421.988
1505.7	407.808
1505.96	420.795
1506.22	416.614
1506.49	444.793
1506.75	447.799
1507.02	443.787
1507.28	414.629
1507.54	401.544
1507.81	397.529
1508.07	429.77
1508.34	418.656
1508.6	432.737
1508.86	405.539
1509.13	397.491
1509.39	428.733
1509.66	409.58
1509.92	405.546
1510.18	433.806
1510.45	392.512
1510.71	402.512
1510.98	412.506
1511.24	402.338
1511.5	427.397
1511.77	415.146
1512.03	421.969
1512.29	419.737
1512.56	404.454
1512.82	409.306
1513.08	400.159
1513.35	420.148
1513.61	416.05
1513.88	405.976
1514.14	402.053
1514.4	426.313
1514.67	414.298
1514.93	396.17
1515.2	419.175
1515.46	429.101
1515.72	416.946
1515.99	386.717
1516.25	390.612
1516.51	402.563
1516.78	398.511
1517.04	408.505
1517.3	420.508
1517.57	402.447
1517.83	413.482
1518.09	410.502
1518.36	384.499
1518.62	394.548
1518.88	404.605
1519.15	411.649
1519.41	386.604
1519.67	434.789
1519.94	436.815
1520.2	434.797
1520.47	403.657
1520.73	404.63
1520.99	421.706
1521.26	396.664
1521.52	412.752
1521.78	417.782
1522.05	426.794
1522.31	434.781
1522.57	409.651
1522.84	400.573
1523.1	420.589
1523.36	435.56
1523.62	425.404
1523.89	414.21
1524.15	409.09
1524.41	439.051
1524.68	405.925
1524.94	406.861
1525.2	394.888
1525.47	382.888
1525.73	387.908
1525.99	401.986
1526.26	410.074
1526.52	430.223
1526.78	419.285
1527.05	417.312
1527.31	415.296
1527.57	391.182
1527.84	390.153
1528.1	416.172
1528.36	442.189
1528.63	409.072
1528.89	416.039
1529.15	421.009
1529.41	414.976
1529.68	437.003
1529.94	406.926
1530.2	399.849
1530.47	394.823
1530.73	394.857
1530.99	402.949
1531.25	401.026
1531.52	392.067
1531.78	381.052
1532.04	405.073
1532.31	382.036
1532.57	409.034
1532.83	427.117
1533.09	426.227
1533.36	406.325
1533.62	404.444
1533.88	424.561
1534.15	414.562
1534.41	428.601
1534.67	404.501
1534.94	413.495
1535.2	374.336
1535.46	406.392
1535.72	424.361
1535.99	422.144
1536.25	415.001
1536.51	403.889
1536.77	414.762
1537.04	443.633
1537.3	404.463
1537.56	419.412
1537.82	436.318
1538.09	427.319
1538.35	406.229
1538.61	377.108
1538.87	419.053
1539.14	384.027
1539.4	428.122
1539.66	443.37
1539.92	391.634
1540.19	399.842
1540.45	412.033
1540.71	392.162
1540.97	395.276
1541.24	407.352
1541.5	426.229
1541.76	424.202
1542.02	417.07
1542.29	419.97
1542.55	426.875
1542.81	421.76
1543.07	440.682
1543.34	392.537
1543.6	417.456
1543.86	413.317
1544.12	447.177
1544.39	391.191
1544.65	429.218
1544.91	413.3
1545.17	398.414
1545.43	402.503
1545.7	416.679
1545.96	387.724
1546.22	393.783
1546.48	398.833
1546.74	385.786
1547.01	388.808
1547.27	403.878
1547.53	397.913
1547.79	419.999
1548.06	432.93
1548.32	424.693
1548.58	408.669
1548.84	400.678
1549.1	391.779
1549.37	436.451
1549.63	394.011
1549.89	417.91
1550.15	456.145
1550.42	416.573
1550.68	437.252
1550.94	385.537
1551.2	426.097
1551.46	411.753
1551.73	399.742
1551.99	412.711
1552.25	434.66
1552.51	395.694
1552.77	441.054
1553.03	391.784
1553.3	407.734
1553.56	418.473
1553.82	382.291
1554.08	433.414
1554.34	406.247
1554.61	431.194
1554.87	411.003
1555.13	443.919
1555.39	422.823
1555.65	415.781
1555.91	403.756
1556.18	417.805
1556.44	404.784
1556.7	396.708
1556.96	406.727
1557.22	408.755
1557.48	400.763
1557.75	395.759
1558.01	423.784
1558.27	411.686
1558.53	407.55
1558.79	390.429
1559.06	376.286
1559.32	408.18
1559.58	423.071
1559.84	428.977
1560.1	405.906
1560.36	399.849
1560.63	428.79
1560.89	436.749
1561.15	420.731
1561.41	417.727
1561.67	425.75
1561.93	449.815
1562.19	410.943
1562.46	408.063
1562.72	418.066
1562.98	439.046
1563.24	390.007
1563.5	393.024
1563.76	434.983
1564.02	431.955
1564.29	387.093
1564.55	390.243
1564.81	392.291
1565.07	407.273
1565.33	419.044
1565.59	430.289
1565.85	425.263
1566.11	394.881
1566.38	409.489
1566.64	416.98
1566.9	424.761
1567.16	412.492
1567.42	427.821
1567.68	399.182
1567.94	417.094
1568.2	440.792
1568.47	435.844
1568.73	389.908
1568.99	408.933
1569.25	422.89
1569.51	434.726
1569.77	392.661
1570.03	400.656
1570.29	433.666
1570.55	433.673
1570.82	407.693
1571.08	410.681
1571.34	395.67
1571.6	391.635
1571.86	434.533
1572.12	413.477
1572.38	396.48
1572.64	385.441
1572.9	416.32
1573.17	416.257
1573.43	417.195
1573.69	388.178
1573.95	436.025
1574.21	397.109
1574.47	430.119
1574.73	406.254
1574.99	407.347
1575.25	377.481
1575.51	445.512
1575.78	415.611
1576.04	428.621
1576.3	419.594
1576.56	394.602
1576.82	410.542
1577.08	400.422
1577.34	412.248
1577.6	391.136
1577.86	432.905
1578.12	418.801
1578.38	383.773
1578.64	394.667
1578.9	416.574
1579.17	406.598
1579.43	429.522
1579.69	392.637
1579.95	414.591
1580.21	417.64
1580.47	392.738
1580.73	413.685
1580.99	390.731
1581.25	393.675
1581.51	420.527
1581.77	408.508
1582.03	414.403
1582.29	417.301
1582.55	397.342
1582.81	420.225
1583.07	411.225
1583.33	421.159
1583.59	403.215
1583.85	425.115
1584.11	430.05
1584.38	431.043
1584.64	416.138
1584.9	408.194
1585.16	425.143
1585.42	410.195
1585.68	405.189
1585.94	405.177
1586.2	399.16
1586.46	431.923
1586.72	408.918
1586.98	406.852
1587.24	419.733
1587.5	416.7
1587.76	389.798
1588.02	378.832
1588.28	433.553
1588.54	414.681
1588.8	427.663
1589.06	425.732
1589.32	418.815
1589.58	422.848
1589.84	416.911
1590.1	403.98
1590.36	420.902
1590.62	413.964
1590.88	434.922
1591.14	410.062
1591.4	398.097
1591.66	427.969
1591.92	414.992
1592.18	404.989
1592.44	433.766
1592.7	428.65
1592.96	418.598
1593.22	410.573
1593.48	398.488
1593.74	400.315
1594	413.064
1594.26	419.909
1594.52	392.039
1594.78	411.902
1595.04	385.127
1595.3	433.887
1595.56	403.138
1595.82	395.186
1596.08	438.707
1596.34	408.899
1596.6	434.719
1596.86	405.917
1597.12	416.856
1597.38	408.936
1597.64	450.693
1597.9	409.002
1598.16	412.963
1598.42	435.769
1598.68	424.763
1598.94	425.639
1599.2	442.409
1599.46	412.548
1599.72	381.713
1599.98	415.38
1600.24	424.235
1600.5	385.481
1600.76	410.195
1601.02	404.143
1601.28	410.953
1601.54	448.465
1601.8	418.603
1602.06	430.37
1602.32	407.508
1602.58	400.497
1602.84	397.44
1603.1	433.947
1603.36	411.098
1603.62	428.821
1603.88	434.697
1604.14	423.782
1604.4	379.277
1604.66	396.089
1604.92	400.053
1605.17	387.201
1605.43	431.702
1605.69	395.129
1605.95	402.082
1606.21	400.148
1606.47	391.295
1606.73	406.183
1606.99	398.308
1607.25	417.026
1607.51	417.831
1607.77	405.357
1608.03	425.116
1608.29	385.461
1608.55	405.556
1608.81	386.416
1609.07	396.297
1609.32	391.064
1609.58	403.831
1609.84	423.905
1610.1	426.949
1610.36	400.552
1610.62	428.171
1610.88	411.473
1611.14	420.505
1611.4	425.853
1611.66	387.329
1611.92	426.87
1612.18	407.323
1612.44	419.858
1612.69	431.631
1612.95	426.847
1613.21	420.625
1613.47	379.644
1613.73	404.878
1613.99	417.546
1614.25	404.734
1614.51	426.339
1614.77	399.502
1615.03	399.303
1615.29	409.049
1615.54	406.802
1615.8	398.987
1616.06	415.583
1616.32	413.304
1616.58	422.189
1616.84	405.097
1617.1	411.891
1617.36	404.144
1617.62	427.784
1617.88	397.052
1618.13	423.585
1618.39	413.214
1618.65	416.857
1618.91	414.626
1619.17	428.147
1619.43	418.481
1619.69	400.425
1619.95	405.621
1620.2	398.113
1620.46	402.564
1620.72	414.822
1620.98	410.922
1621.24	400.102
1621.5	402.879
1621.76	411.845
1622.02	402.191
1622.27	415.133
1622.53	388.127
1622.79	392.71
1623.05	400.746
1623.31	405.736
1623.57	391.126
1623.83	393.611
1624.09	395.737
1624.34	409.199
1624.6	395.508
1624.86	413.539
1625.12	412.258
1625.38	398.981
1625.64	403.801
1625.9	406.183
1626.15	411.651
1626.41	415.142
1626.67	415.926
1626.93	421.033
1627.19	423.577
1627.45	413.916
1627.7	401.852
1627.96	402.284
1628.22	392.101
1628.48	413.528
1628.74	408.622
1629	416.364
1629.26	409.322
1629.51	407.08
1629.77	406.416
1630.03	417.948
1630.29	409.773
1630.55	402.245
1630.81	415.507
1631.06	396.767
1631.32	398.318
1631.53	406.822
1631.79	403.929
1632.05	414.844
1632.31	418.859
1632.57	435.59
1632.84	402.197
1633.1	416.211
1633.36	417.046
1633.62	405.99
1633.88	404.959
1634.14	424.726
1634.4	389.313
1634.66	430.731
1634.93	414.972
1635.19	420.88
1635.45	408.051
1635.71	428.724
1635.97	424.746
1636.23	413.863
1636.49	451.253
1636.75	423.612
1637.02	414.689
1637.28	417.576
1637.54	398.79
1637.8	414.507
1638.06	442.062
1638.32	412.486
1638.58	409.49
1638.84	398.631
1639.1	391.746
1639.37	400.606
1639.63	396.665
1639.89	424.224
1640.15	393.703
1640.41	410.422
1640.67	399.607
1640.93	418.39
1641.19	395.8
1641.46	415.51
1641.72	412.527
1641.98	400.668
1642.24	420.329
1642.5	409.478
1642.76	407.491
1643.02	422.238
1643.28	415.334
1643.54	418.277
1643.8	399.565
1644.06	437.916
1644.33	419.169
1644.59	418.119
1644.85	403.307
1645.11	419.034
1645.37	388.567
1645.63	400.428
1645.89	410.299
1646.15	419.162
1646.41	389.6
1646.67	412.182
1646.93	385.576
1647.19	406.209
1647.46	402.232
1647.72	411.039
1647.98	426.736
1648.24	409.026
1648.5	394.29
1648.76	418.951
1649.02	404.276
1649.28	366.091
1649.54	418.345
1649.8	397.626
1650.06	396.596
1650.32	457.621
1650.58	384.897
1650.85	374.158
1651.11	407.719
1651.37	432.43
1651.63	398.984
1651.89	396.05
1652.15	414.776
1652.41	397.039
1652.67	372.418
1652.93	434.461
1653.19	395.982
1653.45	400.886
1653.71	399.902
1653.97	395.98
1654.23	394.049
1654.49	421.669
1654.75	424.643
1655.01	424.672
1655.27	397.127
1655.53	429.743
1655.8	410.145
1656.06	401.415
1656.32	422.236
1656.57	399.602
1656.84	412.471
1657.1	418.413
1657.36	400.633
1657.62	388.754
1657.88	407.462
1658.14	412.37
1658.4	438.982
1658.66	399.467
1658.92	410.262
1659.18	421.052
1659.44	404.223
1659.7	398.246
1659.96	402.13
1660.22	409.928
1660.48	417.849
1660.74	404.1
1661	419.941
1661.26	420.017
1661.52	420.097
1661.78	397.49
1662.04	414.3
1662.3	399.529
1662.56	410.994
1662.82	392.02
1663.08	412.21
1663.34	410.005
1663.6	418.852
1663.86	399.973
1664.12	402.101
1664.38	413.386
1664.64	394.731
1664.9	387.855
1665.16	419.661
1665.42	417.771
1665.68	386.72
1665.94	402.133
1666.2	407.131
1666.46	405.242
1666.72	412.12
1666.98	432.274
1667.24	417.142
1667.5	415.42
1667.76	398.551
1668.02	423.155
1668.28	413.243
1668.54	400.349
1668.8	409.237
1669.06	416.333
1669.32	409.658
1669.58	388.961
1669.84	419.59
1670.1	397.874
1670.36	388.943
1670.62	395.857
1670.88	405.946
1671.14	399.163
1671.4	416.914
1671.66	415.893
1671.92	410.933
1672.18	419.847
1672.44	404.068
1672.69	412.978
1672.95	413.965
1673.21	410.009
1673.47	388.273
1673.73	413.004
1673.99	436.76
1674.25	435.818
1674.51	393.355
1674.77	388.459
1675.03	382.574
1675.29	418.265
1675.55	431.194
1675.81	411.44
1676.07	416.394
1676.33	403.522
1676.59	414.422
1676.85	407.516
1677.11	410.497
1677.37	452.059
1677.63	382.756
1677.89	413.398
1678.14	403.444
1678.4	422.161
1678.66	434.927
1678.92	409.136
1679.18	425.888
1679.44	406.063
1679.7	405.04
1679.96	391.16
1680.22	407.921
1680.48	399.983
1680.74	407.847
1681	414.721
1681.26	399.864
1681.52	401.82
1681.78	413.668
1682.03	419.591
1682.29	413.663
1682.55	418.606
1682.81	390.952
1683.07	400.814
1683.33	430.439
1683.59	392.894
1683.85	387.954
1684.11	388.93
1684.37	400.758
1684.63	395.758
1684.89	399.674
1685.14	413.478
1685.4	385.814
1685.66	386.794
1685.92	392.716
1686.18	387.781
1686.44	398.652
1686.7	401.647
1686.96	415.558
1687.22	396.831
1687.48	375.106
1687.73	382.979
1687.99	409.602
1688.25	425.356
1688.51	376.927
1688.77	403.545
1689.03	399.536
1689.29	394.515
1689.55	406.29
1689.81	404.244
1690.06	412.056
1690.32	389.277
1690.58	388.266
1690.84	406.112
1691.1	395.312
1691.36	386.467
1691.62	384.513
1691.88	389.488
1692.13	382.613
1692.39	400.379
1692.65	377.657
1692.91	411.151
1693.17	413.044
1693.43	407.031
1693.69	411.851
1693.95	409.755
1694.2	421.498
1694.46	390.867
1694.72	415.414
1694.98	413.382
1695.24	401.555
1695.5	371.041
1695.76	399.63
1696.01	394.727
1696.27	397.71
1696.53	419.443
1696.79	410.613
1697.05	410.609
1697.31	380.022
1697.57	427.241
1697.82	420.236
1698.08	408.307
1698.34	400.343
1698.6	397.32
1698.86	402.174
1699.12	396.214
1699.38	394.217
1699.63	351.896
1699.89	394.227
1700.15	380.454
1700.41	382.428
1700.67	396.13
1700.92	412.836
1701.18	389.207
1701.44	388.2
1701.7	392.099
1701.96	390.067
1702.22	408.671
1702.47	415.478
1702.73	393.771
1702.99	395.663
1703.25	400.552
1703.51	409.384
1703.77	374.967
1704.02	420.124
1704.28	381.783
1704.54	381.817
1704.8	419.208
1705.06	400.55
1705.32	399.547
1705.57	387.731
1705.83	372.008
1706.09	415.241
1706.35	411.245
1706.61	408.21
1706.86	394.365
1707.12	406.046
1707.38	411.833
1707.64	373.473
1707.9	401.821
1708.16	404.634
1708.41	390.779
1708.67	391.634
1708.93	393.449
1709.19	376.671
1709.44	400.083
1709.7	398.064
1709.96	411.741
1710.22	417.607
1710.48	361.814
1710.73	370.635
1710.99	403.953
1711.25	412.826
1711.51	388.381
1711.77	402.127
1712.02	399.218
1712.28	392.367
1712.54	390.364
1712.8	388.295
1713.06	412.601
1713.31	396.77
1713.57	384.875
1713.83	371.049
1714.09	383.611
1714.34	429.457
1714.6	387.397
1714.86	377.592
1715.12	414.684
1715.38	400.026
1715.63	412.793
1715.89	400.181
1716.15	384.544
1716.41	380.603
1716.66	369.802
1716.92	410.741
1717.18	384.261
1717.44	390.957
1717.69	399.571
1717.95	387.67
1718.21	384.575
1718.47	372.734
1718.72	370.662
1718.98	393.949
1719.24	372.478
1719.5	376.365
1719.75	403.621
1720.01	425.016
1720.27	369.548
1720.53	412.405
1720.78	389.97
1721.04	395.739
1721.3	373.248
1721.56	412.085
1721.81	381.846
1722.07	431.356
1722.33	383.606
1722.59	394.198
1722.84	408.674
1723.1	393.03
1723.36	377.403
1723.62	388.991
1723.87	392.829
1724.13	386.998
1724.39	358.805
1724.64	383.059
1724.9	398.528
1725.16	387.746
1725.42	379.831
1725.67	404.909
1725.93	378.58
1726.19	386.239
1726.45	379.408
1726.7	392.034
1726.96	379.406
1727.22	388.068
1727.47	363.715
1727.73	381.138
1727.99	386.073
1728.24	383.141
1728.5	375.327
1728.76	383.897
1729.02	385.298
1729.27	395.32
1729.53	392.201
1729.79	388.564
1730.05	387.801
1730.3	392.783
1730.56	394.473
1730.82	404.983
1731.07	381.776
1731.33	371.578
1731.59	389.965
1731.84	391.905
1732.1	392.861
1732.36	391.871
1732.61	375.404
1732.87	359.904
1733.13	386.897
1733.39	375.224
1733.64	375.108
1733.9	379.784
1734.16	373.835
1734.41	375.649
1734.67	381.315
1734.93	403.36
1735.18	390.701
1735.44	413.693
1735.7	378.909
1735.95	394.232
1736.21	378.769
1736.47	374.883
1736.72	388.318
1736.98	379.604
1737.24	374.741
1737.49	364.103
1737.75	367.9
1738.01	398.629
1738.26	375.48
1738.52	387.898
1738.78	383.97
1739.03	361.786
1739.29	392.442
1739.55	400.011
1739.8	400.82
1740.06	370.888
1740.32	391.832
1740.57	401.271
1740.83	376.221
1741.09	372.294
1741.34	381.791
1741.6	373.083
1741.86	375.88
1742.11	357.622
1742.37	386.308
1742.63	377.668
1742.88	369.021
1743.14	359.409
1743.4	368
1743.65	389.047
1743.91	371.78
1744.16	385.099
1744.42	354.416
1744.68	379.233
1744.93	373.466
1745.19	369.639
1745.45	397.383
1745.7	366.774
1745.96	378.232
1746.22	376.271
1746.47	389.58
1746.73	399.037
1746.98	370.248
1747.24	356.785
1747.5	394.887
1747.75	389.066
1748.01	394.702
1748.27	380.337
1748.52	386.055
1748.78	387.968
1749.03	387.029
1749.29	373.69
1749.55	381.371
1749.8	363.288
1750.06	361.449
1750.32	383.505
1750.57	367.349
1750.83	376.03
1751.08	393.266
1751.34	374.191
1751.6	359.861
1751.85	382.755
1752.11	355.887
1752.36	385.393
1752.62	374.797
1752.88	369.942
1753.13	374.631
1753.39	390.772
1753.64	355.388
1753.9	374.409
1754.15	375.302
1754.41	357.096
1754.67	377.041
1754.92	372.215
1755.18	385.508
1755.43	372.118
1755.69	381.601
1755.95	358.667
1756.2	370.022
1756.46	393.741
1756.71	386.969
1756.97	343.056
1757.23	358.17
1757.48	358.065
1757.74	368.484
1757.99	380.802
1758.25	377.021
1758.5	381.89
1758.76	371.459
1759.02	371.468
1759.27	378.133
1759.53	369.574
1759.78	371.495
1760.04	388.618
1760.3	380.976
1760.55	385.7
1760.81	365.684
1761.06	375.153
1761.32	365.581
1761.57	361.703
1761.83	366.392
1762.08	383.458
1762.34	373.922
1762.6	402.423
1762.85	397.738
1763.11	348.34
1763.36	380.676
1763.62	382.561
1763.87	403.491
1764.13	366.435
1764.38	410.22
1764.64	378.915
1764.89	366.687
1765.15	395.297
1765.4	391.542
1765.66	385.868
1765.92	363.046
1766.17	384.004
1766.43	392.573
1766.68	374.472
1766.94	394.433
1767.19	412.491
1767.45	377.265
1767.7	380.089
1767.96	387.649
1768.21	385.687
1768.47	401.816
1768.73	373.24
1768.98	370.359
1769.24	375.911
1769.49	366.198
1769.75	383.105
1770	382.972
1770.26	355.446
1770.51	375.476
1770.77	359.419
1771.02	369.877
1771.28	364.203
1771.53	347.194
1771.79	381.547
1772.04	373.989
1772.3	364.5
1772.55	381.681
1772.81	364.636
1773.06	377.061
1773.32	364.737
1773.57	398.09
1773.83	380.999
1774.08	393.41
1774.34	386.778
1774.59	354.432
1774.85	383.011
1775.1	368.782
1775.36	363.098
1775.61	364.116
1775.87	370.953
1776.12	349.127
1776.38	351.079
1776.63	367.299
1776.89	374.908
1777.14	392.018
1777.4	394.809
1777.65	371.896
1777.91	357.538
1778.16	375.572
1778.42	331.692
1778.67	369.721
1778.93	362.977
1779.18	377.158
1779.44	363.73
1779.69	348.448
1779.95	386.497
1780.2	388.512
1780.46	373.313
1780.71	366.678
1780.97	379.085
1781.22	362.94
1781.47	372.468
1781.73	388.669
1781.98	360.14
1782.24	377.331
1782.49	392.632
1782.75	371.767
1783	376.588
1783.26	356.622
1783.51	360.473
1783.77	350.036
1784.02	361.522
1784.28	374.923
1784.53	389.296
1784.79	378.904
1785.04	376.102
1785.29	411.436
1785.55	375.18
1785.8	365.619
1786.06	357.949
1786.31	374.127
1786.57	371.272
1786.82	376.074
1787.08	368.502
1787.33	368.582
1787.58	380.14
1787.84	370.735
1788.09	368.093
1788.35	382.675
1788.6	379.093
1788.86	385.957
1789.11	364.961
1789.37	359.302
1789.62	395.843
1789.87	378.696
1790.13	373.954
1790.38	374.961
1790.64	356.797
1790.89	381.726
1791.15	359.66
1791.4	372.997
1791.65	347.863
1791.91	366.031
1792.16	383.233
1792.42	398.561
1792.67	383.254
1792.93	377.529
1793.18	388.115
1793.43	380.485
1793.69	357.503
1793.94	387.206
1794.2	364.262
1794.45	384.399
1794.7	359.479
1794.96	387.208
1795.21	353.776
1795.47	361.726
1795.72	384.945
1795.97	362.011
1796.23	371.67
1796.48	360.216
1796.74	388.137
1796.99	369.964
1797.25	361.392
1797.5	378.759
1797.75	361.52
1798.01	347.15
1798.26	389.491
1798.51	403.95
1798.77	361.667
1799.02	388.594
1799.28	385.688
1799.53	363.534
1799.78	365.399
1800.04	393.198
1800.29	374.869
1800.55	372.894
1800.8	369.967
1801.05	361.289
1801.31	373.754
1801.56	374.702
1801.81	375.663
1802.07	368.953
1802.32	348.805
1802.58	365.172
1802.83	375.79
1803.08	376.814
1803.34	390.347
1803.59	376.011
1803.84	363.577
1804.1	347.262
1804.35	405.948
1804.61	358.869
1804.86	350.279
1805.11	357.08
1805.37	375.448
1805.62	367.841
1805.87	359.265
1806.13	374.754
1806.38	375.785
1806.64	351.757
1806.89	366.261
1807.14	370.148
1807.4	378.835
1807.65	374.984
1807.9	361.492
1808.16	369.208
1808.41	397.166
1808.66	379.826
1808.92	384.658
1809.17	380.817
1809.42	361.552
1809.68	387.594
1809.93	375.078
1810.18	362.56
1810.44	374.143
1810.69	378.968
1810.94	377.021
1811.2	377.002
1811.45	369.284
1811.7	355.779
1811.96	345.17
1812.21	348.066
1812.46	361.581
1812.72	372.227
1812.97	361.672
1813.22	354.02
1813.48	386.871
1813.73	365.671
1813.98	381.161
1814.24	388.968
1814.49	363.008
1814.74	376.63
1815	354.537
1815.25	353.641
1815.5	352.73
1815.76	374.022
1816.01	400.137
1816.26	387.591
1816.52	377.946
1816.77	371.205
1817.02	353.831
1817.27	391.511
1817.53	372.123
1817.78	369.05
1818.03	370.857
1818.29	369.91
1818.54	366.112
1818.79	364.28
1819.05	377.868
1819.3	375.915
1819.55	394.306
1819.8	370.189
1820.06	363.467
1820.31	373.168
1820.56	370.311
1820.82	371.329
1821.07	381.042
1821.32	389.783
1821.58	365.652
1821.83	387.965
1822.08	376.409
1822.33	342.58
1822.59	370.681
1822.84	370.707
1823.09	380.408
1823.34	361.065
1823.6	375.579
1823.85	347.476
1824.1	384.22
1824.36	366.788
1824.61	382.305
1824.86	397.828
1825.11	377.532
1825.37	370.792
1825.62	378.579
1825.87	369.892
1826.12	379.584
1826.38	380.55
1826.63	393.148
1826.88	389.285
1827.14	364.113
1827.39	376.727
1827.64	390.325
1827.89	370.024
1828.15	357.465
1828.4	387.504
1828.65	377.799
1828.9	383.575
1829.16	392.238
1829.41	373.798
1829.66	368.941
1829.91	353.431
1830.17	355.347
1830.42	377.576
1830.67	417.23
1830.92	387.174
1831.18	364.909
1831.43	389.155
1831.68	393.082
1831.93	388.294
1832.19	386.406
1832.44	374.83
1832.69	397.168
1832.94	401.125
1833.2	365.321
1833.45	407.007
1833.7	366.305
1833.95	379.911
1834.2	375.082
1834.46	383.833
1834.71	402.15
1834.96	374.812
1835.21	382.372
1835.47	379.292
1835.72	382.081
1835.97	389.715
1836.22	389.709
1836.48	375.113
1836.73	399.943
1836.98	382.416
1837.23	383.839
1837.48	378.811
1837.74	385.32
1837.99	381.207
1838.24	382.753
1838.49	375.754
1838.74	385.368
1839	373.435
1839.25	377.581
1839.5	365.127
1839.75	373.9
1840	386.549
1840.26	375.983
1840.51	383.384
1840.76	379.244
1841.01	402.231
1841.27	387.526
1841.52	395.073
1841.77	396.827
1842.02	387.978
1842.27	375.289
1842.53	369.372
1842.78	374.072
1843.03	361.597
1843.28	382.78
1843.53	343.274
1843.78	371.242
1844.04	369.312
1844.29	348.053
1844.54	357.696
1844.79	366.422
1845.04	362.571
1845.3	382.765
1845.55	361.559
1845.8	353.845
1846.05	364.606
1846.3	380.213
1846.55	369.739
1846.81	361.302
1847.06	360.134
1847.31	360.58
1847.56	363.823
1847.81	352.151
1848.07	383.924
1848.32	386.044
1848.57	365.989
1848.82	355.207
1849.07	379.182
1849.32	376.305
1849.57	357.94
1849.83	374.197
1850.08	344.254
1850.33	368.197
1850.58	387.287
1850.83	377.561
1851.09	360.165
1851.34	356.244
1851.59	361.939
1851.84	380.133
1852.09	362.808
1852.34	370.473
1852.59	383.912
1852.84	369.509
1853.1	348.382
1853.35	385.82
1853.6	356.99
1853.85	379.991
1854.1	347.281
1854.35	375.012
1854.6	371.052
1854.86	354.643
1855.11	386.229
1855.36	362.202
1855.61	343.886
1855.86	385.929
1856.11	372.445
1856.36	379.116
1856.61	359.94
1856.87	341.741
1857.12	371.43
1857.37	365.666
1857.62	356.057
1857.87	355.056
1858.12	354.055
1858.37	354.956
1858.63	366.369
1858.88	372.984
1859.13	368.113
1859.38	370.892
1859.63	370.796
1859.88	358.302
1860.13	381.237
1860.38	360.206
1860.63	362.14
1860.89	364.121
1861.14	358.445
1861.39	367.107
1861.64	399.706
1861.89	383.502
1862.14	360.555
1862.39	368.191
1862.64	351.87
1862.9	370.926
1863.15	357.448
1863.4	375.529
1863.65	360.147
1863.9	374.404
1864.15	391.53
1864.4	335.092
1864.65	368.464
1864.9	359.803
1865.15	375.004
1865.4	346.27
1865.66	364.298
1865.91	373.715
1866.16	353.546
1866.41	360.069
1866.66	334.188
1866.91	354.048
1867.16	358.659
1867.41	367.076
1867.66	370.741
1867.91	353.514
1868.16	355.353
1868.41	370.524
1868.67	372.399
1868.92	350.539
1869.17	359.114
1869.42	352.455
1869.67	361.943
1869.92	368.574
1870.17	355.244
1870.42	388.493
1870.67	368.513
1870.92	348.539
1871.17	373.241
1871.42	350.425
1871.67	377.958
1871.92	375.064
1872.17	354.098
1872.42	355.955
1872.68	354.019
1872.93	350.155
1873.18	362.426
1873.43	380.413
1873.68	342.423
1873.93	369.923
1874.18	363.226
1874.43	341.332
1874.68	362.127
1874.93	351.603
1875.18	388.493
1875.43	368.478
1875.68	355.106
1875.93	389.084
1876.18	349.1
1876.43	337.612
1876.68	359.271
1876.93	362.022
1877.18	374.265
1877.43	363.678
1877.68	348.34
1877.93	348.885
1878.18	365.226
1878.44	362.763
1878.69	341.43
1878.93	346.954
1879.19	365.83
1879.44	384.17
1879.69	377.715
1879.94	371.917
1880.19	357.6
1880.44	341.486
1880.69	348.09
1880.94	350.062
1881.19	329.154
1881.44	379.312
1881.69	364.959
1881.94	378.02
1882.19	342.85
1882.44	353.059
1882.69	387.794
1882.94	355.438
1883.19	373.26
1883.44	351.305
1883.69	356.485
1883.94	353.994
1884.19	359.665
1884.44	365.347
1884.69	358.02
1884.94	375.736
1885.19	379.649
1885.44	369.468
1885.69	361.029
1885.94	374.286
1886.19	346.147
1886.44	356.615
1886.69	328.337
1886.94	351.913
1887.19	363.092
1887.44	343.191
1887.69	363.868
1887.94	366.608
1888.19	366.513
1888.44	352.267
1888.69	358.725
1888.94	383.094
1889.19	341.531
1889.44	370.612
1889.69	375.256
1889.94	367.711
1890.19	374.282
1890.44	370.551
1890.69	345.212
1890.94	378.256
1891.19	338.722
1891.43	341.535
1891.68	357.513
1891.94	346.205
1892.18	349.007
1892.43	362.171
1892.68	352.741
1892.93	361.163
1893.18	351.674
1893.43	365.662
1893.68	344.768
1893.93	368.098
1894.18	360.534
1894.43	354.012
1894.68	366.098
1894.93	349.121
1895.18	350.033
1895.43	345.345
1895.68	365.101
1895.93	355.742
1896.18	356.723
1896.43	380.267
1896.68	362.468
1896.93	355.017
1897.18	361.66
1897.42	363.588
1897.68	361.741
1897.92	374.927
1898.17	349.527
1898.42	351.387
1898.67	366.393
1898.92	359.747
1899.17	353.083
1899.42	380.249
1899.67	351.985
1899.92	351.007
1900.17	350.022
1900.42	354.674
1900.67	346.208
1900.92	366.885
1901.16	343.435
1901.41	349.13
1901.66	349.203
1901.91	356.791
1902.16	366.266
1902.41	360.71
1902.66	365.491
1902.91	359.851
1903.16	351.355
1903.41	365.426
1903.66	351.276
1903.91	355.946
1904.16	369.086
1904.41	373.769
1904.65	345.552
1904.9	378.445
1905.15	343.64
1905.4	364.308
1905.65	384.043
1905.9	348.301
1906.15	363.238
1906.4	358.416
1906.65	364.002
1906.9	335.783
1907.14	362.982
1907.39	379.858
1907.64	337.605
1907.89	356.406
1908.14	332.033
1908.39	334.914
1908.64	362.187
1908.89	352.812
1909.14	366.944
1909.39	369.821
1909.63	352.976
1909.88	352.125
1910.13	357.874
1910.38	357.052
1910.63	360
1910.88	362.936
1911.13	347.009
1911.38	357.424
1911.62	358.402
1911.87	372.546
1912.12	367.833
1912.37	369.692
1912.62	360.248
1912.87	340.461
1913.12	348.936
1913.37	381.902
1913.61	372.497
1913.86	379.148
1914.11	367.007
1914.36	371.837
1914.61	347.41
1914.86	347.482
1915.11	353.217
1915.36	336.305
1915.6	374.096
1915.85	359.02
1916.1	364.673
1916.35	371.248
1916.6	373.115
1916.85	372.118
1917.1	352.232
1917.34	354.056
1917.59	353.061
1917.84	362.452
1918.09	356.774
1918.34	356.783
1918.59	354.004
1918.83	369.173
1919.08	349.461
1919.33	370.327
1919.58	382.718
1919.83	359.268
1920.08	368.843
1920.33	408.598
1920.57	363.261
1920.82	355.66
1921.07	352.849
1921.32	354.83
1921.57	354.924
1921.81	344.577
1922.06	372.996
1922.31	360.734
1922.56	377.759
1922.81	344.629
1923.06	376.725
1923.31	356.817
1923.55	352.056
1923.8	368.097
1924.05	368.063
1924.3	351.945
1924.55	369.834
1924.79	360.341
1925.04	359.382
1925.29	340.501
1925.54	354.719
1925.79	360.465
1926.04	351.121
1926.28	353.11
1926.53	326.715
1926.78	354.245
1927.03	377.072
1927.28	369.577
1927.52	351.644
1927.77	366.845
1928.02	362.156
1928.27	352.725
1928.52	371.71
1928.76	391.632
1929.01	359.468
1929.26	377.52
1929.51	364.311
1929.76	358.704
1930	361.66
1930.25	343.73
1930.5	380.841
1930.75	395.17
1931	371.542
1931.24	334.543
1931.49	366.834
1931.74	366.806
1931.99	358.214
1932.24	366.709
1932.48	367.606
1932.73	369.453
1932.98	365.601
1933.23	382.661
1933.47	361.741
1933.72	359.866
1933.97	366.612
1934.22	390.526
1934.46	352.78
1934.71	346.437
1934.96	352.443
1935.21	373.658
1935.46	366.263
1935.7	346.42
1935.95	357.982
1936.2	377.762
1936.45	356.756
1936.69	386.277
1936.94	366.217
1937.19	381.385
1937.44	373.672
1937.68	353.597
1937.93	359.235
1938.18	362.025
1938.43	366.71
1938.68	360.996
1938.92	363.026
1939.17	367.83
1939.42	352.649
1939.67	355.566
1939.91	373.711
1940.16	367.104
1940.41	367.119
1940.66	354.819
1940.9	371.111
1941.15	358.002
1941.4	342.871
1941.64	350.505
1941.89	370.497
1942.14	363.688
1942.39	373.003
1942.63	369.324
1942.88	367.793
1943.13	361.196
1943.38	351.662
1943.62	378.246
1943.87	348.5
1944.12	358.871
1944.37	354.327
1944.61	347.721
1944.86	381.211
1945.11	392.759
1945.35	357.512
1945.6	394.864
1945.85	355.777
1946.1	351.076
1946.34	358.791
1946.59	361.714
1946.84	370.362
1947.09	356.038
1947.33	373.246
1947.58	382.778
1947.83	357.876
1948.07	341.612
1948.32	361.689
1948.57	370.292
1948.82	354.008
1949.06	373.149
1949.31	358.871
1949.56	357.987
1949.8	368.588
1950.05	353.369
1950.3	347.718
1950.54	354.568
1950.79	361.438
1951.04	344.314
1951.29	350.201
1951.53	347.468
1951.78	353.358
1952.03	364.025
1952.27	376.579
1952.52	372.795
1952.77	363.251
1953.01	378.604
1953.26	357.54
1953.51	356.67
1953.76	359.453
1954	345.874
1954.25	351.409
1954.49	373.271
1954.74	365.405
1954.99	360.448
1955.24	373.808
1955.48	369.005
1955.73	385.337
1955.98	374.9
1956.22	369.309
1956.47	366.692
1956.72	353.36
1956.96	356.355
1957.21	373.7
1957.46	356.501
1957.7	383.474
1957.95	368.174
1958.2	346.125
1958.44	345.199
1958.69	370.214
1958.94	354.854
1959.18	364.437
1959.43	373.015
1959.68	368.173
1959.92	363.355
1960.17	339.283
1960.42	377.65
1960.66	383.355
1960.91	354.483
1961.16	376.498
1961.4	366.832
1961.65	367.736
1961.9	347.546
1962.14	365.791
1962.39	380.208
1962.63	346.631
1962.88	348.566
1963.13	375.457
1963.37	399.47
1963.62	344.767
1963.87	332.3
1964.11	372.638
1964.36	381.326
1964.61	376.566
1964.85	368.878
1965.1	348.685
1965.35	364.056
1965.59	358.281
1965.84	357.328
1966.08	361.206
1966.33	350.71
1966.58	369.042
1966.82	372.008
1967.07	348.039
1967.32	349.045
1967.56	349.995
1967.81	373.067
1968.05	384.636
1968.3	384.651
1968.55	380.823
1968.79	341.399
1969.04	352.903
1969.29	358.608
1969.53	356.597
1969.78	346.879
1970.02	349.649
1970.27	371.639
1970.52	345.647
1970.76	367.671
1971.01	353.213
1971.25	354.119
1971.5	338.73
1971.75	365.554
1971.99	352.098
1972.24	368.43
1972.48	345.443
1972.73	368.485
1972.98	365.603
1973.22	363.653
1973.47	368.388
1973.71	368.306
1973.96	373.032
1974.21	372.982
1974.45	367.199
1974.7	346.098
1974.94	361.435
1975.19	361.448
1975.44	360.52
1975.68	370.154
1975.93	353.909
1976.17	352.997
1976.42	378.931
1976.66	365.527
1976.91	365.54
1977.16	360.746
1977.4	369.368
1977.65	373.18
1977.89	349.161
1978.14	369.244
1978.39	359.596
1978.63	345.167
1978.88	376.761
1979.12	354.692
1979.37	367.152
1979.61	373.873
1979.86	347.036
1980.1	361.429
1980.35	352.807
1980.6	366.192
1980.84	346.96
1981.09	368.94
1981.33	341.123
1981.58	340.116
1981.82	346.784
1982.07	369.747
1982.31	374.522
1982.56	353.438
1982.81	343.806
1983.05	347.578
1983.3	362.811
1983.54	364.618
1983.79	372.192
1984.03	378.852
1984.28	357.78
1984.52	388.352
1984.77	352.926
1985.02	358.633
1985.26	357.617
1985.51	346.053
1985.75	370.86
1986	363.215
1986.24	338.385
1986.49	369.023
1986.73	347.093
1986.98	351.904
1987.22	359.54
1987.47	373.91
1987.71	348.987
1987.96	352.709
1988.21	384.123
1988.45	357.234
1988.7	356.122
1988.94	355.871
1989.19	347.871
1989.43	367.54
1989.68	356.318
1989.92	358.946
1990.17	360.042
1990.41	348.681
1990.66	350.606
1990.9	368.973
1991.15	358.455
1991.39	366.551
1991.64	354.787
1991.88	342.67
1992.13	366.787
1992.37	343.06
1992.62	354.503
1992.86	349.931
1993.11	363.367
1993.35	360.386
1993.6	356.967
1993.84	349.601
1994.09	361.219
1994.33	359.16
1994.58	356.949
1994.82	373.791
1995.07	351.428
1995.31	352.874
1995.56	342.335
1995.8	368.138
1996.05	344.663
1996.29	359.038
1996.54	346.642
1996.78	340.767
1997.03	354.18
1997.27	368.804
1997.52	359.387
1997.76	356.187
1998.01	354.311
1998.25	362.721
1998.5	349.269
1998.74	361.862
1998.99	357.08
1999.23	350.37
1999.48	364.9
1999.72	350.775
1999.97	338.446
2000.21	340.788
2000.46	355.471
2000.7	350.258
2000.95	340.937
2001.19	351.287
2001.43	357.567
2001.68	351.094
2001.92	354.665
2002.17	356.731
2002.41	349.894
2002.66	348.951
2002.9	338.734
2003.15	351.647
2003.39	356.823
2003.64	352.351
2003.88	341.922
2004.13	343.625
2004.37	352.949
2004.61	354.5
2004.86	353.115
2005.1	356.444
2005.35	344.463
2005.59	342.192
2005.84	344.094
2006.08	348.432
2006.33	352.208
2006.57	361.433
2006.81	372.652
2007.06	362.325
2007.3	363.945
2007.55	360.185
2007.79	362.313
2008.04	351.801
2008.28	343.468
2008.53	358.994
2008.77	360.93
2009.01	357.622
2009.26	346.435
2009.5	347.759
2009.75	344.669
2009.99	351.815
2010.24	345.094
2010.48	349.392
2010.73	362.239
2010.97	343.64
2011.21	356.516
2011.46	348.33
2011.7	363.981
2011.95	369.354
2012.19	338.322
2012.43	357.421
2012.68	334.792
2012.92	328.175
2013.17	340.343
2013.42	359.984
2013.67	352.278
2013.91	375.682
2014.16	352.044
2014.41	355.644
2014.66	364.844
2014.9	337.454
2015.15	371.192
2015.4	343.054
2015.64	362.811
2015.89	350.669
2016.14	361.038
2016.39	345.977
2016.63	362.029
2016.88	330.346
2017.13	374.568
2017.37	341.65
2017.62	386.702
2017.87	343.395
2018.11	349.862
2018.36	368.502
2018.61	341.133
2018.86	343.82
2019.1	360.572
2019.35	343.554
2019.6	350.923
2019.84	346.17
2020.09	335.816
2020.34	341.408
2020.58	330.161
2020.83	368.543
2021.08	332.003
2021.33	339.514
2021.57	341.408
2021.82	346.092
2022.07	344.201
2022.31	336.676
2022.56	353.482
2022.81	344.051
2023.05	346.774
2023.3	364.453
2023.55	334.437
2023.8	334.362
2024.04	366.081
2024.29	347.302
2024.54	368.731
2024.78	334.97
2025.03	352.6
2025.27	316.997
2025.52	356.101
2025.77	351.328
2026.02	348.432
2026.26	331.521
2026.51	362.332
2026.76	359.668
2027	342.158
2027.25	360.174
2027.5	338.04
2027.74	348.514
2027.99	355.015
2028.23	363.203
2028.48	337.643
2028.73	367.455
2028.98	362.837
2029.22	341.677
2029.47	355.021
2029.72	407.799
2029.96	353.794
2030.21	342.197
2030.45	369.787
2030.7	364.169
2030.95	352.685
2031.19	356.674
2031.44	350.354
2031.69	356.831
2031.93	351.234
2032.18	361.508
2032.43	342.013
2032.67	357.065
2032.92	340.384
2033.17	342.365
2033.41	342.454
2033.66	343.459
2033.91	350.106
2034.15	340.804
2034.4	335.016
2034.64	352.535
2034.89	355.904
2035.14	348.347
2035.38	333.563
2035.63	348.615
2035.87	345.078
2036.12	342.526
2036.37	343.637
2036.61	333.333
2036.86	335.962
2037.11	335.971
2037.35	346.338
2037.6	359.425
2037.84	371.561
2038.09	350.021
2038.34	349.041
2038.58	367.684
2038.83	340.524
2039.08	328.321
2039.32	349.754
2039.57	357.165
2039.81	351.499
2040.06	358.889
2040.31	364.386
2040.55	354.019
2040.8	341.798
2041.04	362.233
2041.29	349.102
2041.54	344.377
2041.78	353.671
2042.03	356.445
2042.27	352.667
2042.52	344.236
2042.77	352.548
2043.01	366.494
2043.26	331.087
2043.5	339.502
2043.75	356.371
2044	358.379
2044.24	334.275
2044.49	329.661
2044.73	337.108
2044.98	355.68
2045.23	381.62
2045.47	350.539
2045.72	348.174
2045.96	343.618
2046.21	369.335
2046.45	353.098
2046.7	344.379
2046.95	354.318
2047.19	355.92
2047.44	359.668
2047.68	352.095
2047.93	342.486
2048.17	340.548
2048.42	366.664
2048.67	353.629
2048.91	324.75
2049.16	362.081
2049.4	363.108
2049.65	351.058
2049.89	359.557
2050.14	335.418
2050.39	355.119
2050.63	351.484
2050.88	338.461
2051.12	344.083
2051.37	335.653
2051.61	334.65
2051.86	332.683
2052.11	347.618
2052.35	345.758
2052.6	331.802
2052.84	341.156
2053.09	346.801
2053.33	346.857
2053.58	348.795
2053.82	357.297
2054.07	382.716
2054.31	354.73
2054.56	359.454
2054.8	360.402
2055.05	347.297
2055.3	348.214
2055.54	341.641
2055.79	320.051
2056.03	352.738
2056.28	334.021
2056.52	362.97
2056.77	343.299
2057.01	342.342
2057.26	348.882
2057.5	354.507
2057.75	350.795
2058	359.253
2058.24	361.179
2058.49	335.047
2058.73	341.679
2058.98	365.15
2059.22	363.355
2059.47	338.138
2059.71	345.648
2059.96	356.901
2060.2	336.312
2060.45	340.949
2060.69	338.089
2060.94	355.833
2061.18	353.067
2061.43	331.588
2061.67	347.538
2061.92	347.553
2062.16	372.84
2062.41	331.655
2062.65	366.325
2062.9	353.253
2063.14	345.811
2063.39	344
2063.63	347.806
2063.88	379.714
2064.12	349.766
2064.37	339.486
2064.61	357.323
2064.86	357.365
2065.1	350.855
2065.35	346.248
2065.59	359.489
2065.84	332.375
2066.08	369.064
2066.33	352.239
2066.57	342.898
2066.82	349.486
2067.06	345.767
2067.31	344.867
2067.55	347.715
2067.8	327.093
2068.04	345.94
2068.29	339.41
2068.53	368.583
2068.78	353.566
2069.02	352.68
2069.27	363.965
2069.51	352.632
2069.76	360.048
2070	362.707
2070.25	345.74
2070.49	354.226
2070.73	338.401
2070.98	332.933
2071.22	346.276
2071.47	385.753
2071.71	341.444
2071.96	375.729
2072.2	338.213
2072.45	354.197
2072.69	349.462
2072.94	356.984
2073.18	353.186
2073.43	348.477
2073.67	355.048
2073.92	350.356
2074.16	359.783
2074.4	328.731
2074.65	369.262
2074.89	357.088
2075.14	331.745
2075.38	363.906
2075.63	356.526
2075.87	354.829
2076.12	347.408
2076.36	348.417
2076.6	371.082
2076.85	346.553
2077.09	360.674
2077.34	342.667
2077.58	357.684
2077.83	351.859
2078.07	374.45
2078.31	350.917
2078.56	331.184
2078.8	343.478
2079.05	351.056
2079.29	364.318
2079.54	335.145
2079.78	341.915
2080.03	356.152
2080.27	349.601
2080.51	348.713
2080.76	340.254
2081	356.324
2081.25	352.507
2081.49	348.702
2081.74	352.47
2081.98	341.128
2082.22	342.06
2082.47	374.212
2082.71	372.351
2082.96	342.132
2083.2	344.974
2083.45	341.188
2083.69	357.237
2083.93	394.075
2084.18	340.214
2084.42	342.108
2084.67	351.553
2084.91	347.779
2085.15	355.35
2085.4	338.342
2085.64	366.691
2085.89	363.857
2086.13	337.42
2086.37	369.649
2086.62	341.399
2086.86	360.397
2087.11	373.676
2087.35	367.1
2087.59	360.537
2087.84	355.841
2088.08	345.433
2088.32	353.01
2088.57	355.858
2088.81	350.195
2089.06	357.786
2089.3	350.231
2089.54	338.925
2089.79	371.177
2090.03	340.968
2090.28	346.684
2090.52	369.437
2090.76	349.569
2091.01	347.706
2091.25	365.749
2091.5	337.359
2091.74	348.769
2091.98	361.184
2092.23	366.032
2092.47	342.434
2092.72	377.657
2092.96	373.044
2093.2	360.801
2093.45	360.892
2093.69	338.184
2093.93	350.621
2094.18	342.139
2094.42	352.662
2094.66	362.19
2094.91	360.288
2095.15	348.861
2095.39	371.651
2095.64	350.677
2095.88	343.959
2096.13	359.112
2096.37	368.571
2096.61	345.743
2096.86	367.579
2097.1	380.862
2097.34	362.764
2097.59	342.749
2097.83	356.92
2098.07	354.042
2098.32	379.653
2098.56	340.714
2098.8	365.342
2099.05	355.85
2099.29	346.35
2099.53	384.291
2099.78	361.497
2100.02	343.459
2100.27	360.544
2100.51	355.809
2100.75	365.32
2101	359.661
2101.24	349.306
2101.48	364.569
2101.73	349.419
2101.97	366.537
2102.21	343.741
2102.45	363.678
2102.7	340.885
2102.94	365.557
2103.18	365.497
2103.43	340.736
2103.67	345.444
2103.92	334.042
2104.16	340.667
2104.4	334.978
2104.64	361.587
2104.89	364.492
2105.13	357.899
2105.37	354.15
2105.62	355.163
2105.86	348.592
2106.1	349.61
2106.35	375.311
2106.59	356.338
2106.83	362.06
2107.08	340.21
2107.32	344.995
2107.56	364.973
2107.8	350.672
2108.05	347.752
2108.29	374.268
2108.53	378.913
2108.78	340.82
2109.02	359.737
2109.26	353.061
2109.51	381.561
2109.75	334.171
2109.99	334.239
2110.23	347.542
2110.48	352.293
2110.72	341.842
2110.96	345.64
2111.21	356.09
2111.45	350.386
2111.69	345.612
2111.93	345.564
2112.18	358.823
2112.42	356.902
2112.66	367.345
2112.91	365.482
2113.15	386.416
2113.39	359.863
2113.63	345.699
2113.88	340.068
2114.12	362.913
2114.36	353.386
2114.61	360.007
2114.85	376.154
2115.09	357.164
2115.33	350.519
2115.58	369.506
2115.82	349.518
2116.06	356.141
2116.31	358.961
2116.55	364.587
2116.79	356.917
2117.03	340.739
2117.28	342.62
2117.52	334.059
2117.76	360.662
2118	355.876
2118.25	335.882
2118.49	348.165
2118.73	354.715
2118.97	347.967
2119.22	350.732
2119.46	351.605
2119.7	356.27
2119.94	351.456
2120.19	337.175
2120.43	374.08
2120.67	363.637
2120.91	345.643
2121.16	370.341
2121.4	347.628
2121.64	361.927
2121.88	355.378
2122.13	363.993
2122.37	361.223
2122.61	343.262
2122.85	348.06
2123.1	345.259
2123.34	350.045
2123.58	370.01
2123.82	378.569
2124.07	369.994
2124.31	343.374
2124.55	341.416
2124.79	375.483
2125.03	339.292
2125.28	359.035
2125.52	348.451
2125.76	353.066
2126	371.895
2126.25	350.958
2126.49	354.651
2126.73	350.79
2126.97	358.283
2127.21	345.908
2127.46	359.073
2127.7	342.021
2127.94	340.112
2128.18	345.763
2128.43	377.865
2128.67	375.95
2128.91	373.115
2129.15	365.554
2129.39	356.086
2129.64	357.947
2129.88	356.976
2130.12	328.608
2130.36	358.831
2130.6	365.423
2130.85	325.709
2131.09	349.296
2131.33	336.027
2131.57	343.532
2131.81	367.087
2132.06	347.204
2132.3	353.779
2132.54	345.24
2132.78	346.115
2133.02	344.162
2133.27	331.861
2133.51	362.995
2133.75	376.22
2133.99	359.248
2134.23	359.251
2134.48	355.491
2134.72	359.277
2134.96	335.673
2135.2	346.987
2135.44	351.694
2135.68	336.577
2135.93	358.244
2136.17	357.238
2136.41	357.127
2136.65	357.961
2136.89	336.225
2137.14	357.922
2137.38	352.28
2137.62	355.114
2137.86	348.552
2138.1	361.831
2138.34	354.258
2138.59	369.239
2138.83	356.906
2139.07	337.174
2139.31	359.916
2139.55	364.717
2139.79	334.363
2140.03	361.565
2140.28	347.366
2140.52	343.544
2140.76	341.615
2141	355.705
2141.24	359.444
2141.49	342.462
2141.73	354.709
2141.97	355.578
2142.21	347.024
2142.45	350.757
2142.69	363.935
2142.93	364.006
2143.18	360.296
2143.42	348.341
2143.66	362.331
2143.9	349.2
2144.14	360.474
2144.38	334.225
2144.62	335.283
2144.87	346.684
2145.11	342.991
2145.35	345.611
2145.59	325.895
2145.83	347.535
2146.07	362.558
2146.31	337.143
2146.55	354.034
2146.8	359.644
2147.04	349.275
2147.28	345.479
2147.52	358.585
2147.76	344.442
2148	372.582
2148.24	379.117
2148.48	357.469
2148.73	356.487
2148.97	351.744
2149.21	365.771
2149.45	367.572
2149.69	353.406
2149.93	360.761
2150.17	327.852
2150.42	348.387
2150.66	349.252
2150.9	346.403
2151.14	331.399
2151.38	331.426
2151.62	349.295
2151.86	343.704
2152.1	340.944
2152.34	354.097
2152.58	348.519
2152.83	335.335
2153.07	351.228
2153.31	344.599
2153.55	333.291
2153.79	357.632
2154.03	351.037
2154.27	373.466
2154.51	340.584
2154.75	343.275
2154.99	354.36
2155.24	325.209
2155.48	354.99
2155.72	338.98
2155.96	351.963
2156.2	350.936
2156.44	364.882
2156.68	372.316
2156.92	333.064
2157.16	366.683
2157.4	344.265
2157.64	320
2157.89	355.549
2158.13	357.483
2158.37	348.194
2158.61	368.772
2158.85	361.291
2159.09	369.685
2159.33	348.156
2159.57	330.356
2159.81	354.593
2160.05	347.047
2160.29	333.885
2160.53	353.406
2160.77	359.861
2161.01	328.057
2161.25	333.619
2161.5	367.192
2161.74	351.295
2161.98	335.4
2162.22	355.91
2162.46	349.378
2162.7	357.775
2162.94	353.103
2163.18	354.003
2163.42	350.224
2163.66	341.791
2163.9	342.687
2164.14	360.364
2164.38	337.012
2164.62	335.074
2164.86	343.371
2165.11	339.587
2165.35	349.848
2165.59	348.019
2165.83	352.682
2166.07	367.596
2166.31	348.962
2166.55	342.397
2166.79	344.222
2167.03	346.032
2167.27	352.48
2167.51	336.596
2167.75	345.826
2167.99	336.414
2168.23	365.085
2168.47	364.921
2168.71	336.042
2168.95	337.892
2169.19	357.435
2169.43	352.833
2169.67	329.654
2169.91	340.91
2170.15	349.404
2170.39	342.091
2170.63	349.618
2170.87	341.266
2171.11	330.998
2171.35	349.553
2171.59	350.451
2171.83	349.377
2172.07	356.568
2172.31	338.772
2172.56	348.93
2172.79	364.665
2173.04	360.897
2173.28	345.091
2173.51	353.447
2173.76	372.022
2174	344.174
2174.24	339.572
2174.48	327.521
2174.72	347.053
2174.96	349.845
2175.2	351.7
2175.44	335.893
2175.68	346.092
2175.92	360.937
2176.16	353.49
2176.4	342.32
2176.64	342.29
2176.88	345.951
2177.12	358.933
2177.36	377.511
2177.6	355.226
2177.84	352.444
2178.08	331.999
2178.32	334.798
2178.55	343.125
2178.8	346.745
2179.03	355.959
2179.28	364.304
2179.52	363.391
2179.75	336.47
2180	347.615
2180.23	336.47
2180.47	340.181
2180.71	362.454
2180.95	350.36
2181.19	352.193
2181.43	375.391
2181.67	361.442
2181.91	351.188
2182.15	363.212
2182.39	335.351
2182.63	357.575
2182.87	364.035
2183.11	351.011
2183.35	337.956
2183.59	352.715
2183.83	333.143
2184.07	370.145
2184.31	360.818
2184.55	344.086
2184.79	349.628
2185.03	361.685
2185.27	339.479
2185.51	364.527
2185.75	358.067
2185.99	373.869
2186.23	334.066
2186.47	335.054
2186.7	354.589
2186.95	331.497
2187.18	339.949
2187.42	369.754
2187.66	353.148
2187.9	357.868
2188.14	334.668
2188.38	354.134
2188.62	362.428
2188.86	340.076
2189.1	359.493
2189.34	351.982
2189.58	363.944
2189.82	341.565
2190.06	361.866
2190.3	351.62
2190.54	358.093
2190.78	359.028
2191.01	368.329
2191.25	336.836
2191.49	342.398
2191.73	359.108
2191.97	347.083
2192.21	341.549
2192.45	335.087
2192.69	357.375
2192.93	344.42
2193.17	351.9
2193.41	354.746
2193.65	359.444
2193.89	320.535
2194.13	348.535
2194.36	336.625
2194.6	340.453
2194.84	341.443
2195.08	347.002
2195.32	348.819
2195.56	344.136
2195.8	350.586
2196.04	337.502
2196.28	358.768
2196.52	341.929
2196.76	368.736
2197	335.236
2197.23	361.149
2197.47	361.088
2197.71	347.121
2197.95	344.34
2198.19	356.407
2198.43	338.82
2198.67	338.901
2198.91	347.341
2199.15	364.156
2199.38	341.993
2199.62	350.454
2199.86	344.995
2200.1	331.165
2200.34	379.69
2200.58	336.156
2200.82	345.624
2201.06	328.069
2201.3	356.118
2201.54	348.75
2201.77	344.878
2202.01	363.135
2202.25	379.075
2202.49	363.692
2202.73	369.492
2202.97	345.04
2203.21	347.173
2203.45	347.074
2203.68	342.352
2203.92	353.819
2204.16	364.302
2204.4	338.674
2204.64	347.971
2204.88	369.48
2205.12	349.655
2205.36	373.549
2205.59	348.131
2205.83	346.076
2206.07	373.914
2206.31	344.171
2206.55	338.671
2206.79	363.791
2207.03	350.64
2207.26	356.24
2207.5	365.592
2207.74	342.409
2207.98	367.597
2208.22	349.068
2208.46	340.767
2208.7	345.491
2208.93	354.864
2209.17	377.263
2209.41	357.747
2209.65	327.036
2209.89	344.733
2210.13	367.074
2210.36	362.43
2210.6	375.518
2210.84	358.803
2211.08	378.428
2211.32	361.716
2211.56	345.927
2211.8	348.782
2212.03	355.385
2212.27	362.923
2212.51	357.381
2212.75	352.744
2212.99	344.325
2213.23	353.617
2213.46	375.033
2213.7	368.446
2213.94	365.583
2214.18	362.807
2214.42	339.565
2214.66	370.494
2214.89	343.572
2215.13	352.944
2215.37	338.972
2215.61	351.131
2215.85	357.683
2216.08	367.028
2216.32	360.495
2216.56	350.22
2216.8	354.878
2217.04	352.995
2217.28	339.911
2217.51	352.98
2217.75	361.397
2217.99	358.613
2218.23	353.943
2218.47	359.541
2218.7	355.822
2218.94	349.322
2219.18	339.098
2219.42	335.422
2219.66	331.748
2219.9	369.161
2220.13	341.172
2220.37	339.338
2220.61	345.872
2220.85	346.791
2221.09	366.404
2221.32	345.809
2221.56	354.135
2221.8	338.162
2222.04	316.61
2222.27	360.429
2222.51	351.048
2222.75	347.304
2222.99	357.599
2223.23	343.646
2223.46	339.028
2223.7	358.7
2223.94	363.457
2224.18	357.958
2224.42	338.439
2224.65	350.693
2224.89	335.816
2225.13	348.052
2225.37	350.935
2225.6	358.511
2225.84	354.869
2226.08	360.568
2226.32	366.265
2226.56	347.608
2226.79	348.6
2227.03	339.303
2227.27	340.307
2227.51	336.611
2227.74	361.033
2227.98	372.311
2228.22	345.107
2228.46	335.704
2228.69	350.682
2228.93	349.721
2229.17	339.39
2229.41	347.809
2229.64	351.558
2229.88	354.431
2230.12	356.401
2230.36	356.488
2230.6	334.972
2230.83	365.069
2231.07	353.88
2231.31	351.14
2231.55	378.457
2231.78	348.491
2232.02	361.713
2232.26	353.329
2232.5	324.261
2232.73	358.171
2232.97	341.312
2233.21	349.842
2233.45	356.491
2233.68	346.208
2233.92	336.863
2234.16	340.677
2234.39	339.774
2234.63	335.05
2234.87	361.376
2235.11	342.511
2235.34	347.154
2235.58	336.685
2235.82	347.883
2236.06	352.592
2236.29	351.667
2236.53	347.926
2236.77	340.422
2237	346.079
2237.24	340.455
2237.48	358.413
2237.72	334.022
2237.95	368.984
2238.19	359.722
2238.43	347.612
2238.67	342.054
2238.9	342.145
2239.14	352.623
2239.38	331.999
2239.61	348.061
2239.85	347.087
2240.09	354.587
2240.33	345.058
2240.56	346.86
2240.8	338.335
2241.04	346.968
2241.27	357.479
2241.51	341.464
2241.75	362.245
2241.99	350.007
2242.22	347.199
2242.46	346.286
2242.7	344.437
2242.93	340.705
2243.17	373.755
2243.41	341.644
2243.64	356.701
2243.88	353.816
2244.12	336.803
2244.36	387.753
2244.59	333.03
2244.83	339.689
2245.07	337.902
2245.3	340.874
2245.54	351.394
2245.78	350.532
2246.01	337.368
2246.25	369.589
2246.49	375.339
2246.72	354.595
2246.96	340.441
2247.2	348.062
2247.43	338.653
2247.67	366.135
2247.91	358.58
2248.14	349.112
2248.38	329.219
2248.62	359.483
2248.85	336.75
2249.09	351.872
2249.33	352.799
2249.56	345.215
2249.8	335.813
2250.04	352.891
2250.27	357.62
2250.51	344.327
2250.75	350.884
2250.98	329.054
2251.22	344.108
2251.46	365.793
2251.69	360.069
2251.93	332.632
2252.17	356.282
2252.4	354.431
2252.64	345.029
2252.88	335.641
2253.11	351.835
2253.35	357.708
2253.59	346.48
2253.82	360.796
2254.06	335.296
2254.3	365.69
2254.53	344.905
2254.77	355.383
2255.01	339.271
2255.24	361.045
2255.48	358.219
2255.72	362.963
2255.95	350.65
2256.19	341.184
2256.42	345.985
2256.66	373.561
2256.9	348.959
2257.13	356.608
2257.37	351.924
2257.61	333.946
2257.84	355.836
2258.08	340.683
2258.32	346.401
2258.55	351.165
2258.79	353.089
2259.02	335.077
2259.26	355.075
2259.5	334.227
2259.73	349.464
2259.97	346.643
2260.2	347.634
2260.44	334.365
2260.68	352.46
2260.91	342.987
2261.15	347.796
2261.39	351.713
2261.62	314.684
2261.86	333.728
2262.1	349.925
2262.33	362.326
2262.57	352.842
2262.8	344.326
2263.04	354.872
2263.28	359.714
2263.51	331.235
2263.75	339.914
2263.98	361.957
2264.22	339.217
2264.46	362.241
2264.69	349.963
2264.93	343.384
2265.16	350.152
2265.4	333.036
2265.64	357.931
2265.87	340.75
2266.11	350.317
2266.34	345.514
2266.58	383.638
2266.81	346.313
2267.05	357.681
2267.29	365.238
2267.52	359.452
2267.76	341.273
2267.99	356.482
2268.23	342.097
2268.47	346.807
2268.7	358.229
2268.94	341.078
2269.17	361.153
2269.41	349.785
2269.65	327.934
2269.88	348.071
2270.12	346.267
2270.35	345.434
2270.59	335.991
2270.82	343.701
2271.06	340.879
2271.3	359.116
2271.53	329.544
2271.77	352.536
2272	358.325
2272.24	347.872
2272.47	356.519
2272.71	367.051
2272.95	353.675
2273.18	341.257
2273.42	334.58
2273.65	334.598
2273.89	349.929
2274.12	355.691
2274.36	347.097
2274.6	342.328
2274.83	362.448
2275.07	350.025
2275.3	356.752
2275.54	348.156
2275.77	347.223
2276.01	341.468
2276.24	362.586
2276.48	345.434
2276.72	355.102
2276.95	341.765
2277.18	340.877
2277.42	356.294
2277.66	351.618
2277.89	359.427
2278.13	340.374
2278.36	359.726
2278.6	348.257
2278.83	348.284
2279.07	359.815
2279.3	350.198
2279.54	348.255
2279.78	338.59
2280.01	352.834
2280.24	338.339
2280.48	351.677
2280.72	342.964
2280.95	354.404
2281.19	371.609
2281.42	344.732
2281.66	367.692
2281.89	354.24
2282.13	344.695
2282.36	342.804
2282.6	343.813
2282.83	356.349
2283.07	345.883
2283.3	359.395
2283.54	350.862
2283.77	330.841
2284.01	338.682
2284.24	357.085
2284.48	336.103
2284.71	355.429
2284.95	343.93
2285.19	354.594
2285.42	355.637
2285.65	347.004
2285.89	321.031
2286.12	350.79
2286.36	364.123
2286.59	341.99
2286.83	361.254
2287.06	340.15
2287.3	326.836
2287.54	346.223
2287.77	345.313
2288	345.352
2288.24	348.339
2288.47	338.68
2288.71	341.519
2288.94	326.059
2289.18	370.295
2289.41	342.265
2289.65	342.137
2289.88	342.019
2290.12	349.569
2290.35	325.485
2290.59	349.485
2290.82	347.565
2291.06	336.036
2291.29	350.51
2291.53	344.833
2291.76	353.609
2292	349.841
2292.23	331.616
2292.47	349.003
2292.7	342.331
2292.94	343.377
2293.17	393.548
2293.41	347.37
2293.64	327.186
2293.88	343.608
2294.11	361.942
2294.34	354.205
2294.58	338.744
2294.81	347.364
2295.05	350.188
2295.28	348.212
2295.52	339.497
2295.75	335.596
2295.99	346.141
2296.22	352.839
2296.46	341.207
2296.69	357.423
2296.93	355.479
2297.16	345.888
2297.39	335.353
2297.63	369.103
2297.86	354.747
2298.1	336.552
2298.33	350.155
2298.57	325.181
2298.8	338.72
2299.04	337.825
2299.27	353.34
2299.51	365.954
2299.74	350.588
2299.97	349.659
2300.21	343.866
2300.44	330.364
2300.68	350.613
2300.91	363.197
2301.15	354.576
2301.38	354.623
2301.61	368.177
2301.85	346.968
2302.08	338.288
2302.32	367.236
2302.55	350.795
2302.79	345.946
2303.02	354.642
2303.25	346.913
2303.49	341.104
2303.72	341.099
2303.96	344.966
2304.19	349.827
2304.43	341.2
2304.66	329.668
2304.89	339.363
2305.13	353.9
2305.36	345.274
2305.6	344.348
2305.83	334.705
2306.07	330.868
2306.3	355.071
2306.53	349.317
2306.77	355.132
2307	356.107
2307.24	366.734
2307.47	341.593
2307.7	351.226
2307.94	343.452
2308.17	347.291
2308.41	330.834
2308.64	337.57
2308.87	362.689
2309.11	354.01
2309.34	363.728
2309.58	356.059
2309.81	339.715
2310.04	356.264
2310.28	337.963
2310.51	337.997
2310.75	330.268
2310.98	350.574
2311.21	366.014
2311.45	353.356
2311.68	355.086
2311.92	345.197
2312.15	342.178
2312.38	344.987
2312.62	365.205
2312.85	362.246
2313.08	359.304
2313.32	353.51
2313.55	340.042
2313.79	330.494
2314.02	364.423
2314.25	349.076
2314.49	346.282
2314.72	375.386
2314.95	345.554
2315.19	339.868
2315.42	366.049
2315.66	334.034
2315.89	324.28
2316.12	333.883
2316.36	356.989
2316.59	339.405
2316.82	327.719
2317.06	369.192
2317.29	332.493
2317.52	332.511
2317.76	350.878
2317.99	338.416
2318.23	337.511
2318.46	334.498
2318.69	355.687
2318.93	329.57
2319.16	338.206
2319.39	326.566
2319.63	340.994
2319.86	326.482
2320.09	353.475
2320.33	355.407
2320.56	369.891
2320.79	344.8
2321.03	348.694
2321.26	359.365
2321.5	344.945
2321.73	347.907
2321.96	340.257
2322.2	335.525
2322.43	350.126
2322.66	341.519
2322.9	348.321
2323.13	363.773
2323.36	340.588
2323.6	351.249
2323.83	354.171
2324.06	344.526
2324.3	350.339
2324.53	361.928
2324.76	341.606
2325	336.688
2325.23	340.449
2325.46	365.443
2325.7	348.938
2325.93	341.144
2326.16	349.765
2326.4	336.178
2326.63	335.141
2326.86	380.414
2327.09	353.322
2327.33	330.097
2327.56	364.734
2327.79	356.966
2328.03	346.303
2328.26	343.372
2328.49	330.858
2328.73	353.029
2328.96	351.11
2329.19	373.204
2329.43	350.007
2329.66	345.096
2329.89	361.437
2330.13	333.49
2330.36	336.424
2330.59	357.59
2330.82	356.597
2331.06	331.524
2331.29	345.957
2331.52	352.723
2331.76	332.548
2331.99	334.53
2332.22	327.866
2332.46	363.42
2332.69	321.93
2332.92	339.217
2333.16	330.504
2333.39	353.566
2333.62	361.222
2333.85	340.968
2334.09	355.372
2334.32	342.812
2334.55	332.169
2334.79	353.244
2335.02	337.802
2335.25	343.537
2335.48	335.831
2335.72	340.62
2335.95	331.978
2336.18	336.81
2336.41	358.918
2336.65	348.302
2336.88	316.548
2337.11	342.494
2337.34	355.942
2337.58	331.888
2337.81	335.719
2338.04	359.723
2338.28	328.937
2338.51	345.263
2338.74	350.051
2338.97	344.274
2339.21	335.636
2339.44	353.907
2339.67	328.914
2339.91	362.545
2340.14	342.331
2340.37	344.21
2340.6	339.348
2340.84	354.659
2341.07	331.528
2341.3	337.196
2341.53	342.846
2341.77	335.997
2342	333.98
2342.23	339.673
2342.46	330.986
2342.7	337.646
2342.93	355.822
2343.16	353.883
2343.39	322.242
2343.63	334.707
2343.86	341.401
2344.09	331.801
2344.32	330.847
2344.56	346.208
2344.79	339.509
2345.02	327.037
2345.25	352.897
2345.49	363.402
2345.72	340.343
2345.95	340.253
2346.18	326.778
2346.41	324.801
2346.65	332.438
2346.88	338.164
2347.11	323.784
2347.34	359.181
2347.58	325.643
2347.81	341.912
2348.04	344.792
2348.27	347.686
2348.5	365.922
2348.74	341.052
2348.97	335.304
2349.2	348.679
2349.43	342.875
2349.67	342.728
2349.9	349.276
2350.13	339.538
2350.36	335.511
2350.59	349.587
2350.83	336.732
2351.06	350.286
2351.29	326.064
2351.52	354.927
2351.75	334.234
2351.99	339.277
2352.22	341.758
2352.45	344.653
2352.68	344.696
2352.91	329.219
2353.15	327.963
2353.38	335.349
2353.61	327.813
2353.84	347.789
2354.07	331.53
2354.31	326.772
2354.54	325.807
2354.77	332.557
2355	328.825
2355.23	345.966
2355.47	324.028
2355.7	340.196
2355.93	352.547
2356.16	334.407
2356.39	333.396
2356.63	337.096
2356.86	354.064
2357.09	344.415
2357.32	323.42
2357.55	343.333
2357.79	340.423
2358.02	335.619
2358.25	334.621
2358.48	345.989
2358.71	330.756
2358.94	329.734
2359.18	336.35
2359.41	323.026
2359.64	356.254
2359.87	330.565
2360.1	316.263
2360.33	346.576
2360.57	353.138
2360.8	332.178
2361.03	327.356
2361.26	322.535
2361.49	343.318
2361.72	335.647
2361.96	336.509
2362.19	346.844
2362.42	338.219
2362.65	350.441
2362.88	335.21
2363.11	346.502
2363.34	323.722
2363.58	331.242
2363.81	331.202
2364.04	338.734
2364.27	327.34
2364.5	316.887
2364.73	331.025
2364.97	327.192
