#Acq. time (s)=	40
#Accumulations=	2
#Range (cm-¹)=	1200...2365
#Windows=	3
#Auto scanning=	Off
#Autofocus=	Off
#Macrospot=	Off
#AutoExposure=	Off
#Spike filter=	Multiple accum.
#Delay time (s)=	2
#Binning=	1
#Readout mode=	Signal
#DeNoise=	Off
#ICS correction=	On
#Dark correction=	Off
#Inst. Process=	Off
#Detector Gain=	Best Dynamic
#Detector ADC=	50 kHz EM
#Detector EM gain=	400
#Detector temperature (°C)=	-60.09
#Instrument=	LabRAM HR Evol
#Detector=	SIN-EM FIVIS
#Objective=	x100_VIS_LWD
#Grating=	1800 (450-850nm)
#ND Filter=	100%
#Laser=	532nm_Edge
#Hole=	30.0125
#Temperature=	0
#Range=	Visible
#StageXY=	75x50mm Scan+
#StageZ=	Z motor
#X (µm)=	0
#Y (µm)=	0
#Z (µm)=	10.2
#Full time(mm:ss)=	4:24
#Project=	21_11_26
#Sample=	BU32
#Site=	
#Title=	BU32-A-incC-FI03-V_1800 (450-850nm)_532nm_Edge_100%_x100_VIS_LWD_H30um_40sX2
#Remark=	
#Date=	26.11.2021 18:11
#Acquired=	26.11.2021 18:11:05
1202.72	477.486
1203	516.949
1203.28	498.807
1203.56	508.201
1203.84	475.537
1204.11	455.953
1204.39	486.949
1204.67	459.024
1204.95	478.431
1205.23	455.766
1205.5	481.381
1205.78	480.11
1206.06	509.947
1206.34	462.49
1206.61	478.362
1206.89	471.706
1207.17	512.202
1207.45	467.018
1207.73	490.458
1208	490.341
1208.28	519.163
1208.56	510.496
1208.84	440.803
1209.11	477.049
1209.39	438.431
1209.67	475.8
1209.95	462.953
1210.23	461.843
1210.5	485.264
1210.78	477.584
1211.06	458.171
1211.34	466.565
1211.61	502.674
1211.89	447.048
1212.17	487.395
1212.45	485.076
1212.72	487.077
1213	480.543
1213.28	497.442
1213.56	463.266
1213.83	458.949
1214.11	474.822
1214.39	489.749
1214.67	474.863
1214.94	480.193
1215.22	496.16
1215.5	468.461
1215.78	467.374
1216.05	449.24
1216.33	485.309
1216.61	442.584
1216.89	468.978
1217.16	456.037
1217.44	460.148
1217.72	484.449
1218	460.946
1218.27	477.828
1218.55	474.538
1218.83	475.5
1219.1	483.935
1219.38	456.313
1219.66	485.979
1219.94	456.214
1220.21	446.588
1220.49	462.484
1220.77	479.457
1221.04	460.341
1221.32	494.23
1221.6	449.611
1221.88	467.553
1222.15	470.597
1222.43	444.989
1222.71	476.553
1222.98	464.674
1223.26	469.743
1223.54	430.407
1223.81	452.425
1224.09	464.946
1224.37	481.683
1224.65	446.719
1224.92	440.299
1225.2	430.74
1225.48	471.896
1225.76	483.567
1226.03	475.173
1226.31	462.563
1226.59	476.264
1226.86	493.124
1227.14	446.584
1227.42	480.282
1227.69	484.255
1227.97	472.198
1228.25	448.742
1228.52	477.961
1228.8	482.766
1229.08	445.619
1229.35	503.375
1229.63	460.379
1229.91	449.747
1230.18	465.143
1230.46	440.472
1230.74	496.137
1231.01	450.898
1231.29	443.264
1231.57	451.851
1231.84	454.036
1232.12	461.383
1232.4	432.997
1232.67	450.807
1232.95	451.847
1233.23	470.733
1233.5	443.375
1233.78	458.071
1234.06	453.894
1234.33	450.784
1234.61	463.438
1234.89	476.117
1235.16	443.614
1235.44	446.804
1235.71	492.048
1235.99	444.799
1236.27	459.556
1236.54	462.703
1236.82	456.338
1237.1	493.056
1237.37	414.133
1237.65	456.015
1237.93	465.304
1238.2	443.093
1238.48	470.218
1238.76	458.511
1239.03	445.8
1239.31	462.5
1239.58	446.711
1239.86	430.941
1240.14	463.408
1240.41	451.863
1240.69	420.416
1240.97	474.936
1241.24	476.01
1241.52	448.772
1241.79	448.732
1242.07	465.42
1242.35	437.074
1242.62	486.335
1242.9	454.926
1243.18	472.809
1243.45	451.907
1243.73	440.371
1244	429.892
1244.28	460.323
1244.56	445.642
1244.83	438.276
1245.11	453.955
1245.39	455.954
1245.66	436.982
1245.94	417.98
1246.21	441.921
1246.49	476.404
1246.76	496.255
1247.04	479.51
1247.32	443.914
1247.59	436.55
1247.87	451.195
1248.14	460.565
1248.42	513.746
1248.7	464.49
1248.97	474.926
1249.25	446.716
1249.52	458.256
1249.8	429.986
1250.08	465.533
1250.35	479.135
1250.63	452.894
1250.9	426.642
1251.18	434.909
1251.45	442.139
1251.73	457.734
1252.01	466.012
1252.28	415.796
1252.56	461.666
1252.83	423.996
1253.11	437.476
1253.39	434.263
1253.66	469.7
1253.94	466.572
1254.21	460.385
1254.49	438.552
1254.76	472.059
1255.04	463.746
1255.31	453.305
1255.59	461.695
1255.87	454.386
1256.14	439.745
1256.42	453.342
1256.69	446.068
1256.97	467.024
1257.24	433.621
1257.52	429.421
1257.79	489.933
1258.07	442.899
1258.35	439.733
1258.62	454.314
1258.9	450.088
1259.17	449.983
1259.45	446.841
1259.72	446.894
1260	476.191
1260.27	429.39
1260.55	457.472
1260.82	467.801
1261.1	467.633
1261.37	455.001
1261.65	441.368
1261.92	439.344
1262.2	434.514
1262.48	418.355
1262.75	466.743
1263.02	446.136
1263.3	457.076
1263.58	456.868
1263.85	434.353
1264.13	452.443
1264.4	452.869
1264.68	427.991
1264.95	424.587
1265.23	464.199
1265.5	443.296
1265.78	455.799
1266.05	441.09
1266.33	450.492
1266.6	486.053
1266.88	462.082
1267.15	423.494
1267.43	444.503
1267.7	424.753
1267.98	490.781
1268.25	435.482
1268.53	472.318
1268.8	447.355
1269.08	490.391
1269.35	425.516
1269.63	466.434
1269.9	455.93
1270.18	448.498
1270.45	468.259
1270.73	490.146
1271	443.973
1271.28	447.037
1271.55	457.473
1271.83	455.32
1272.1	465.82
1272.38	441.855
1272.65	459.779
1272.93	461.003
1273.2	428.648
1273.47	456.006
1273.75	481.286
1274.03	448.911
1274.3	465.81
1274.57	449.106
1274.85	464.862
1275.12	440.719
1275.4	461.7
1275.67	456.507
1275.95	490.157
1276.22	458.762
1276.5	449.427
1276.77	469.456
1277.05	453.798
1277.32	447.561
1277.6	434.016
1277.87	474.05
1278.14	486.775
1278.42	422.753
1278.69	456.476
1278.97	452.401
1279.24	454.579
1279.52	478.85
1279.79	469.358
1280.07	456.698
1280.34	465.059
1280.61	433.491
1280.89	467.183
1281.16	447.243
1281.44	443.147
1281.71	470.651
1281.99	448.612
1282.26	446.498
1282.53	450.752
1282.81	435.012
1283.08	464.415
1283.36	452.615
1283.63	438.554
1283.91	454.157
1284.18	450.996
1284.45	453.338
1284.73	449.008
1285	473.326
1285.28	444.868
1285.55	452.026
1285.83	467.665
1286.1	430.825
1286.37	429.867
1286.65	461.456
1286.92	450.843
1287.2	425.569
1287.47	458.181
1287.75	451.8
1288.02	439.092
1288.29	430.627
1288.57	453.776
1288.84	420.113
1289.12	435.932
1289.39	450.735
1289.66	441.341
1289.94	453.007
1290.21	425.719
1290.49	441.595
1290.76	450.022
1291.03	422.588
1291.31	426.779
1291.58	452.052
1291.86	443.622
1292.13	416.225
1292.4	459.41
1292.68	445.749
1292.95	436.246
1293.22	438.32
1293.5	438.344
1293.77	440.595
1294.05	424.968
1294.32	448.347
1294.59	467.382
1294.87	441.022
1295.14	450.482
1295.42	476.931
1295.69	453.922
1295.96	424.612
1296.24	432.311
1296.51	445.174
1296.79	450.507
1297.06	455.806
1297.33	421.938
1297.61	449.341
1297.88	448.195
1298.15	450.208
1298.43	471.211
1298.7	454.37
1298.97	448
1299.25	448.983
1299.52	458.425
1299.79	453.076
1300.07	423.517
1300.34	457.377
1300.62	446.867
1300.89	463.775
1301.16	446.862
1301.44	447.903
1301.71	463.764
1301.98	459.62
1302.25	426.951
1302.53	443.89
1302.8	435.454
1303.08	440.732
1303.35	478.73
1303.62	448.051
1303.9	454.309
1304.17	415.225
1304.44	438.467
1304.72	439.526
1304.99	418.403
1305.26	431.023
1305.54	440.45
1305.81	446.684
1306.08	434.98
1306.35	441.205
1306.63	439.011
1306.9	442.137
1307.18	422.1
1307.45	432.686
1307.72	433.755
1308	461.174
1308.27	437.968
1308.54	434.829
1308.81	415.82
1309.09	417.954
1309.36	433.845
1309.63	434.963
1309.91	411.812
1310.18	464.62
1310.45	409.733
1310.73	451.919
1311	445.589
1311.27	445.61
1311.55	440.359
1311.82	445.658
1312.09	444.64
1312.37	437.328
1312.64	422.612
1312.91	476.495
1313.18	437.409
1313.46	427.84
1313.73	452.108
1314	432.012
1314.28	426.705
1314.55	402.429
1314.82	451.011
1315.09	446.835
1315.37	412.05
1315.64	431.108
1315.91	454.4
1316.18	416.436
1316.46	435.432
1316.73	430.126
1317	449.119
1317.28	464.949
1317.55	421.651
1317.82	435.444
1318.09	391.123
1318.37	433.405
1318.64	476.738
1318.91	468.299
1319.18	423.931
1319.46	418.638
1319.73	451.371
1320	454.526
1320.28	447.163
1320.55	441.888
1320.82	454.542
1321.09	450.253
1321.37	463.883
1321.64	414.135
1321.91	428.782
1322.18	430.817
1322.46	427.533
1322.73	429.586
1323	458.003
1323.27	430.521
1323.55	455.742
1323.82	444.198
1324.09	433.674
1324.36	454.772
1324.64	448.434
1324.91	467.422
1325.18	444.213
1325.45	438.97
1325.73	454.673
1326	450.256
1326.27	438.416
1326.54	453.893
1326.81	451.658
1327.09	443.209
1327.36	443.358
1327.63	449.969
1327.9	417.472
1328.18	443.965
1328.45	434.65
1328.72	436.93
1328.99	457.114
1329.27	432.891
1329.54	414.905
1329.81	422.336
1330.08	446.585
1330.35	439.166
1330.63	452.823
1330.9	435.868
1331.17	437.875
1331.44	453.557
1331.71	446.008
1331.99	461.613
1332.26	416.185
1332.53	429.754
1332.8	413.842
1333.07	441.05
1333.35	419.866
1333.62	429.191
1333.89	455.333
1334.16	433.144
1334.43	442.478
1334.71	433.963
1334.98	443.307
1335.25	449.513
1335.52	418.998
1335.79	459.836
1336.07	440.876
1336.34	447.097
1336.61	422.914
1336.88	456.409
1337.15	439.585
1337.43	448.979
1337.7	449.991
1337.97	452.039
1338.24	468.693
1338.51	483.253
1338.78	403.582
1339.06	433.886
1339.33	465.254
1339.6	426.499
1339.87	436.988
1340.14	475.759
1340.42	407.702
1340.69	459.034
1340.96	439.152
1341.23	460.09
1341.5	466.354
1341.77	413.965
1342.04	477.789
1342.32	432.699
1342.59	417.955
1342.86	468.071
1343.13	463.767
1343.4	475.209
1343.67	462.624
1343.95	440.647
1344.22	474.112
1344.49	451.113
1344.76	460.527
1345.03	468.853
1345.3	468.778
1345.58	457.175
1345.85	468.528
1346.12	424.531
1346.39	486.01
1346.66	444.015
1346.93	473.095
1347.2	485.474
1347.47	452.994
1347.75	447.656
1348.02	451.746
1348.29	445.436
1348.56	436.018
1348.83	459.957
1349.1	482.811
1349.37	431.674
1349.65	434.716
1349.92	475.254
1350.19	448.097
1350.46	437.609
1350.73	454.184
1351	462.4
1351.27	475.809
1351.54	461.171
1351.81	443.375
1352.09	461.02
1352.36	415.261
1352.63	432.99
1352.9	451.807
1353.17	474.836
1353.44	450.977
1353.71	441.985
1353.98	473.67
1354.25	457.606
1354.53	478.765
1354.8	426.333
1355.07	435.732
1355.34	450.317
1355.61	437.697
1355.88	439.696
1356.15	452.312
1356.42	468.973
1356.69	453.293
1356.96	425.205
1357.24	446.98
1357.51	462.515
1357.78	456.226
1358.05	466.538
1358.32	423.9
1358.59	427.977
1358.86	463.187
1359.13	466.207
1359.4	430.851
1359.67	448.422
1359.94	463.921
1360.22	458.619
1360.49	464.704
1360.76	449.034
1361.03	427.197
1361.3	439.594
1361.57	446.84
1361.84	472.719
1362.11	440.585
1362.38	417.75
1362.65	443.595
1362.92	452.872
1363.19	467.353
1363.46	448.745
1363.73	429.146
1364	446.809
1364.28	451.009
1364.55	492.44
1364.82	418.866
1365.09	467.501
1365.36	452.922
1365.63	435.223
1365.9	440.296
1366.17	442.268
1366.44	446.309
1366.71	465.858
1366.98	434.704
1367.25	453.163
1367.52	412.786
1367.79	452.017
1368.06	433.473
1368.33	465.551
1368.6	435.603
1368.87	444.934
1369.15	457.368
1369.41	465.679
1369.68	420.216
1369.95	478.064
1370.23	472.842
1370.5	435.578
1370.77	468.535
1371.04	460.21
1371.31	457.028
1371.58	406.297
1371.85	465.012
1372.12	412.197
1372.39	467.75
1372.66	460.37
1372.93	414.886
1373.2	434.403
1373.47	448.776
1373.74	430.172
1374.01	434.25
1374.28	443.488
1374.55	451.701
1374.82	460.945
1375.09	462.971
1375.36	449.523
1375.63	434.091
1375.9	457.841
1376.17	473.284
1376.44	454.768
1376.71	462.894
1376.98	461.753
1377.25	480.131
1377.52	471.702
1377.79	452.21
1378.06	467.766
1378.33	496.786
1378.6	462.002
1378.87	503.49
1379.14	475.738
1379.41	504.59
1379.68	476.692
1379.95	477.656
1380.22	503.321
1380.49	501.048
1380.76	486.238
1381.03	474.7
1381.3	477.61
1381.57	482.833
1381.84	471.399
1382.11	496.878
1382.38	513.07
1382.65	506.696
1382.92	504.461
1383.19	503.244
1383.46	502.079
1383.73	543.982
1384	508
1384.27	466.921
1384.54	501.796
1384.81	463.903
1385.08	498.857
1385.34	439.498
1385.61	504.321
1385.88	481.873
1386.15	451.179
1386.42	491.287
1386.69	461.603
1386.96	473.974
1387.23	492.457
1387.5	508.489
1387.77	470.637
1388.04	455.527
1388.31	499.213
1388.58	499.797
1388.85	459.578
1389.12	458.083
1389.39	454.264
1389.66	467.649
1389.93	433.818
1390.2	433.674
1390.46	439.494
1390.73	443.438
1391	439.322
1391.27	483.218
1391.54	447.308
1391.81	421.65
1392.08	412.334
1392.35	456.274
1392.62	439.789
1392.89	437.669
1393.16	460.133
1393.43	435.515
1393.7	448.779
1393.97	467.161
1394.23	430.284
1394.5	434.349
1394.77	428.184
1395.04	444.54
1395.31	421.053
1395.58	443.641
1395.85	458.026
1396.12	450.884
1396.39	430.399
1396.66	452.883
1396.93	428.269
1397.2	451.752
1397.46	413.814
1397.73	441.359
1398	435.182
1398.27	442.338
1398.54	450.553
1398.81	412.756
1399.08	428.133
1399.35	423.042
1399.62	420.045
1399.89	429.303
1400.16	437.534
1400.42	449.814
1400.69	400.742
1400.96	442.825
1401.23	402.941
1401.5	410.096
1401.77	413.22
1402.04	399.905
1402.31	437.947
1402.58	433.07
1402.84	422.052
1403.11	421.214
1403.38	441.878
1403.65	442.974
1403.92	433.741
1404.19	446.998
1404.46	420.078
1404.73	413.986
1404.99	443.703
1405.26	419.034
1405.53	401.527
1405.8	447.599
1406.07	449.574
1406.34	409.525
1406.61	413.584
1406.87	411.503
1407.14	438.174
1407.41	432.057
1407.68	416.719
1407.95	389.065
1408.22	427.025
1408.49	440.381
1408.76	416.825
1409.02	440.444
1409.29	419.974
1409.56	424.114
1409.83	429.278
1410.1	427.252
1410.37	433.411
1410.63	441.533
1410.9	432.187
1411.17	406.43
1411.44	385.843
1411.71	408.321
1411.98	399.049
1412.25	414.405
1412.51	425.736
1412.78	433.034
1413.05	400.488
1413.32	408.153
1413.59	409.43
1413.86	422.467
1414.12	427.044
1414.39	416.885
1414.66	420.243
1414.93	427.627
1415.2	435.815
1415.47	398.873
1415.73	401.958
1416	431.747
1416.27	398.927
1416.54	437.988
1416.81	445.223
1417.07	422.676
1417.34	399.102
1417.61	452.575
1417.88	420.774
1418.15	414.635
1418.42	445.473
1418.68	399.252
1418.95	420.855
1419.22	418.808
1419.49	435.263
1419.76	410.557
1420.02	402.264
1420.29	404.241
1420.56	419.575
1420.83	409.225
1421.1	432.752
1421.36	413.174
1421.63	400.823
1421.9	415.219
1422.17	407.118
1422.44	411.365
1422.7	429.999
1422.97	445.651
1423.24	414.139
1423.51	434.07
1423.77	434.084
1424.04	434.212
1424.31	412.796
1424.58	403.184
1424.85	418.557
1425.11	436.102
1425.38	400.511
1425.65	416.976
1425.92	427.176
1426.19	418.092
1426.45	441.659
1426.72	389.276
1426.99	401.484
1427.26	420.855
1427.52	436.109
1427.79	419.544
1428.06	411.218
1428.33	426.514
1428.59	421.371
1428.86	435.714
1429.13	448.03
1429.4	420.422
1429.67	418.425
1429.93	436.93
1430.2	439.075
1430.47	416.649
1430.74	424.94
1431	396.361
1431.27	444.751
1431.54	466.456
1431.81	433.695
1432.07	426.515
1432.34	435.677
1432.61	419.162
1432.87	416.025
1433.14	422.056
1433.41	438.305
1433.68	423.778
1433.95	394.934
1434.21	405.082
1434.48	415.284
1434.75	442.115
1435.01	440.161
1435.28	431.984
1435.55	431.99
1435.82	417.638
1436.08	435.041
1436.35	409.402
1436.62	416.549
1436.89	418.562
1437.15	432.867
1437.42	394.934
1437.69	412.339
1437.95	439.949
1438.22	422.52
1438.49	452.245
1438.76	408.271
1439.02	427.776
1439.29	470.82
1439.56	411.425
1439.82	414.566
1440.09	420.812
1440.36	436.311
1440.63	407.659
1440.89	425.119
1441.16	422.052
1441.43	445.666
1441.69	426.152
1441.96	449.666
1442.23	410.673
1442.49	444.599
1442.76	416.926
1443.03	431.371
1443.3	440.55
1443.56	435.352
1443.83	436.319
1444.1	426.027
1444.36	456.767
1444.63	432.195
1444.9	417.965
1445.16	441.66
1445.43	423.335
1445.7	419.199
1445.97	422.241
1446.23	398.615
1446.5	412.944
1446.77	430.352
1447.03	424.169
1447.3	461.057
1447.57	424.1
1447.83	408.67
1448.1	433.237
1448.37	421.96
1448.63	446.645
1448.9	405.724
1449.17	427.29
1449.43	427.287
1449.7	440.587
1449.97	438.482
1450.23	408.681
1450.5	445.522
1450.77	433.187
1451.03	443.406
1451.3	418.776
1451.57	423.868
1451.83	401.285
1452.1	423.79
1452.37	423.761
1452.63	447.31
1452.9	415.558
1453.17	409.433
1453.43	434.076
1453.7	430.02
1453.97	406.456
1454.23	408.48
1454.5	452.523
1454.77	418.71
1455.03	421.788
1455.3	424.853
1455.56	449.419
1455.83	411.518
1456.1	392.12
1456.36	422.908
1456.63	441.359
1456.9	438.25
1457.16	426.908
1457.43	412.499
1457.7	401.202
1457.96	427.813
1458.23	414.482
1458.49	431.901
1458.76	425.768
1459.03	420.672
1459.29	412.498
1459.56	395.097
1459.82	429.945
1460.09	438.128
1460.36	414.539
1460.62	428.854
1460.89	385.798
1461.16	388.832
1461.42	409.267
1461.69	416.385
1461.95	409.161
1462.22	420.356
1462.49	441.776
1462.75	419.178
1463.02	431.367
1463.28	412.86
1463.55	412.765
1463.82	390.188
1464.08	403.467
1464.35	397.458
1464.61	426.291
1464.88	420.303
1465.15	410.26
1465.41	395.626
1465.68	403.088
1465.94	397.661
1466.21	413.953
1466.48	414.081
1466.74	422.21
1467.01	429.171
1467.27	420.955
1467.54	414.876
1467.8	433.215
1468.07	429.106
1468.34	408.688
1468.6	417.864
1468.87	433.157
1469.13	422.935
1469.4	388.219
1469.67	401.431
1469.93	387.083
1470.2	432.865
1470.46	417.498
1470.73	413.368
1470.99	431.662
1471.26	402.087
1471.53	399.996
1471.79	419.272
1472.06	413.107
1472.32	406.97
1472.59	422.23
1472.85	393.71
1473.12	389.627
1473.39	382.473
1473.65	413.977
1473.92	430.203
1474.18	450.508
1474.45	404.684
1474.71	425.038
1474.98	405.74
1475.24	403.733
1475.51	417.99
1475.78	399.658
1476.04	428.12
1476.31	413.819
1476.57	412.763
1476.84	397.468
1477.1	401.476
1477.37	447.181
1477.63	403.415
1477.9	396.284
1478.16	398.31
1478.43	418.602
1478.69	433.773
1478.96	395.085
1479.22	412.307
1479.49	417.32
1479.76	428.42
1480.02	420.204
1480.29	418.087
1480.55	405.758
1480.82	402.599
1481.08	398.463
1481.35	364.946
1481.61	412.566
1481.88	409.561
1482.14	422.819
1482.41	383.315
1482.67	408.773
1482.94	431.174
1483.2	413.914
1483.47	387.566
1483.73	390.639
1484	420.091
1484.26	415.001
1484.53	424.987
1484.79	391.277
1485.06	416.201
1485.32	411.599
1485.59	443.773
1485.85	408.058
1486.12	374.548
1486.38	395.935
1486.65	429.54
1486.91	422.003
1487.18	407.019
1487.44	371.613
1487.71	412.03
1487.97	412.951
1488.24	396.691
1488.5	391.566
1488.77	434.001
1489.03	411.633
1489.3	411.558
1489.56	395.325
1489.83	414.516
1490.09	400.326
1490.36	417.523
1490.62	410.437
1490.89	434.666
1491.15	391.094
1491.42	404.164
1491.68	402.105
1491.95	387.935
1492.21	416.243
1492.48	404.13
1492.74	417.261
1493	375.791
1493.27	402.064
1493.53	420.262
1493.8	426.299
1494.06	403.035
1494.33	412.139
1494.59	408.124
1494.86	385.918
1495.12	424.32
1495.39	404.038
1495.65	414.028
1495.92	385.597
1496.18	396.597
1496.45	435.904
1496.71	411.618
1496.97	433.776
1497.24	408.487
1497.5	390.317
1497.77	425.639
1498.03	410.478
1498.3	418.544
1498.56	401.392
1498.82	412.504
1499.09	405.454
1499.35	415.566
1499.62	412.566
1499.88	396.452
1500.15	415.668
1500.41	430.828
1500.68	411.644
1500.94	423.746
1501.2	407.582
1501.47	394.418
1501.73	405.445
1502	390.284
1502.26	411.465
1502.52	419.523
1502.79	402.332
1503.05	383.082
1503.32	398.137
1503.58	431.372
1503.85	398.023
1504.11	381.889
1504.37	423.271
1504.64	415.224
1504.9	432.372
1505.17	396.051
1505.43	425.253
1505.7	412.084
1505.96	410.962
1506.22	408.804
1506.49	423.889
1506.75	397.685
1507.02	418.86
1507.28	396.754
1507.54	401.808
1507.81	425.005
1508.07	411.902
1508.34	378.624
1508.6	419.915
1508.86	422.947
1509.13	401.804
1509.39	404.834
1509.66	411.883
1509.92	415.913
1510.18	418.983
1510.45	402.886
1510.71	386.689
1510.98	381.579
1511.24	403.652
1511.5	415.625
1511.77	409.421
1512.03	400.156
1512.29	388.891
1512.56	398.752
1512.82	399.592
1513.08	407.525
1513.35	394.381
1513.61	389.287
1513.88	422.383
1514.14	389.348
1514.4	413.605
1514.67	382.506
1514.93	390.499
1515.2	403.467
1515.46	381.275
1515.72	397.24
1515.99	404.145
1516.25	414.058
1516.51	369.846
1516.78	416.942
1517.04	412.9
1517.3	383.797
1517.57	369.752
1517.83	391.817
1518.09	407.89
1518.36	418.997
1518.62	394.949
1518.88	382.942
1519.15	401.021
1519.41	412.093
1519.67	411.123
1519.94	441.243
1520.2	403.11
1520.47	400.065
1520.73	401.042
1520.99	386.019
1521.26	399.1
1521.52	401.144
1521.78	400.156
1522.05	425.226
1522.31	395.091
1522.57	394.045
1522.84	399.015
1523.1	398.975
1523.36	399.914
1523.62	406.814
1523.89	392.627
1524.15	416.569
1524.41	417.485
1524.68	424.424
1524.94	420.354
1525.2	383.35
1525.47	376.359
1525.73	392.399
1525.99	424.51
1526.26	394.534
1526.52	409.671
1526.78	397.728
1527.05	388.739
1527.31	405.771
1527.57	408.723
1527.84	405.691
1528.1	382.611
1528.36	388.593
1528.63	407.584
1528.89	384.501
1529.15	381.463
1529.41	403.481
1529.68	415.495
1529.94	399.444
1530.2	386.364
1530.47	375.333
1530.73	402.408
1530.99	400.487
1531.25	393.556
1531.52	417.666
1531.78	422.686
1532.04	411.638
1532.31	394.616
1532.57	413.601
1532.83	401.627
1533.09	407.748
1533.36	390.849
1533.62	413.036
1533.88	407.076
1534.15	432.189
1534.41	412.123
1534.67	419.124
1534.94	415.081
1535.2	404.006
1535.46	434.057
1535.72	398.884
1535.99	421.738
1536.25	400.574
1536.51	404.493
1536.77	397.347
1537.04	406.21
1537.3	413.084
1537.56	397.021
1537.82	380.928
1538.09	388.935
1538.35	402.858
1538.61	406.734
1538.87	438.683
1539.14	410.655
1539.4	423.765
1539.66	422.004
1539.92	404.291
1540.19	412.506
1540.45	392.64
1540.71	397.823
1540.97	393.921
1541.24	375.914
1541.5	403.83
1541.76	391.783
1542.02	405.708
1542.29	399.598
1542.55	399.5
1542.81	411.42
1543.07	433.352
1543.34	391.217
1543.6	405.133
1543.86	408.005
1544.12	405.87
1544.39	412.889
1544.65	398.913
1544.91	403.998
1545.17	410.124
1545.43	422.225
1545.7	403.369
1545.96	402.455
1546.22	424.543
1546.48	419.583
1546.74	393.516
1547.01	408.562
1547.27	398.59
1547.53	399.641
1547.79	435.758
1548.06	416.631
1548.32	428.434
1548.58	415.417
1548.84	428.458
1549.1	404.544
1549.37	399.172
1549.63	384.769
1549.89	413.672
1550.15	375.899
1550.42	430.348
1550.68	402.919
1550.94	395.329
1551.2	373.608
1551.46	407.496
1551.73	424.607
1551.99	426.532
1552.25	404.322
1552.51	415.546
1552.77	421.742
1553.03	408.633
1553.3	415.547
1553.56	436.318
1553.82	453.304
1554.08	407.126
1554.34	399.023
1554.61	395.903
1554.87	415.818
1555.13	402.649
1555.39	414.621
1555.65	385.545
1555.91	383.54
1556.18	409.612
1556.44	400.601
1556.7	396.535
1556.96	408.561
1557.22	420.609
1557.48	417.629
1557.75	385.58
1558.01	395.577
1558.27	415.538
1558.53	399.389
1558.79	406.298
1559.06	402.161
1559.32	414.044
1559.58	429.938
1559.84	415.848
1560.1	403.78
1560.36	433.711
1560.63	370.701
1560.89	415.645
1561.15	410.624
1561.41	396.631
1561.67	408.652
1561.93	413.725
1562.19	402.84
1562.46	404.96
1562.72	397.964
1562.98	420.948
1563.24	405.915
1563.5	409.935
1563.76	412.897
1564.02	395.875
1564.29	395.013
1564.55	410.175
1564.81	411.228
1565.07	409.199
1565.33	396.97
1565.59	403.271
1565.85	416.251
1566.11	416.726
1566.38	417.427
1566.64	400.924
1566.9	406.719
1567.16	403.458
1567.42	405.784
1567.68	408.142
1567.94	417.052
1568.2	407.768
1568.47	401.819
1568.73	379.878
1568.99	427.904
1569.25	401.867
1569.51	367.739
1569.77	425.62
1570.03	388.65
1570.29	413.667
1570.55	411.678
1570.82	407.687
1571.08	435.663
1571.34	411.66
1571.6	403.63
1571.86	417.556
1572.12	419.481
1572.38	434.452
1572.64	395.446
1572.9	413.345
1573.17	415.283
1573.43	415.226
1573.69	424.142
1573.95	410.112
1574.21	423.096
1574.47	429.161
1574.73	422.271
1574.99	397.405
1575.25	413.488
1575.51	421.58
1575.78	404.668
1576.04	399.691
1576.3	420.649
1576.56	422.641
1576.82	417.598
1577.08	378.513
1577.34	435.284
1577.6	417.163
1577.86	431.987
1578.12	404.921
1578.38	363.918
1578.64	441.617
1578.9	392.742
1579.17	421.65
1579.43	381.77
1579.69	394.734
1579.95	408.715
1580.21	405.783
1580.47	404.816
1580.73	400.835
1580.99	399.823
1581.25	434.675
1581.51	401.709
1581.77	428.571
1582.03	397.592
1582.29	406.476
1582.55	390.506
1582.81	422.359
1583.07	417.346
1583.33	398.397
1583.59	388.425
1583.85	411.325
1584.11	410.288
1584.38	417.26
1584.64	373.471
1584.9	408.36
1585.16	413.357
1585.42	408.373
1585.68	415.324
1585.94	413.322
1586.2	428.222
1586.46	418.167
1586.72	415.079
1586.98	401.072
1587.24	415.947
1587.5	417.894
1587.76	407.909
1588.02	418.834
1588.28	412.868
1588.54	373.102
1588.8	418.92
1589.06	406.043
1589.32	419.032
1589.58	412.117
1589.84	417.134
1590.1	430.092
1590.36	399.227
1590.62	413.199
1590.88	399.306
1591.14	388.388
1591.4	410.287
1591.66	393.355
1591.92	416.233
1592.18	433.118
1592.44	420.081
1592.7	415.97
1592.96	405.924
1593.22	424.764
1593.48	390.8
1593.74	411.522
1594	395.456
1594.26	406.283
1594.52	402.256
1594.78	407.223
1595.04	430.119
1595.3	407.353
1595.56	422.313
1595.82	397.471
1596.08	428.084
1596.34	391.326
1596.6	397.285
1596.86	423.113
1597.12	424.122
1597.38	398.326
1597.64	392.4
1597.9	419.259
1598.16	445.079
1598.42	410.269
1598.68	382.387
1598.94	419.024
1599.2	399.07
1599.46	414.877
1599.72	416.792
1599.98	405.809
1600.24	409.709
1600.5	386.83
1600.76	414.523
1601.02	426.32
1601.28	379.607
1601.54	423.078
1601.8	434.828
1602.06	436.693
1602.32	425.713
1602.58	410.785
1602.84	440.385
1603.1	392.791
1603.36	398.64
1603.62	402.523
1603.88	401.484
1604.14	428.147
1604.4	407.375
1604.66	401.449
1604.92	401.462
1605.17	408.388
1605.43	407.408
1605.69	409.401
1605.95	406.468
1606.21	409.482
1606.47	389.753
1606.73	409.589
1606.99	400.727
1607.25	422.398
1607.51	429.171
1607.77	415.461
1608.03	406.993
1608.29	387.593
1608.55	425.965
1608.81	432.063
1609.07	402.403
1609.32	406.936
1609.58	400.797
1609.84	408.562
1610.1	417.953
1610.36	412.085
1610.62	418.652
1610.88	408.783
1611.14	409.515
1611.4	431.974
1611.66	396.805
1611.92	429.287
1612.18	407.56
1612.44	421.902
1612.69	392.683
1612.95	424.051
1613.21	392.935
1613.47	391.202
1613.73	399.863
1613.99	401.583
1614.25	397.107
1614.51	411.901
1614.77	407.712
1615.03	410.048
1615.29	408.856
1615.54	401.392
1615.8	432.107
1616.06	396.012
1616.32	404.884
1616.58	418.167
1616.84	414.127
1617.1	408.027
1617.36	426.812
1617.62	420.691
1617.88	415.347
1618.13	395.426
1618.39	411.155
1618.65	412.167
1618.91	411.703
1619.17	410.836
1619.43	405.205
1619.69	400.524
1619.95	411.816
1620.2	416.681
1620.46	415.6
1620.72	425.815
1620.98	419.118
1621.24	416.805
1621.5	413.849
1621.76	427.06
1622.02	405.468
1622.27	413.34
1622.53	420.356
1622.79	420.025
1623.05	408.485
1623.31	418.253
1623.57	418.067
1623.83	431.679
1624.09	421.677
1624.34	420.977
1624.6	409.181
1624.86	412.261
1625.12	411.343
1625.38	410.138
1625.64	406.583
1625.9	396.608
1626.15	392.366
1626.41	406.174
1626.67	404.802
1626.93	411.184
1627.19	406.487
1627.45	414.326
1627.7	426.28
1627.96	421.302
1628.22	429.763
1628.48	425.718
1628.74	409.593
1629	395.297
1629.26	411.283
1629.51	413.017
1629.77	424.566
1630.03	405.993
1630.29	416.767
1630.55	408.967
1630.81	415.958
1631.06	390.941
1631.32	398.543
1631.53	390.028
1631.79	416.685
1632.05	394.099
1632.31	436.544
1632.57	451.302
1632.84	394.253
1633.1	421.083
1633.36	411.069
1633.62	429.577
1633.88	408.835
1634.14	425.644
1634.4	425.711
1634.66	416.861
1634.93	404.057
1635.19	422.777
1635.45	417.831
1635.71	414.847
1635.97	403.97
1636.23	383.233
1636.49	387.125
1636.75	444.215
1637.02	421.497
1637.28	439.155
1637.54	417.409
1637.8	448.876
1638.06	420.306
1638.32	400.575
1638.58	371.984
1638.84	403.453
1639.1	423.142
1639.37	406.408
1639.63	408.371
1639.89	409.351
1640.15	440.841
1640.41	419.169
1640.67	404.415
1640.93	412.367
1641.19	423.254
1641.46	416.376
1641.72	399.606
1641.98	410.391
1642.24	397.561
1642.5	419.196
1642.76	435.91
1643.02	415.218
1643.28	410.28
1643.54	426.018
1643.8	417.146
1644.06	397.426
1644.33	428.871
1644.59	416.994
1644.85	420.872
1645.11	424.792
1645.37	421.872
1645.63	443.575
1645.89	410.149
1646.15	406.216
1646.41	429.79
1646.67	423.833
1646.93	391.321
1647.19	393.261
1647.46	402.071
1647.72	408.909
1647.98	403.953
1648.24	410.826
1648.5	411.824
1648.76	413.862
1649.02	389.346
1649.28	409.228
1649.54	409.308
1649.8	426.98
1650.06	393.463
1650.32	458.424
1650.58	436.898
1650.85	409.427
1651.11	441.024
1651.37	411.551
1651.63	396.822
1651.89	420.493
1652.15	424.436
1652.41	429.363
1652.67	425.437
1652.93	407.655
1653.19	425.338
1653.45	416.446
1653.71	418.416
1653.97	393.802
1654.23	405.665
1654.49	392.879
1654.75	437.241
1655.01	429.385
1655.27	438.311
1655.53	388.116
1655.8	421.76
1656.06	411.058
1656.32	387.473
1656.57	429.973
1656.84	422.113
1657.1	406.338
1657.36	385.595
1657.62	411.222
1657.88	415.123
1658.14	428.909
1658.4	433.809
1658.66	406.133
1658.92	417.912
1659.18	372.474
1659.44	401.018
1659.7	396.026
1659.96	393.007
1660.22	383.061
1660.48	416.61
1660.74	403.844
1661	423.628
1661.26	415.813
1661.52	411.944
1661.78	414.988
1662.04	420.943
1662.3	371.63
1662.56	411.711
1662.82	405.58
1663.08	376.337
1663.34	422.579
1663.6	419.564
1663.86	406.611
1664.12	417.596
1664.38	409.157
1664.64	400.371
1664.9	404.354
1665.16	384.799
1665.42	380.924
1665.68	414.065
1665.94	422.548
1666.2	426.609
1666.46	427.689
1666.72	398.969
1666.98	388.531
1667.24	396.171
1667.5	403.27
1667.76	425.881
1668.02	418.9
1668.28	413.921
1668.54	414.836
1668.8	386.233
1669.06	395.291
1669.32	420.205
1669.58	373.827
1669.84	387.662
1670.1	398.54
1670.36	430.103
1670.62	383.679
1670.88	405.619
1671.14	394.88
1671.4	403.733
1671.66	390.85
1671.92	385.89
1672.18	396.777
1672.44	401.752
1672.69	433.397
1672.95	401.76
1673.21	407.688
1673.47	388.915
1673.73	410.679
1673.99	411.694
1674.25	409.759
1674.51	405.857
1674.77	411.84
1675.03	420.795
1675.29	388.225
1675.55	405.105
1675.81	399.202
1676.07	379.413
1676.33	392.27
1676.59	382.385
1676.85	396.259
1677.11	386.371
1677.37	386.363
1677.63	399.205
1677.89	417.969
1678.14	406.033
1678.4	405.952
1678.66	393.004
1678.92	387.985
1679.18	398.805
1679.44	394.8
1679.7	408.603
1679.96	403.617
1680.22	398.632
1680.48	387.728
1680.74	400.532
1681	407.405
1681.26	365.871
1681.52	389.562
1681.78	380.661
1682.03	410.293
1682.29	423.133
1682.55	410.292
1682.81	404.371
1683.07	422.134
1683.33	398.41
1683.59	384.573
1683.85	407.291
1684.11	390.484
1684.37	394.408
1684.63	396.32
1684.89	391.346
1685.14	411.074
1685.4	414.02
1685.66	405.123
1685.92	380.432
1686.18	405.119
1686.44	368.589
1686.7	399.232
1686.96	391.41
1687.22	412.194
1687.48	392.442
1687.73	384.507
1687.99	379.521
1688.25	402.19
1688.51	359.686
1688.77	409.015
1689.03	407.965
1689.29	386.16
1689.55	384.118
1689.81	402.795
1690.06	410.605
1690.32	418.4
1690.58	423.303
1690.84	394.791
1691.1	397.8
1691.36	390.927
1691.62	382.064
1691.88	408.748
1692.13	389.043
1692.39	400.885
1692.65	393.952
1692.91	396.852
1693.17	398.746
1693.43	388.789
1693.69	383.75
1693.95	402.362
1694.2	375.667
1694.46	431.758
1694.72	396.198
1694.98	410.913
1695.24	392.189
1695.5	398.12
1695.76	405.036
1696.01	411.954
1696.27	393.26
1696.53	390.356
1696.79	381.521
1697.05	396.298
1697.31	397.243
1697.57	380.417
1697.82	399.032
1698.08	407.785
1698.34	388.006
1698.6	392.857
1698.86	425.267
1699.12	409.462
1699.38	396.638
1699.63	391.705
1699.89	399.597
1700.15	377.95
1700.41	423.219
1700.67	375.913
1700.92	388.683
1701.18	381.777
1701.44	393.557
1701.7	371.879
1701.96	390.502
1702.22	398.287
1702.47	392.314
1702.73	399.114
1702.99	376.435
1703.25	398.029
1703.51	401.946
1703.77	417.638
1704.02	407.77
1704.28	369.429
1704.54	384.197
1704.8	403.899
1705.06	408.823
1705.32	393.078
1705.57	395.999
1705.83	386.17
1706.09	387.15
1706.35	401.823
1706.61	359.499
1706.86	412.438
1707.12	374.044
1707.38	380.819
1707.64	374.846
1707.9	401.229
1708.16	374.62
1708.41	396.066
1708.67	377.316
1708.93	390.891
1709.19	397.616
1709.44	409.272
1709.7	388.649
1709.96	393.513
1710.22	397.42
1710.48	394.488
1710.73	351.422
1710.99	394.528
1711.25	387.73
1711.51	378.95
1711.77	423.054
1712.02	371.171
1712.28	392.723
1712.54	400.512
1712.8	389.626
1713.06	390.441
1713.31	381.465
1713.57	369.575
1713.83	410.494
1714.09	395.678
1714.34	421.981
1714.6	382.85
1714.86	389.649
1715.12	384.74
1715.38	388.637
1715.63	388.701
1715.89	384.876
1716.15	369.237
1716.41	394.606
1716.66	409.199
1716.92	405.202
1717.18	395.32
1717.44	389.321
1717.69	395.007
1717.95	396.757
1718.21	377.086
1718.47	378.887
1718.72	373.889
1718.98	373.803
1719.24	400.042
1719.5	382.505
1719.75	394.182
1720.01	376.632
1720.27	390.288
1720.53	391.275
1720.78	380.524
1721.04	387.266
1721.3	367.694
1721.56	379.288
1721.81	379.209
1722.07	374.257
1722.33	375.133
1722.59	369.2
1722.84	387.567
1723.1	398.159
1723.36	389.328
1723.62	374.69
1723.87	411.544
1724.13	362.013
1724.39	380.428
1724.64	376.522
1724.9	372.575
1725.16	400.618
1725.42	376.204
1725.67	389.643
1725.93	382.706
1726.19	371.948
1726.45	372.87
1726.7	383.555
1726.96	398.059
1727.22	387.338
1727.47	374.606
1727.73	389.121
1727.99	371.774
1728.24	402.747
1728.5	374.588
1728.76	385.093
1729.02	354.583
1729.27	397.471
1729.53	366.37
1729.79	380.093
1730.05	369.665
1730.3	359.179
1730.56	398.547
1730.82	353.062
1731.07	352.06
1731.33	378.549
1731.59	360.21
1731.84	381.477
1732.1	374.7
1732.36	377.574
1732.61	382.366
1732.87	370.727
1733.13	371.634
1733.39	390.869
1733.64	377.229
1733.9	372.25
1734.16	380.773
1734.41	374.867
1734.67	369.926
1734.93	362.093
1735.18	373.534
1735.44	372.448
1735.7	381.007
1735.95	375.147
1736.21	380.862
1736.47	381.787
1736.72	377.895
1736.98	357.634
1737.24	393.182
1737.49	370.033
1737.75	393.065
1738.01	377.625
1738.26	373.709
1738.52	375.55
1738.78	373.545
1739.03	381.151
1739.29	383.939
1739.55	367.497
1739.8	383.677
1740.06	372.944
1740.32	373.741
1740.57	397.568
1740.83	364.848
1741.09	392.548
1741.34	365.629
1741.6	373.208
1741.86	360.678
1742.11	383.597
1742.37	377.809
1742.63	364.38
1742.88	377.751
1743.14	372.923
1743.4	358.539
1743.65	387.241
1743.91	381.457
1744.16	361.282
1744.42	378.437
1744.68	354.464
1744.93	364.957
1745.19	382.171
1745.45	379.305
1745.7	388.868
1745.96	387.888
1746.22	365.841
1746.47	401.142
1746.73	372.357
1746.98	366.509
1747.24	373.108
1747.5	364.403
1747.75	365.27
1748.01	406.233
1748.27	361.319
1748.52	364.172
1748.78	367.037
1749.03	371.823
1749.29	401.441
1749.55	348.017
1749.8	391.044
1750.06	360.555
1750.32	361.59
1750.57	367.407
1750.83	355.058
1751.08	364.643
1751.34	361.815
1751.6	359.911
1751.85	382.804
1752.11	374.091
1752.36	367.286
1752.62	376.75
1752.88	358.523
1753.13	396.627
1753.39	379.354
1753.64	373.554
1753.9	389.707
1754.15	380.102
1754.41	382.876
1754.67	356.088
1754.92	382.726
1755.18	375.997
1755.43	369.279
1755.69	378.76
1755.95	345.342
1756.2	361.461
1756.46	364.227
1756.71	363.174
1756.97	398.273
1757.23	369.595
1757.48	362.825
1757.74	367.534
1757.99	383.655
1758.25	376.068
1758.5	366.664
1758.76	368.599
1759.02	380.024
1759.27	361.947
1759.53	363.853
1759.78	375.289
1760.04	383.845
1760.3	380.008
1760.55	374.264
1760.81	346.636
1761.06	387.497
1761.32	358.899
1761.57	343.609
1761.83	356.856
1762.08	367.266
1762.34	352.027
1762.6	361.516
1762.85	360.625
1763.11	369.221
1763.36	360.669
1763.62	373.962
1763.87	381.579
1764.13	365.439
1764.38	369.28
1764.64	377.916
1764.89	366.637
1765.15	383.825
1765.4	385.778
1765.66	363.918
1765.92	377.269
1766.17	366.808
1766.43	361.095
1766.68	383.93
1766.94	360.098
1767.19	401.002
1767.45	357.207
1767.7	350.512
1767.96	383.77
1768.21	356.115
1768.47	358.926
1768.73	354.135
1768.98	362.669
1769.24	353.958
1769.49	391.773
1769.75	347.873
1770	380.984
1770.26	367.7
1770.51	361.136
1770.77	350.775
1771.02	358.38
1771.28	351.753
1771.53	363.252
1771.79	365.283
1772.04	364.378
1772.3	372.955
1772.55	367.308
1772.81	357.869
1773.06	364.583
1773.32	362.723
1773.57	373.233
1773.83	382.789
1774.08	382.823
1774.34	344.774
1774.59	411.434
1774.85	391.459
1775.1	358.185
1775.36	364.878
1775.61	355.417
1775.87	360.343
1776.12	385.218
1776.38	350.948
1776.63	377.653
1776.89	359.52
1777.14	354.707
1777.4	364.173
1777.65	386.049
1777.91	351.678
1778.16	383.048
1778.42	385.832
1778.67	375.286
1778.93	381.867
1779.18	368.438
1779.44	370.236
1779.69	377.784
1779.95	367.311
1780.2	368.367
1780.46	360.778
1780.71	372.224
1780.97	357.978
1781.22	396.091
1781.47	360.874
1781.73	378.025
1781.98	361.871
1782.24	363.825
1782.49	365.787
1782.75	360.157
1783	393.559
1783.26	358.346
1783.51	357.431
1783.77	381.306
1784.02	365.148
1784.28	371.875
1784.53	367.173
1784.79	364.404
1785.04	367.322
1785.29	374.985
1785.55	355.9
1785.8	372.099
1786.06	366.334
1786.31	334.815
1786.57	359.62
1786.82	361.558
1787.08	371.157
1787.33	394.14
1787.58	335.061
1787.84	373.387
1788.09	380.302
1788.35	333.693
1788.6	378.877
1788.86	385.739
1789.11	363.784
1789.37	364.827
1789.62	376.46
1789.87	378.472
1790.13	368.936
1790.38	369.941
1790.64	364.237
1790.89	352.735
1791.15	370.931
1791.4	375.637
1791.65	348.584
1791.91	376.327
1792.16	344.685
1792.42	350.433
1792.67	357.151
1792.93	360.042
1793.18	349.55
1793.43	371.613
1793.69	361.083
1793.94	368.749
1794.2	364.964
1794.45	375.518
1794.7	360.178
1794.96	350.54
1795.21	397.597
1795.47	360.503
1795.72	354.932
1795.97	357.904
1796.23	351.24
1796.48	367.627
1796.74	349.449
1796.99	376.414
1797.25	365.921
1797.5	344.847
1797.75	367.97
1798.01	363.211
1798.26	359.406
1798.51	385.398
1798.77	372.92
1799.02	401.769
1799.28	355.592
1799.53	363.242
1799.78	371.835
1800.04	369.837
1800.29	370.728
1800.55	365.869
1800.8	374.469
1801.05	374.434
1801.31	372.488
1801.56	374.396
1801.81	368.631
1802.07	395.538
1802.32	350.414
1802.58	372.543
1802.83	355.296
1803.08	349.589
1803.34	353.502
1803.59	365.115
1803.84	367.101
1804.1	352.708
1804.35	349.841
1804.61	354.694
1804.86	348.025
1805.11	352.9
1805.37	373.19
1805.62	371.357
1805.87	371.448
1806.13	357.079
1806.38	387.006
1806.64	362.015
1806.89	360.136
1807.14	384.26
1807.4	356.322
1807.65	363.071
1807.9	370.781
1808.16	365.964
1808.41	366.933
1808.66	375.616
1808.92	353.456
1809.17	366.963
1809.42	373.723
1809.68	346.742
1809.93	355.432
1810.18	349.661
1810.44	370.882
1810.69	360.279
1810.94	362.187
1811.2	375.664
1811.45	373.729
1811.7	374.683
1811.96	374.676
1812.21	368.894
1812.46	372.767
1812.72	361.236
1812.97	378.644
1813.22	348.81
1813.48	366.224
1813.73	376.856
1813.98	348.927
1814.24	354.794
1814.49	367.439
1814.74	341.468
1815	385.05
1815.25	390.921
1815.5	379.385
1815.76	366.852
1816.01	355.272
1816.26	379.451
1816.52	385.269
1816.77	372.727
1817.02	371.786
1817.27	354.362
1817.53	350.442
1817.78	365.732
1818.03	353.052
1818.29	343.409
1818.54	363.755
1818.79	351.292
1819.05	378.406
1819.3	372.586
1819.55	357.149
1819.8	389.087
1820.06	370.765
1820.31	372.731
1820.56	377.608
1820.82	371.855
1821.07	358.355
1821.32	355.485
1821.58	374.88
1821.83	373.972
1822.08	375.96
1822.33	379.874
1822.59	371.196
1822.84	358.636
1823.09	366.399
1823.34	371.256
1823.6	383.832
1823.85	352.822
1824.1	348.912
1824.36	370.194
1824.61	364.414
1824.86	361.541
1825.11	367.38
1825.37	367.415
1825.62	377.137
1825.87	367.479
1826.12	370.389
1826.38	369.417
1826.63	378.139
1826.88	367.494
1827.14	364.596
1827.39	390.769
1827.64	349.151
1827.89	372.44
1828.15	373.444
1828.4	364.725
1828.65	363.739
1828.9	383.077
1829.16	383.02
1829.41	375.233
1829.66	359.721
1829.91	362.61
1830.17	371.303
1830.42	369.32
1830.67	455.447
1830.92	370.203
1831.18	363.425
1831.43	359.591
1831.68	368.354
1831.93	393.584
1832.19	343.264
1832.44	372.369
1832.69	346.259
1832.94	381.216
1833.2	382.238
1833.45	377.398
1833.7	366.742
1833.95	369.683
1834.2	391.996
1834.46	387.173
1834.71	374.47
1834.96	363.613
1835.21	399.257
1835.47	393.262
1835.72	376.695
1835.97	372.72
1836.22	357.236
1836.48	360.052
1836.73	380.941
1836.98	359.531
1837.23	388.129
1837.48	378.25
1837.74	362.483
1837.99	385.481
1838.24	400.554
1838.49	351.027
1838.74	361.608
1839	367.056
1839.25	376.038
1839.5	384.897
1839.75	370.415
1840	364.65
1840.26	385.096
1840.51	376.99
1840.76	376.723
1841.01	391.003
1841.27	380.168
1841.52	398.345
1841.77	371.121
1842.02	365.175
1842.27	370.829
1842.53	397.714
1842.78	384.077
1843.03	388.965
1843.28	377.35
1843.53	386.073
1843.78	369.666
1844.04	379.31
1844.29	343.58
1844.54	360.937
1844.79	384.132
1845.04	351.339
1845.3	375.391
1845.55	352.254
1845.8	366.723
1846.05	340.82
1846.3	360.276
1846.55	350.759
1846.81	355.838
1847.06	365.296
1847.31	368.624
1847.56	345.85
1847.81	365.947
1848.07	367.877
1848.32	349.763
1848.57	369.196
1848.82	388.265
1849.07	375.641
1849.32	377.577
1849.57	374.612
1849.83	355.254
1850.08	390.736
1850.33	356.955
1850.58	370.278
1850.83	384.584
1851.09	376.793
1851.34	341.163
1851.59	349.741
1851.84	355.449
1852.09	340.046
1852.34	355.391
1852.59	337.141
1852.84	355.384
1853.1	350.579
1853.35	352.487
1853.6	355.342
1853.85	363.941
1854.1	363.867
1854.35	346.49
1854.6	333.904
1854.86	372.166
1855.11	353.887
1855.36	379.716
1855.61	348.932
1855.86	372.768
1856.11	347.788
1856.36	350.628
1856.61	353.481
1856.87	370.719
1857.12	348.685
1857.37	365.907
1857.62	370.66
1857.87	361.038
1858.12	343.757
1858.37	362.846
1858.63	377.127
1858.88	370.34
1859.13	369.295
1859.38	353.898
1859.63	355.717
1859.88	356.608
1860.13	361.377
1860.38	350.86
1860.63	352.792
1860.89	349.031
1861.14	385.435
1861.39	349.14
1861.64	353.988
1861.89	370.31
1862.14	344.49
1862.39	366.479
1862.64	377.903
1862.9	373.036
1863.15	358.599
1863.4	347.037
1863.65	353.646
1863.9	338.275
1864.15	376.428
1864.4	348.651
1864.65	370.556
1864.9	363.802
1865.15	356.085
1865.4	391.31
1865.66	382.601
1865.91	356.713
1866.16	374.692
1866.41	357.374
1866.66	349.595
1866.91	353.255
1867.16	378.808
1867.41	351.052
1867.66	368.99
1867.91	385.045
1868.16	360.254
1868.41	366.866
1868.67	363.986
1868.92	371.595
1869.17	359.253
1869.42	365.903
1869.67	358.276
1869.92	361.102
1870.17	349.673
1870.42	345.85
1870.67	356.285
1870.92	372.425
1871.17	345.803
1871.42	362.902
1871.67	348.618
1871.92	355.228
1872.17	370.365
1872.42	359.868
1872.68	359.83
1872.93	375.905
1873.18	365.381
1873.43	370.075
1873.68	335.881
1873.93	345.344
1874.18	349.089
1874.43	362.305
1874.68	378.35
1874.93	346.004
1875.18	347.809
1875.43	378.994
1875.68	365.616
1875.93	366.43
1876.18	353.914
1876.43	334.85
1876.68	343.26
1876.93	342.228
1877.18	347.852
1877.43	354.292
1877.68	355.018
1877.93	364.045
1878.18	355.841
1878.44	359.037
1878.69	354.744
1878.93	340.388
1879.19	355.479
1879.44	364.34
1879.69	367.349
1879.94	366.287
1880.19	350.076
1880.44	350.056
1880.69	344.349
1880.94	365.258
1881.19	346.238
1881.44	380.3
1881.69	357.427
1881.94	344.95
1882.19	359.9
1882.44	374.821
1882.69	356.658
1882.94	355.461
1883.19	365.734
1883.44	360.75
1883.69	344.176
1883.94	359.682
1884.19	348.368
1884.44	351.221
1884.69	374.061
1884.94	368.203
1885.19	367.397
1885.44	330.795
1885.69	352.54
1885.94	383.724
1886.19	356.532
1886.44	336.784
1886.69	364.224
1886.94	344.353
1887.19	356.477
1887.44	358.282
1887.69	354.421
1887.94	359.991
1888.19	342.92
1888.44	338.105
1888.69	365.3
1888.94	365.17
1889.19	343.388
1889.44	377.174
1889.69	367.694
1889.94	356.382
1890.19	342.243
1890.44	362.043
1890.69	355.532
1890.94	329.242
1891.19	357.519
1891.43	351.852
1891.68	334.866
1891.94	351.809
1892.18	344.249
1892.43	343.287
1892.68	355.513
1892.93	347.927
1893.18	346.911
1893.43	360.898
1893.68	360.693
1893.93	356.753
1894.18	342.609
1894.43	356.763
1894.68	378.243
1894.93	349.047
1895.18	346.199
1895.43	356.541
1895.68	321.803
1895.93	352.842
1896.18	365.099
1896.43	361.385
1896.68	354.862
1896.93	342.707
1897.18	350.287
1897.42	362.558
1897.68	340.956
1897.92	354.139
1898.17	361.661
1898.42	355.993
1898.67	370.997
1898.92	347.421
1899.17	336.997
1899.42	364.165
1899.67	361.274
1899.92	344.32
1900.17	332.06
1900.42	356.439
1900.67	345.152
1900.92	353.615
1901.16	353.65
1901.41	369.681
1901.66	354.719
1901.91	365.127
1902.16	344.515
1902.41	350.238
1902.66	359.719
1902.91	340.908
1903.16	357.807
1903.41	337.076
1903.66	353.961
1903.91	340.763
1904.16	357.663
1904.41	348.241
1904.65	369.853
1904.9	348.214
1905.15	356.654
1905.4	340.656
1905.65	348.169
1905.9	349.087
1906.15	353.685
1906.4	353.56
1906.65	339.419
1906.9	355.343
1907.14	356.243
1907.39	353.398
1907.64	352.461
1907.89	349.662
1908.14	360.977
1908.39	361.044
1908.64	343.222
1908.89	345.119
1909.14	340.455
1909.39	355.544
1909.63	365.015
1909.88	335.958
1910.13	362.393
1910.38	376.624
1910.63	357.931
1910.88	357.1
1911.13	355.296
1911.38	351.583
1911.62	379.874
1911.87	346.918
1912.12	364.811
1912.37	334.643
1912.62	364.757
1912.87	328.957
1913.12	381.697
1913.37	328.953
1913.61	356.278
1913.86	343.142
1914.11	341.355
1914.36	372.568
1914.61	360.397
1914.86	362.356
1915.11	346.399
1915.36	346.466
1915.6	357.837
1915.85	327.66
1916.1	340.861
1916.35	368.193
1916.6	358.736
1916.85	371.89
1917.1	339.741
1917.34	381.171
1917.59	352.827
1917.84	355.616
1918.09	371.619
1918.34	360.314
1918.59	366.02
1918.83	367.986
1919.08	361.48
1919.33	364.419
1919.58	338.104
1919.83	348.632
1920.08	349.699
1920.33	380.946
1920.57	358.283
1920.82	350.681
1921.07	360.152
1921.32	366.859
1921.57	365.064
1921.81	374.574
1922.06	355.711
1922.31	359.525
1922.56	342.499
1922.81	357.601
1923.06	364.163
1923.31	365.054
1923.55	355.563
1923.8	340.408
1924.05	347.936
1924.3	353.555
1924.55	364.827
1924.79	327.934
1925.04	343.98
1925.29	357.219
1925.54	359.154
1925.79	348.832
1926.04	341.374
1926.28	335.794
1926.53	353.852
1926.78	348.271
1927.03	346.487
1927.28	340.877
1927.52	353.237
1927.77	345.709
1928.02	337.227
1928.27	354.314
1928.52	344.878
1928.76	389.428
1929.01	360.105
1929.26	351.621
1929.51	335.564
1929.76	361.233
1930	365.138
1930.25	367.127
1930.5	370.084
1930.75	358.784
1931	350.335
1931.24	359.854
1931.49	358.913
1931.74	358.884
1931.99	356.936
1932.24	359.734
1932.48	370.12
1932.73	350.14
1932.98	372.853
1933.23	337.732
1933.47	359.502
1933.72	377.547
1933.97	343.494
1934.22	342.711
1934.46	351.484
1934.71	335.631
1934.96	346.387
1935.21	354.263
1935.46	367.822
1935.7	358.467
1935.95	361.448
1936.2	354.533
1936.45	364.026
1936.69	361.142
1936.94	355.377
1937.19	356.254
1937.44	358.069
1937.68	371.325
1937.93	333.161
1938.18	332.146
1938.43	358.724
1938.68	357.767
1938.92	347.418
1939.17	374.118
1939.42	352.271
1939.67	366.616
1939.91	367.614
1940.16	365.768
1940.41	372.451
1940.66	363.01
1940.9	349.752
1941.15	363.337
1941.4	347.253
1941.64	361.565
1941.89	379.646
1942.14	357.57
1942.39	357.352
1942.63	353.667
1942.88	355.939
1943.13	358.886
1943.38	363.673
1943.62	361.614
1943.87	373.852
1944.12	370.859
1944.37	354.87
1944.61	355.9
1944.86	371.249
1945.11	361.783
1945.35	366.648
1945.6	348.583
1945.85	375.428
1946.1	369.774
1946.34	368.886
1946.59	361.291
1946.84	365.155
1947.09	343.177
1947.33	352.732
1947.58	351.744
1947.83	367.961
1948.07	357.432
1948.32	353.603
1948.57	362.204
1948.82	351.655
1949.06	366.013
1949.31	358.427
1949.56	356.585
1949.8	338.481
1950.05	342.393
1950.3	350.14
1950.54	336.879
1950.79	368.652
1951.04	341.944
1951.29	356.459
1951.53	376.75
1951.78	363.458
1952.03	353.009
1952.27	369.399
1952.52	376.176
1952.77	370.473
1953.01	363.734
1953.26	354.193
1953.51	350.439
1953.76	358.024
1954	347.323
1954.25	352.854
1954.49	338.268
1954.74	371.635
1954.99	375.295
1955.24	362.785
1955.48	363.729
1955.73	354.19
1955.98	341.826
1956.22	352.519
1956.47	367.16
1956.72	321.196
1956.96	375.061
1957.21	350.16
1957.46	383.856
1957.7	357.038
1957.95	349.418
1958.2	357.155
1958.44	378.334
1958.69	369.709
1958.94	372.611
1959.18	369.695
1959.43	376.348
1959.68	361.895
1959.92	357.076
1960.17	367.586
1960.42	366.565
1960.66	360.745
1960.91	352.04
1961.16	371.172
1961.4	353.826
1961.65	353.77
1961.9	350.853
1962.14	359.5
1962.39	338.404
1962.63	359.531
1962.88	355.706
1963.13	364.358
1963.37	344.213
1963.62	385.501
1963.87	345.194
1964.11	358.65
1964.36	355.813
1964.61	349.128
1964.85	349.12
1965.1	365.414
1965.35	362.539
1965.59	351.962
1965.84	378.853
1966.08	369.287
1966.33	353.028
1966.58	352.146
1966.82	375.286
1967.07	369.576
1967.32	365.777
1967.56	359.036
1967.81	337.891
1968.05	352.338
1968.3	339.853
1968.55	383.129
1968.79	359.085
1969.04	365.779
1969.29	356.101
1969.53	356.972
1969.78	335.723
1970.02	371.144
1970.27	360.485
1970.52	346.011
1970.76	370.911
1971.01	369.885
1971.25	350.639
1971.5	375.538
1971.75	334.254
1971.99	363.958
1972.24	352.473
1972.48	364.976
1972.73	366.912
1972.98	365.947
1973.22	363.035
1973.47	332.281
1973.71	348.506
1973.96	335.017
1974.21	357.977
1974.45	341.649
1974.7	359.845
1974.94	365.596
1975.19	327.266
1975.44	358.926
1975.68	332.126
1975.93	355.189
1976.17	346.603
1976.42	357.188
1976.66	361.046
1976.91	347.629
1977.16	382.162
1977.4	366.801
1977.65	350.468
1977.89	339.877
1978.14	340.78
1978.39	361.815
1978.63	350.26
1978.88	356.929
1979.12	354.988
1979.37	339.649
1979.61	333.907
1979.86	357.87
1980.1	347.338
1980.35	351.177
1980.6	369.352
1980.84	353.95
1981.09	374.968
1981.33	368.227
1981.58	355.719
1981.82	362.382
1982.07	341.284
1982.31	378.622
1982.56	376.69
1982.81	354.604
1983.05	386.137
1983.3	355.414
1983.54	350.522
1983.79	360.966
1984.03	345.623
1984.28	379.075
1984.52	374.254
1984.77	350.303
1985.02	353.14
1985.26	336.824
1985.51	365.41
1985.75	335.733
1986	359.627
1986.24	356.78
1986.49	363.519
1986.73	354.017
1986.98	346.396
1987.22	363.592
1987.47	343.535
1987.71	353.991
1987.96	339.548
1988.21	370.008
1988.45	365.09
1988.7	342.967
1988.94	347.517
1989.19	362.391
1989.43	350
1989.68	370.954
1989.92	349.18
1990.17	352.85
1990.41	338.1
1990.66	355.775
1990.9	354.214
1991.15	362.979
1991.39	348.882
1991.64	347.512
1991.88	358.48
1992.13	363.328
1992.37	356.692
1992.62	357.644
1992.86	357.592
1993.11	357.808
1993.35	353.521
1993.6	360.525
1993.84	363.066
1994.09	368.897
1994.33	352.059
1994.58	363.522
1994.82	352.983
1995.07	348.102
1995.31	346.363
1995.56	340.784
1995.8	352.435
1996.05	350.613
1996.29	349.133
1996.54	345.214
1996.78	345.106
1997.03	356.208
1997.27	356.706
1997.52	350.551
1997.76	358.152
1998.01	359.886
1998.25	363.466
1998.5	348.178
1998.74	351.962
1998.99	356.833
1999.23	348.737
1999.48	368.537
1999.72	360.441
1999.97	345.838
2000.21	356.809
2000.46	350.852
2000.7	352.926
2000.95	363.367
2001.19	359.721
2001.43	353.357
2001.68	353.868
2001.92	364.374
2002.17	357.673
2002.41	348.778
2002.66	349.106
2002.9	357.497
2003.15	359.849
2003.39	355.93
2003.64	353.98
2003.88	353.898
2004.13	358.012
2004.37	333.612
2004.61	333.519
2004.86	342.321
2005.1	349.777
2005.35	348.566
2005.59	347.69
2005.84	348.653
2006.08	348.48
2006.33	349.862
2006.57	359.728
2006.81	344.366
2007.06	340.804
2007.3	355.844
2007.55	354.63
2007.79	363.228
2008.04	357.003
2008.28	350.967
2008.53	360.541
2008.77	348.629
2009.01	344.303
2009.26	351.835
2009.5	342.843
2009.75	337.955
2009.99	353.93
2010.24	340.175
2010.48	348.835
2010.73	345.765
2010.97	348.17
2011.21	348.635
2011.46	349.696
2011.7	351.127
2011.95	368.819
2012.19	354.776
2012.43	350.974
2012.68	368.834
2012.92	332.084
2013.17	364.02
2013.42	345.07
2013.67	371.231
2013.91	345.734
2014.16	353.125
2014.41	340.753
2014.66	338.693
2014.9	358.242
2015.15	336.61
2015.4	376.04
2015.64	347.931
2015.89	349.867
2016.14	387.464
2016.39	336.725
2016.63	351.834
2016.88	355.852
2017.13	376.581
2017.37	350.241
2017.62	363.341
2017.87	349.162
2018.11	394.134
2018.36	344.222
2018.61	336.57
2018.86	333.63
2019.1	344.759
2019.35	357.742
2019.6	362.295
2019.84	345.36
2020.09	358.423
2020.34	353.711
2020.58	349.955
2020.83	351.81
2021.08	354.604
2021.33	351.812
2021.57	339.657
2021.82	355.58
2022.07	346.195
2022.31	349.908
2022.56	368.584
2022.81	361.023
2023.05	330.981
2023.3	367.379
2023.55	346.717
2023.8	369.086
2024.04	348.43
2024.29	357.702
2024.54	370.716
2024.78	360.314
2025.03	380.737
2025.27	342.323
2025.52	350.614
2025.77	367.306
2026.02	336.417
2026.26	360.545
2026.51	354.982
2026.76	345.783
2027	346.936
2027.25	354.675
2027.5	343.758
2027.74	342.069
2027.99	351.377
2028.23	340.867
2028.48	373.244
2028.73	339.616
2028.98	356.402
2029.22	346.463
2029.47	359.799
2029.72	365.754
2029.96	354.828
2030.21	333.892
2030.45	348.433
2030.7	354.942
2030.95	341.601
2031.19	339.984
2031.44	364.448
2031.69	328.003
2031.93	361.593
2032.18	366.268
2032.43	328.106
2032.67	341.284
2032.92	354.485
2033.17	355.536
2033.41	364.038
2033.66	361.308
2033.91	333.362
2034.15	368.947
2034.4	321.081
2034.64	353.555
2034.89	348.525
2035.14	333.506
2035.38	341.114
2035.63	331.894
2035.87	351.699
2036.12	341.672
2036.37	358.682
2036.61	349.312
2036.86	342.584
2037.11	377.182
2037.35	343.61
2037.6	361.371
2037.84	354.807
2038.09	375.338
2038.34	350.985
2038.58	355.607
2038.83	353.68
2039.08	347.081
2039.32	344.221
2039.57	334.819
2039.81	369.314
2040.06	360.827
2040.31	356.988
2040.55	353.155
2040.8	352.129
2041.04	354.84
2041.29	365.954
2041.54	343.512
2041.78	360.263
2042.03	354.646
2042.27	351.8
2042.52	350.824
2042.77	347.953
2043.01	359.104
2043.26	369.349
2043.5	347.95
2043.75	364.82
2044	359.371
2044.24	357.654
2044.49	357.708
2044.73	350.226
2044.98	338.947
2045.23	355.573
2045.47	373.881
2045.72	349.161
2045.96	343.671
2046.21	344.162
2046.45	384.028
2046.7	356.583
2046.95	356.235
2047.19	349.436
2047.44	340.115
2047.68	350.276
2047.93	338.805
2048.17	352.713
2048.42	355.524
2048.67	356.472
2048.91	333.186
2049.16	345.341
2049.4	338.901
2049.65	363.228
2049.89	350.267
2050.14	341.06
2050.39	375.701
2050.63	340.314
2050.88	331.959
2051.12	345.988
2051.37	352.505
2051.61	342.157
2051.86	365.398
2052.11	350.453
2052.35	332.718
2052.6	363.587
2052.84	331.848
2053.09	335.623
2053.33	341.281
2053.58	354.43
2053.82	342.371
2054.07	341.598
2054.31	342.597
2054.56	360.415
2054.8	365.103
2055.05	351.062
2055.3	361.332
2055.54	343.534
2055.79	365.892
2056.03	361.174
2056.28	345.261
2056.52	363.924
2056.77	362.949
2057.01	337.686
2057.26	355.442
2057.5	333.959
2057.75	342.398
2058	349.919
2058.24	363.063
2058.49	348.154
2058.73	371.627
2058.98	355.804
2059.22	355.878
2059.47	343.764
2059.71	334.423
2059.96	356.909
2060.2	337.255
2060.45	351.253
2060.69	359.621
2060.94	378.298
2061.18	346.52
2061.43	342.825
2061.67	340.051
2061.92	370.025
2062.16	346.625
2062.41	336.337
2062.65	342.915
2062.9	346.697
2063.14	372.035
2063.39	331.818
2063.63	327.189
2063.88	356.282
2064.12	344.137
2064.37	346.978
2064.61	364.815
2064.86	340.482
2065.1	353.659
2065.35	361.244
2065.59	367.921
2065.84	352.07
2066.08	359.665
2066.33	338.142
2066.57	338.188
2066.82	357.922
2067.06	328.846
2067.31	349.546
2067.55	327.971
2067.8	344.924
2068.04	351.558
2068.29	335.631
2068.53	361.042
2068.78	344.145
2069.02	349.836
2069.27	328.217
2069.51	363.887
2069.76	351.565
2070	348.592
2070.25	353.227
2070.49	364.53
2070.73	344.951
2070.98	357.347
2071.22	347.186
2071.47	369.733
2071.71	364.919
2071.96	362.516
2072.2	334.411
2072.45	352.278
2072.69	339.068
2072.94	359.772
2073.18	355.973
2073.43	355.03
2073.67	353.127
2073.92	361.615
2074.16	366.334
2074.4	365.413
2074.65	354.153
2074.89	365.522
2075.14	350.544
2075.38	347.838
2075.63	364.966
2075.87	357.613
2076.12	343.585
2076.36	342.704
2076.6	345.544
2076.85	352.166
2077.09	351.183
2077.34	360.546
2077.58	382.164
2077.83	372.554
2078.07	347.049
2078.31	331.058
2078.56	376.408
2078.8	350.025
2079.05	345.339
2079.29	326.515
2079.54	352.076
2079.78	337.133
2080.03	349.479
2080.27	342.927
2080.51	342.036
2080.76	354.365
2081	347.754
2081.25	336.378
2081.49	366.588
2081.74	361.852
2081.98	369.406
2082.22	370.336
2082.47	361.86
2082.71	356.217
2082.96	358.127
2083.2	341.123
2083.45	350.566
2083.69	360.945
2083.93	342.031
2084.18	363.764
2084.42	369.437
2084.67	342.029
2084.91	359.987
2085.15	362.833
2085.4	361.89
2085.64	357.163
2085.89	338.263
2086.13	343.956
2086.37	376.186
2086.62	351.72
2086.86	337.613
2087.11	377.377
2087.35	361.339
2087.59	372.753
2087.84	355.754
2088.08	368.059
2088.32	361.44
2088.57	352.93
2088.81	350.106
2089.06	370.948
2089.3	340.674
2089.54	373.862
2089.79	355.934
2090.03	338.98
2090.28	339.011
2090.52	346.606
2090.76	362.736
2091.01	365.611
2091.25	375.127
2091.5	364.743
2091.74	346.773
2091.98	354.447
2092.23	352.654
2092.47	364.151
2092.72	383.248
2092.96	367.243
2093.2	364.493
2093.45	359.835
2093.69	350.427
2093.93	364.767
2094.18	342.98
2094.42	349.699
2094.66	356.374
2094.91	353.52
2095.15	344.946
2095.39	362.031
2095.64	345.811
2095.88	340.994
2096.13	349.495
2096.37	359.904
2096.61	329.476
2096.86	344.662
2097.1	338.948
2097.34	365.495
2097.59	351.176
2097.83	356.801
2098.07	368.162
2098.32	370.039
2098.56	359.578
2098.8	364.27
2099.05	358.575
2099.29	346.226
2099.53	357.593
2099.78	347.137
2100.02	351.874
2100.27	351.876
2100.51	364.224
2100.75	353.803
2101	364.278
2101.24	360.57
2101.48	348.294
2101.73	359.734
2101.97	353.107
2102.21	378.752
2102.45	356.896
2102.7	356.897
2102.94	365.422
2103.18	346.369
2103.43	336.802
2103.67	369.989
2103.92	349.093
2104.16	358.564
2104.4	357.62
2104.64	335.815
2104.89	365.3
2105.13	354.908
2105.37	364.455
2105.62	390.167
2105.86	353.198
2106.1	353.265
2106.35	338.096
2106.59	349.536
2106.83	360.961
2107.08	346.716
2107.32	329.633
2107.56	369.577
2107.8	348.619
2108.05	365.66
2108.29	338.956
2108.53	368.311
2108.78	339.717
2109.02	357.685
2109.26	345.311
2109.51	375.709
2109.75	363.458
2109.99	364.481
2110.23	362.584
2110.48	335.035
2110.72	331.233
2110.96	349.28
2111.21	364.48
2111.45	371.125
2111.69	365.398
2111.93	371.995
2112.18	354.861
2112.42	353.889
2112.66	362.432
2112.91	358.668
2113.15	342.557
2113.39	371.096
2113.63	358.834
2113.88	338.949
2114.12	345.634
2114.36	358.918
2114.61	346.53
2114.85	352.224
2115.09	344.636
2115.33	348.444
2115.58	348.424
2115.82	352.194
2116.06	339.812
2116.31	374.937
2116.55	353.011
2116.79	354.84
2117.03	377.598
2117.28	365.232
2117.52	347.173
2117.76	370.927
2118	343.351
2118.25	348.992
2118.49	356.526
2118.73	360.226
2118.97	330.708
2119.22	383.746
2119.46	371.335
2119.7	358.93
2119.94	356.01
2120.19	357.839
2120.43	320.83
2120.67	349.237
2120.91	367.249
2121.16	338.878
2121.4	363.552
2121.64	368.372
2121.88	353.29
2122.13	353.368
2122.37	358.184
2122.61	345.914
2122.85	345.017
2123.1	347.91
2123.34	344.153
2123.58	348.927
2123.82	337.547
2124.07	345.113
2124.31	346.971
2124.55	364.942
2124.79	358.204
2125.03	366.596
2125.28	337.979
2125.52	351.092
2125.76	345.286
2126	335.709
2126.25	364.955
2126.49	340.252
2126.73	356.263
2126.97	346.726
2127.21	358.944
2127.46	342.792
2127.7	363.562
2127.94	355.978
2128.18	340.828
2128.43	338.899
2128.67	364.398
2128.91	364.398
2129.15	336.985
2129.39	337.916
2129.64	335.996
2129.88	328.411
2130.12	362.417
2130.36	349.167
2130.6	338.75
2130.85	353.841
2131.09	346.246
2131.33	355.648
2131.57	370.707
2131.81	370.647
2132.06	344.153
2132.3	366.778
2132.54	327.084
2132.78	348.727
2133.02	370.365
2133.27	366.554
2133.51	350.506
2133.75	362.786
2133.99	335.432
2134.23	358.083
2134.48	351.491
2134.72	347.726
2134.96	353.377
2135.2	361.859
2135.44	362.791
2135.68	356.165
2135.93	343.862
2136.17	357.008
2136.41	349.352
2136.65	351.13
2136.89	347.306
2137.14	349.205
2137.38	358.646
2137.62	340.739
2137.86	342.66
2138.1	346.506
2138.34	359.68
2138.59	337.892
2138.83	338.76
2139.07	341.65
2139.31	346.474
2139.55	344.668
2139.79	336.008
2140.03	359.439
2140.28	360.317
2140.52	358.376
2140.76	370.575
2141	367.707
2141.24	347.898
2141.49	363.878
2141.73	368.591
2141.97	364.748
2142.21	349.602
2142.45	367.454
2142.69	358.981
2142.93	348.693
2143.18	346.863
2143.42	349.032
2143.66	354.544
2143.9	357.408
2144.14	348.947
2144.38	366.868
2144.62	321.868
2144.87	380.289
2145.11	340.855
2145.35	358.519
2145.59	348.205
2145.83	344.458
2146.07	359.481
2146.31	359.449
2146.55	365.057
2146.8	359.385
2147.04	351.835
2147.28	364.956
2147.52	357.385
2147.76	336.664
2148	358.228
2148.24	346.916
2148.48	354.388
2148.73	331.805
2148.97	331.76
2149.21	339.218
2149.45	360.735
2149.69	336.248
2149.93	337.043
2150.17	353.844
2150.42	329.368
2150.66	352.734
2150.9	354.57
2151.14	361.123
2151.38	344.279
2151.62	353.711
2151.86	345.307
2152.1	332.231
2152.34	347.258
2152.58	357.624
2152.83	375.387
2153.07	345.326
2153.31	333.072
2153.55	349.887
2153.79	349.856
2154.03	357.319
2154.27	341.327
2154.51	353.42
2154.75	366.408
2154.99	338.166
2155.24	363.293
2155.48	338.809
2155.72	353.658
2155.96	356.355
2156.2	337.571
2156.44	326.293
2156.68	338.402
2156.92	339.319
2157.16	342.111
2157.4	336.506
2157.64	339.332
2157.89	340.312
2158.13	365.606
2158.37	346.97
2158.61	338.571
2158.85	327.35
2159.09	330.138
2159.33	339.453
2159.57	354.36
2159.81	363.643
2160.05	355.16
2160.29	347.599
2160.53	345.642
2160.77	352.098
2161.01	352.96
2161.25	367.85
2161.5	345.433
2161.74	330.47
2161.98	346.297
2162.22	373.337
2162.46	360.273
2162.7	338.815
2162.94	345.338
2163.18	338.776
2163.42	338.729
2163.66	320.97
2163.9	344.248
2164.14	343.276
2164.38	350.692
2164.62	353.41
2164.86	340.269
2165.11	354.187
2165.35	359.79
2165.59	336.529
2165.83	358.896
2166.07	349.581
2166.31	360.765
2166.55	337.427
2166.79	365.338
2167.03	341.994
2167.27	372.657
2167.51	337.214
2167.75	338.064
2167.99	332.377
2168.23	359.189
2168.47	340.43
2168.71	365.476
2168.95	337.576
2169.19	354.329
2169.43	342.287
2169.67	358.166
2169.91	355.475
2170.15	353.736
2170.39	347.355
2170.63	335.327
2170.87	350.255
2171.11	350.229
2171.35	367.848
2171.59	335.229
2171.83	347.19
2172.07	340.433
2172.31	342.164
2172.56	346.743
2172.79	335.53
2173.04	355.923
2173.28	332.684
2173.51	359.62
2173.76	360.543
2174	339.197
2174.24	371.764
2174.48	351.351
2174.72	346.719
2174.96	350.439
2175.2	337.423
2175.44	338.345
2175.68	350.402
2175.92	360.6
2176.16	339.213
2176.4	354.99
2176.64	349.384
2176.88	337.25
2177.12	375.313
2177.36	319.577
2177.6	343.736
2177.84	343.741
2178.08	327.94
2178.32	337.24
2178.55	342.78
2178.8	338.97
2179.03	349.113
2179.28	353.745
2179.52	345.403
2179.75	332.407
2180	347.265
2180.23	337.977
2180.47	338.902
2180.71	346.318
2180.95	330.511
2181.19	348.127
2181.43	330.477
2181.67	335.096
2181.91	347.12
2182.15	344.295
2182.39	348.915
2182.63	363.714
2182.87	358.11
2183.11	350.653
2183.35	354.293
2183.59	346.792
2183.83	334.637
2184.07	320.661
2184.31	333.583
2184.55	352.064
2184.79	353.899
2185.03	348.35
2185.27	351.163
2185.51	354.895
2185.75	332.677
2185.99	337.352
2186.23	349.46
2186.47	339.322
2186.7	325.469
2186.95	363.597
2187.18	351.642
2187.42	358.243
2187.66	349.99
2187.9	324.988
2188.14	356.584
2188.38	355.616
2188.62	353.696
2188.86	360.124
2189.1	351.691
2189.34	335.829
2189.58	360.783
2189.82	358.807
2190.06	372.613
2190.3	376.27
2190.54	366.983
2190.78	345.669
2191.01	342.916
2191.25	345.725
2191.49	337.379
2191.73	329.053
2191.97	368.953
2192.21	354.147
2192.45	358.815
2192.69	329.161
2192.93	348.67
2193.17	358.934
2193.41	352.5
2193.65	346.06
2193.89	354.492
2194.13	350
2194.36	360.39
2194.6	343.776
2194.84	336.399
2195.08	337.308
2195.32	342.844
2195.56	353.032
2195.8	339.965
2196.04	357.543
2196.28	348.151
2196.52	348.028
2196.76	359.053
2197	352.467
2197.23	361.676
2197.47	356.048
2197.71	370.833
2197.95	355.066
2198.19	345.8
2198.43	365.317
2198.67	354.269
2198.91	367.352
2199.15	346.108
2199.38	360.158
2199.62	338.896
2199.86	363.17
2200.1	343.767
2200.34	379.276
2200.58	354.354
2200.82	377.795
2201.06	347.212
2201.3	356.631
2201.54	339.012
2201.77	346.322
2202.01	344.104
2202.25	351.727
2202.49	357.711
2202.73	349.588
2202.97	360.421
2203.21	351.402
2203.45	355.021
2203.68	353.086
2203.92	366.422
2204.16	348.935
2204.4	341.976
2204.64	373.65
2204.88	354.129
2205.12	360.408
2205.36	362.877
2205.59	357.005
2205.83	359.593
2206.07	379.991
2206.31	342.81
2206.55	369.856
2206.79	351.268
2207.03	354.855
2207.26	362.314
2207.5	375.385
2207.74	367.084
2207.98	341.113
2208.22	388.638
2208.46	336.606
2208.7	344.12
2208.93	340.458
2209.17	365.648
2209.41	372.204
2209.65	345.219
2209.89	376.885
2210.13	370.354
2210.36	348.015
2210.6	376.003
2210.84	351.835
2211.08	359.345
2211.32	356.607
2211.56	359.457
2211.8	363.246
2212.03	339.082
2212.27	350.346
2212.51	351.331
2212.75	346.693
2212.99	340.139
2213.23	371.815
2213.46	364.318
2213.7	354.934
2213.94	347.412
2214.18	353.025
2214.42	361.487
2214.66	359.771
2214.89	361.777
2215.13	357.148
2215.37	365.581
2215.61	348.8
2215.85	350.682
2216.08	345.089
2216.32	352.559
2216.56	346.018
2216.8	358.145
2217.04	359.062
2217.28	344.11
2217.51	342.241
2217.75	378.664
2217.99	363.743
2218.23	341.333
2218.47	359.068
2218.7	367.487
2218.94	359.119
2219.18	356.367
2219.42	351.76
2219.66	346.219
2219.9	340.651
2220.13	348.17
2220.37	348.204
2220.61	365.953
2220.85	334.161
2221.09	351.904
2221.32	345.326
2221.56	352.717
2221.8	347.018
2222.04	331.066
2222.27	357.143
2222.51	330.026
2222.75	342.151
2222.99	341.242
2223.23	339.423
2223.46	365.62
2223.7	340.465
2223.94	318.124
2224.18	322.89
2224.42	348.229
2224.65	358.615
2224.89	339.062
2225.13	342.879
2225.37	335.467
2225.6	341.166
2225.84	357.18
2226.08	344.149
2226.32	340.475
2226.56	331.18
2226.79	354.657
2227.03	339.737
2227.27	345.427
2227.51	337.982
2227.74	357.714
2227.98	329.605
2228.22	339.911
2228.46	327.695
2228.69	354.862
2228.93	367.025
2229.17	353.88
2229.41	340.736
2229.64	340.735
2229.88	351.106
2230.12	369.018
2230.36	325.016
2230.6	352.285
2230.83	344.845
2231.07	329.896
2231.31	336.538
2231.55	352.582
2231.78	328.245
2232.02	333.945
2232.26	346.229
2232.5	345.357
2232.73	336.024
2232.97	344.548
2233.21	350.257
2233.45	350.32
2233.68	359.793
2233.92	343.863
2234.16	357.089
2234.39	354.305
2234.63	368.404
2234.87	349.55
2235.11	345.743
2235.34	340.976
2235.58	359.666
2235.82	344.528
2236.06	337.953
2236.29	346.43
2236.53	358.675
2236.77	344.588
2237	356.829
2237.24	345.56
2237.48	339.056
2237.72	347.598
2237.95	327.02
2238.19	352.586
2238.43	335.762
2238.67	365.072
2238.9	349.142
2239.14	360.564
2239.38	357.866
2239.61	346.569
2239.85	340.878
2240.09	327.626
2240.33	335.078
2240.56	342.538
2240.8	362.293
2241.04	353.017
2241.27	360.7
2241.51	332.418
2241.75	352.254
2241.99	334.353
2242.22	356.079
2242.46	354.223
2242.7	326.888
2242.93	325.985
2243.17	372.251
2243.41	323.146
2243.64	355.196
2243.88	350.423
2244.12	356.058
2244.36	351.329
2244.59	339.072
2244.83	329.685
2245.07	346.777
2245.3	374.311
2245.54	329.093
2245.78	355.634
2246.01	350.978
2246.25	348.216
2246.49	368.147
2246.72	352.13
2246.96	339.867
2247.2	333.295
2247.43	359.842
2247.67	358.933
2247.91	351.378
2248.14	359.891
2248.38	358.926
2248.62	357.011
2248.85	347.525
2249.09	348.452
2249.33	328.562
2249.56	342.741
2249.8	343.747
2250.04	334.324
2250.27	345.678
2250.51	330.493
2250.75	336.105
2250.98	364.415
2251.22	331.226
2251.46	347.24
2251.69	332.062
2251.93	340.552
2252.17	357.583
2252.4	334.929
2252.64	343.493
2252.88	346.4
2253.11	354.081
2253.35	347.646
2253.59	343.991
2253.82	350.725
2254.06	357.442
2254.3	348.978
2254.53	350.942
2254.77	334.871
2255.01	327.292
2255.24	357.599
2255.48	345.29
2255.72	323.485
2255.95	356.684
2256.19	339.63
2256.42	352.967
2256.66	332.164
2256.9	357.839
2257.13	364.54
2257.37	334.23
2257.61	355.169
2257.84	343.831
2258.08	360.012
2258.32	352.436
2258.55	348.652
2258.79	324.932
2259.02	352.508
2259.26	328.81
2259.5	343.111
2259.73	339.344
2259.97	350.776
2260.2	358.42
2260.44	345.151
2260.68	351.839
2260.91	343.316
2261.15	339.566
2261.39	367.259
2261.62	349.261
2261.86	359.743
2262.1	331.22
2262.33	363.602
2262.57	343.648
2262.8	368.445
2263.04	359.003
2263.28	347.656
2263.51	371.562
2263.75	321.177
2263.98	330.822
2264.22	340.489
2264.46	334.895
2264.69	360.777
2264.93	348.473
2265.16	344.739
2265.4	331.44
2265.64	353.469
2265.87	328.645
2266.11	350.63
2266.34	353.468
2266.58	362.94
2266.81	325.618
2267.05	354.173
2267.29	340.734
2267.52	338.769
2267.76	338.718
2267.99	335.802
2268.23	356.709
2268.47	349.02
2268.7	356.626
2268.94	355.684
2269.17	333.8
2269.41	346.271
2269.65	335.868
2269.88	364.597
2270.12	329.382
2270.35	323.767
2270.59	349.665
2270.82	340.177
2271.06	337.353
2271.3	347.942
2271.53	359.477
2271.77	380.56
2272	334.71
2272.24	336.687
2272.47	347.245
2272.71	350.123
2272.95	349.182
2273.18	359.726
2273.42	327.215
2273.65	354.982
2273.89	331.078
2274.12	337.795
2274.36	359.825
2274.6	351.228
2274.83	339.76
2275.07	350.309
2275.3	339.804
2275.54	340.78
2275.77	336.015
2276.01	361.855
2276.24	348.503
2276.48	336.135
2276.72	357.297
2276.95	357.376
2277.18	342.113
2277.42	327.81
2277.66	351.895
2277.89	363.541
2278.13	353.126
2278.36	367.682
2278.6	355.253
2278.83	349.517
2279.07	349.521
2279.3	337.023
2279.54	349.486
2279.78	347.502
2280.01	335.827
2280.24	339.567
2280.48	334.678
2280.72	350.903
2280.95	335.493
2281.19	337.361
2281.42	352.666
2281.66	332.491
2281.89	338.21
2282.13	355.501
2282.36	346.9
2282.6	355.579
2282.83	351.814
2283.07	346.142
2283.3	340.466
2283.54	339.604
2283.77	349.34
2284.01	332.214
2284.24	329.472
2284.48	352.703
2284.71	345.105
2284.95	356.687
2285.19	362.543
2285.42	343.38
2285.65	328.971
2285.89	365.551
2286.12	325.061
2286.36	343.212
2286.59	356.666
2286.83	335.531
2287.06	342.321
2287.3	340.557
2287.54	345.506
2287.77	341.706
2288	347.522
2288.24	329.313
2288.47	331.216
2288.71	342.724
2288.94	335.931
2289.18	332.018
2289.41	357.907
2289.65	343.338
2289.88	349.953
2290.12	345.961
2290.35	326.683
2290.59	328.572
2290.82	348.761
2291.06	338.193
2291.29	369.974
2291.53	345.066
2291.76	340.371
2292	360.658
2292.23	352.059
2292.47	352.121
2292.7	357.003
2292.94	367.683
2293.17	365.839
2293.41	346.633
2293.64	346.686
2293.88	341.906
2294.11	348.673
2294.34	363.103
2294.58	356.314
2294.81	344.696
2295.05	359.08
2295.28	349.397
2295.52	357.053
2295.75	329.075
2295.99	351.174
2296.22	337.654
2296.46	335.649
2296.69	345.132
2296.93	351.847
2297.16	348.027
2297.39	348.077
2297.63	346.217
2297.86	341.482
2298.1	367.58
2298.33	364.816
2298.57	349.481
2298.8	337.967
2299.04	338.034
2299.27	340.05
2299.51	336.267
2299.74	340.185
2299.97	318.996
2300.21	349.86
2300.44	346.003
2300.68	363.357
2300.91	357.612
2301.15	346.095
2301.38	350
2301.61	361.622
2301.85	359.716
2302.08	352.002
2302.32	354.887
2302.55	337.481
2302.79	358.69
2303.02	340.361
2303.25	339.388
2303.49	348.055
2303.72	343.223
2303.96	345.16
2304.19	329.751
2304.43	362.63
2304.66	325.998
2304.89	363.695
2305.13	316.424
2305.36	334.838
2305.6	345.503
2305.83	351.317
2306.07	361.975
2306.3	360.089
2306.53	349.502
2306.77	341.785
2307	345.658
2307.24	351.453
2307.47	334.044
2307.7	353.341
2307.94	342.667
2308.17	335.877
2308.41	359.034
2308.64	350.308
2308.87	330.985
2309.11	366.748
2309.34	332.016
2309.58	322.408
2309.81	344.724
2310.04	356.438
2310.28	341.039
2310.51	334.301
2310.75	358.495
2310.98	329.463
2311.21	341.035
2311.45	339.021
2311.68	349.457
2311.92	338.605
2312.15	354.898
2312.38	334.536
2312.62	362.476
2312.85	352.761
2313.08	362.364
2313.32	363.323
2313.55	349.855
2313.79	344.171
2314.02	349.134
2314.25	337.646
2314.49	342.577
2314.72	351.382
2314.95	329.275
2315.19	353.569
2315.42	343.955
2315.66	337.093
2315.89	328.305
2316.12	332.104
2316.36	346.512
2316.59	340.525
2316.82	353.947
2317.06	348.102
2317.29	342.3
2317.52	340.387
2317.76	357.788
2317.99	344.361
2318.23	350.22
2318.46	316.296
2318.69	335.555
2318.93	353.855
2319.16	349.937
2319.39	343.12
2319.63	354.65
2319.86	352.68
2320.09	347.829
2320.33	358.444
2320.56	342.049
2320.79	363.275
2321.03	342.079
2321.26	349.852
2321.5	355.702
2321.73	335.492
2321.96	350.052
2322.2	346.288
2322.43	357.027
2322.66	344.554
2322.9	343.622
2323.13	324.271
2323.36	332.02
2323.6	347.513
2323.83	355.269
2324.06	347.557
2324.3	329.195
2324.53	355.288
2324.76	333.999
2325	336.816
2325.23	352.172
2325.46	344.316
2325.7	344.234
2325.93	342.234
2326.16	337.338
2326.4	333.406
2326.63	358.424
2326.86	348.696
2327.09	343.796
2327.33	329.253
2327.56	342.676
2327.79	373.474
2328.03	362.807
2328.26	324.213
2328.49	354.107
2328.73	339.651
2328.96	348.334
2329.19	355.008
2329.43	377.099
2329.66	353.878
2329.89	341.322
2330.13	354.79
2330.36	360.616
2330.59	325.914
2330.82	339.37
2331.06	348.004
2331.29	352.806
2331.52	346.088
2331.76	332.654
2331.99	353.903
2332.22	357.843
2332.46	343.293
2332.69	345.149
2332.92	342.209
2333.16	343.123
2333.39	360.406
2333.62	343.994
2333.85	330.479
2334.09	341.996
2334.32	344.835
2334.55	326.494
2334.79	330.254
2335.02	355.21
2335.25	364.789
2335.48	355.159
2335.72	354.176
2335.95	337.841
2336.18	331.132
2336.41	359.009
2336.65	362.817
2336.88	337.792
2337.11	338.737
2337.34	345.454
2337.58	337.744
2337.81	332.922
2338.04	335.776
2338.28	331.906
2338.51	339.58
2338.74	336.679
2338.97	344.357
2339.21	329.951
2339.44	325.152
2339.67	348.219
2339.91	345.324
2340.14	336.644
2340.37	349.094
2340.6	347.112
2340.84	338.405
2341.07	346.972
2341.3	334.391
2341.53	329.482
2341.77	338.95
2342	337.891
2342.23	351.255
2342.46	331.058
2342.7	345.387
2342.93	344.389
2343.16	348.201
2343.39	348.193
2343.63	345.32
2343.86	345.303
2344.09	377.878
2344.32	344.333
2344.56	339.563
2344.79	336.698
2345.02	329.018
2345.25	347.208
2345.49	357.714
2345.72	348.071
2345.95	353.727
2346.18	324.923
2346.41	331.564
2346.65	349.735
2346.88	364.078
2347.11	343.95
2347.34	334.344
2347.58	339.103
2347.81	330.478
2348.04	358.25
2348.27	360.187
2348.5	338.205
2348.74	341.104
2348.97	336.313
2349.2	353.517
2349.43	341.968
2349.67	340.863
2349.9	320.626
2350.13	334.805
2350.36	329.825
2350.59	341.994
2350.83	348.221
2351.06	343.67
2351.29	337.546
2351.52	317.67
2351.75	333.319
2351.99	353.651
2352.22	342.754
2352.45	335.148
2352.68	344.735
2352.91	363.602
2353.15	345.158
2353.38	341.101
2353.61	353.573
2353.84	346.873
2354.07	333.47
2354.31	344.904
2354.54	336.317
2354.77	340.211
2355	341.245
2355.23	327.893
2355.47	343.116
2355.7	328.793
2355.93	335.429
2356.16	347.771
2356.39	333.424
2356.63	334.267
2356.86	336.009
2357.09	333.977
2357.32	345.32
2357.55	337.652
2357.79	318.58
2358.02	353.704
2358.25	332.742
2358.48	341.259
2358.71	343.131
2358.94	356.357
2359.18	324.969
2359.41	342.044
2359.64	354.371
2359.87	333.432
2360.1	349.516
2360.33	337.097
2360.57	339.864
2360.8	341.682
2361.03	343.499
2361.26	332.982
2361.49	328.157
2361.72	324.281
2361.96	346.946
2362.19	347.801
2362.42	323.071
2362.65	338.137
2362.88	316.28
2363.11	358.815
2363.34	318.049
2363.58	353.96
2363.81	328.368
2364.04	329.276
2364.27	343.426
2364.5	354.726
2364.73	323.46
2364.97	326.247
