#Acq. time (s)=	30
#Accumulations=	2
#Range (cm-¹)=	1200...2999
#Windows=	5
#Auto scanning=	Off
#Autofocus=	Off
#Macrospot=	Off
#AutoExposure=	Off
#Spike filter=	Multiple accum.
#Delay time (s)=	2
#Binning=	1
#Readout mode=	Signal
#DeNoise=	Off
#ICS correction=	On
#Dark correction=	Off
#Inst. Process=	Off
#Detector Gain=	Best Dynamic
#Detector ADC=	50 kHz EM
#Detector EM gain=	150
#Detector temperature (°C)=	-60.09
#Instrument=	LabRAM HR Evol
#Detector=	SIN-EM FIVIS
#Objective=	x100_VIS_LWD
#Grating=	1800 (450-850nm)
#ND Filter=	100%
#Laser=	532nm_Edge
#Hole=	30.0125
#Temperature=	40
#Range=	Visible
#StageXY=	75x50mm Scan+
#StageZ=	Z motor
#X (µm)=	0
#Y (µm)=	0
#Z (µm)=	65
#Full time(mm:ss)=	5:33
#Project=	21_08_11
#Sample=	BU32
#Site=	
#Title=	BU32-B-FF2-FI02-V_1800 (450-850nm)_532nm_Edge_100%_x100_VIS_LWD_H30um_30sX2
#Remark=	
#Date=	13.08.2021 16:12
#Acquired=	13.08.2021 16:12:23
1200.05	359.941
1200.33	345.85
1200.61	341.44
1200.89	339.069
1201.16	342.057
1201.44	353.699
1201.72	350.401
1202	354.866
1202.28	360.74
1202.55	345.845
1202.83	354.241
1203.11	355.065
1203.39	347.342
1203.67	350.444
1203.94	359.034
1204.22	360.165
1204.5	343.976
1204.78	352.447
1205.06	355.523
1205.33	337.109
1205.61	355.189
1205.89	353.949
1206.17	355.927
1206.44	345.045
1206.72	351.335
1207	350.171
1207.28	355.441
1207.55	347.887
1207.83	347.819
1208.11	339.157
1208.39	339.063
1208.67	356.085
1208.94	348.554
1209.22	354.953
1209.5	352.785
1209.78	355.923
1210.05	345.097
1210.33	342.822
1210.61	346.98
1210.89	341.515
1211.16	351.013
1211.44	357.275
1211.72	348.608
1212	345.313
1212.27	343.083
1212.55	345.111
1212.83	350.364
1213.11	332.216
1213.38	339.598
1213.66	348.126
1213.94	351.334
1214.22	349.21
1214.49	341.755
1214.77	347.065
1215.05	349.177
1215.33	342.767
1215.6	352.259
1215.88	337.243
1216.16	341.35
1216.44	351.841
1216.71	346.42
1216.99	331.449
1217.27	345.158
1217.54	347.201
1217.82	340.754
1218.1	345.987
1218.38	340.638
1218.65	336.371
1218.93	353.315
1219.21	344.787
1219.49	344.722
1219.76	338.345
1220.04	348.955
1220.32	349.996
1220.59	351.025
1220.87	333.996
1221.15	353.021
1221.43	356.101
1221.7	334.776
1221.98	342.037
1222.26	338.691
1222.53	351.223
1222.81	339.434
1223.09	340.345
1223.36	342.341
1223.64	349.612
1223.92	350.579
1224.2	349.457
1224.47	339.906
1224.75	344.116
1225.03	344.152
1225.3	344.193
1225.58	346.348
1225.86	337.887
1226.13	344.197
1226.41	342.025
1226.69	335.632
1226.96	341.799
1227.24	336.213
1227.52	351.799
1227.79	342.122
1228.07	350.221
1228.35	337.338
1228.63	340.446
1228.9	344.376
1229.18	340.916
1229.45	343.824
1229.73	347.706
1230.01	351.779
1230.28	363.411
1230.56	341.137
1230.84	342.507
1231.11	350.982
1231.39	335.213
1231.67	347.814
1231.94	340.415
1232.22	355.116
1232.5	348.794
1232.77	347.708
1233.05	338.243
1233.33	341.411
1233.6	344.594
1233.88	347.779
1234.16	341.523
1234.43	342.634
1234.71	344.763
1234.99	352.153
1235.26	337.478
1235.54	351.176
1235.82	345.917
1236.09	333.26
1236.37	339.514
1236.65	344.699
1236.92	333.028
1237.2	350.762
1237.47	353.786
1237.75	337.918
1238.03	344.089
1238.3	340.843
1238.58	338.686
1238.86	358.558
1239.13	353.278
1239.41	338.579
1239.68	342.76
1239.96	362.673
1240.24	346.959
1240.51	343.831
1240.79	341.749
1241.07	335.435
1241.34	347.949
1241.62	340.571
1241.89	336.381
1242.17	345.836
1242.45	353.215
1242.72	346.978
1243	354.315
1243.27	351.169
1243.55	357.482
1243.83	339.661
1244.1	348.024
1244.38	345.896
1244.65	333.25
1244.93	345.737
1245.21	337.243
1245.48	345.504
1245.76	347.542
1246.03	339.141
1246.31	345.419
1246.59	349.602
1246.86	349.574
1247.14	334.911
1247.41	343.252
1247.69	345.226
1247.97	348.286
1248.24	344.084
1248.52	343.055
1248.79	342.035
1249.07	355.615
1249.34	331.545
1249.62	349.328
1249.9	340.897
1250.17	349.173
1250.45	333.416
1250.72	355.294
1251	347.918
1251.27	334.278
1251.55	336.306
1251.83	340.421
1252.1	345.577
1252.38	340.286
1252.65	348.57
1252.93	342.271
1253.2	344.357
1253.48	351.712
1253.76	341.34
1254.03	342.456
1254.31	345.623
1254.58	349.802
1254.86	350.872
1255.13	349.83
1255.41	353.989
1255.68	351.915
1255.96	351.94
1256.23	350.949
1256.51	341.569
1256.79	338.421
1257.06	333.149
1257.34	344.606
1257.61	341.448
1257.89	349.772
1258.16	353.914
1258.44	343.387
1258.71	346.503
1258.99	354.897
1259.27	336.141
1259.54	339.44
1259.82	357.101
1260.09	347.625
1260.37	344.366
1260.64	343.236
1260.92	362.997
1261.19	344.241
1261.47	352.887
1261.74	357.509
1262.02	344.254
1262.29	356.201
1262.57	368.298
1262.84	368.049
1263.12	362.156
1263.39	390.637
1263.67	386.8
1263.94	399.626
1264.22	399.36
1264.49	397.159
1264.77	392.973
1265.04	374.141
1265.32	378.244
1265.59	352.117
1265.87	355.275
1266.14	362.637
1266.42	354.341
1266.7	351.285
1266.97	352.424
1267.24	339.973
1267.52	344.269
1267.79	346.51
1268.07	343.504
1268.35	344.621
1268.62	349.916
1268.89	344.723
1269.17	352.045
1269.44	353.018
1269.72	357.102
1269.99	343.411
1270.27	352.751
1270.54	351.64
1270.82	355.799
1271.09	356.802
1271.37	345.309
1271.64	364.224
1271.92	343.388
1272.19	347.705
1272.47	345.705
1272.74	352.083
1273.02	355.322
1273.29	362.754
1273.57	358.656
1273.84	339.839
1274.12	351.397
1274.39	357.68
1274.66	347.19
1274.94	350.372
1275.21	370.362
1275.49	358.884
1275.76	344.274
1276.04	353.787
1276.31	353.856
1276.59	352.856
1276.86	350.839
1277.14	353.027
1277.41	343.654
1277.69	354.235
1277.96	351.144
1278.23	348.093
1278.51	341.839
1278.78	352.424
1279.06	342.938
1279.33	350.275
1279.61	350.231
1279.88	354.42
1280.15	352.345
1280.43	370.255
1280.7	358.77
1280.98	363.098
1281.25	363.157
1281.53	369.46
1281.8	383.176
1282.08	374.809
1282.35	401.073
1282.62	424.052
1282.9	497.251
1283.17	541.171
1283.45	639.965
1283.72	758.865
1284	1048.25
1284.27	1320.29
1284.54	1334.06
1284.82	1056.41
1285.09	777.004
1285.37	575.901
1285.64	501.264
1285.91	424.405
1286.19	405.363
1286.46	407.464
1286.74	387.44
1287.01	387.387
1287.28	383.108
1287.56	373.591
1287.83	367.271
1288.11	365.177
1288.38	352.57
1288.66	369.464
1288.93	364.266
1289.2	356.962
1289.48	362.302
1289.75	359.209
1290.02	370.805
1290.3	357.071
1290.57	349.677
1290.85	347.565
1291.12	345.455
1291.39	362.295
1291.67	362.295
1291.94	354.946
1292.22	344.402
1292.49	359.115
1292.76	350.703
1293.04	355.019
1293.31	355.168
1293.59	357.427
1293.86	346.943
1294.13	349.049
1294.41	360.632
1294.68	343.805
1294.95	360.827
1295.23	342.018
1295.5	366.552
1295.77	355.099
1296.05	354.089
1296.32	337.188
1296.6	349.841
1296.87	346.613
1297.14	358.166
1297.42	342.242
1297.69	351.659
1297.96	347.457
1298.24	347.445
1298.51	352.668
1298.78	341.006
1299.06	354.676
1299.33	352.555
1299.6	351.555
1299.88	351.596
1300.15	347.386
1300.43	352.653
1300.7	361.086
1300.97	357.933
1301.25	352.71
1301.52	349.598
1301.79	347.519
1302.07	355.983
1302.34	344.361
1302.61	344.341
1302.89	362.261
1303.16	350.584
1303.43	348.454
1303.71	349.517
1303.98	351.631
1304.25	344.237
1304.53	346.311
1304.8	337.808
1305.07	355.677
1305.35	340.826
1305.62	350.237
1305.89	349.111
1306.17	340.64
1306.44	356.455
1306.71	346.996
1306.98	349.119
1307.26	344.896
1307.53	342.781
1307.8	357.573
1308.08	348.056
1308.35	354.4
1308.62	353.402
1308.9	346.066
1309.17	344.008
1309.44	334.548
1309.71	346.151
1309.99	348.238
1310.26	344.016
1310.53	346.141
1310.81	353.549
1311.08	341.956
1311.35	343.035
1311.63	346.262
1311.9	356.875
1312.17	343.176
1312.45	345.283
1312.72	345.227
1312.99	343.099
1313.26	351.518
1313.54	350.436
1313.81	360.988
1314.08	359.952
1314.36	349.431
1314.63	349.474
1314.9	338.957
1315.17	353.787
1315.45	345.384
1315.72	354.884
1315.99	350.638
1316.26	349.567
1316.54	353.782
1316.81	343.22
1317.08	355.939
1317.36	351.751
1317.63	357.057
1317.9	346.509
1318.17	363.422
1318.45	360.256
1318.72	354.966
1318.99	348.614
1319.26	358.109
1319.54	353.905
1319.81	351.8
1320.08	347.559
1320.35	343.288
1320.63	341.104
1320.9	348.4
1321.17	338.79
1321.44	339.786
1321.72	343.908
1321.99	349.134
1322.26	355.414
1322.53	340.604
1322.81	350.012
1323.08	344.785
1323.35	344.802
1323.62	350.083
1323.9	342.689
1324.17	341.645
1324.44	353.227
1324.71	342.719
1324.99	348.967
1325.26	343.546
1325.53	352.84
1325.8	356.781
1326.08	347.202
1326.35	346.109
1326.62	351.464
1326.89	360.136
1327.16	341.302
1327.44	359.335
1327.71	336.281
1327.98	335.361
1328.25	348.13
1328.53	352.405
1328.8	340.74
1329.07	341.84
1329.34	346.048
1329.61	357.627
1329.89	347.035
1330.16	351.193
1330.43	345.842
1330.7	348.904
1330.98	362.474
1331.25	341.249
1331.52	346.391
1331.79	348.401
1332.06	346.194
1332.33	355.545
1332.61	350.16
1332.88	351.098
1333.15	347.838
1333.42	347.74
1333.69	344.492
1333.97	347.553
1334.24	347.467
1334.51	352.641
1334.78	350.475
1335.05	337.82
1335.33	349.299
1335.6	347.144
1335.87	360.724
1336.14	343.9
1336.41	336.521
1336.69	346.972
1336.96	340.654
1337.23	355.292
1337.5	353.118
1337.77	351.983
1338.04	345.646
1338.32	336.166
1338.59	348.691
1338.86	337.161
1339.13	349.736
1339.4	349.757
1339.67	357.097
1339.95	355.014
1340.22	353.981
1340.49	348.741
1340.76	343.49
1341.03	356.033
1341.3	344.479
1341.58	349.661
1341.85	348.542
1342.12	348.453
1342.39	350.454
1342.66	338.893
1342.93	347.234
1343.2	356.633
1343.48	351.401
1343.75	337.81
1344.02	338.858
1344.29	348.244
1344.56	331.461
1344.83	347.071
1345.1	348.011
1345.38	343.741
1345.65	337.364
1345.92	339.292
1346.19	355.872
1346.46	347.421
1346.73	345.228
1347	342.003
1347.28	346.106
1347.55	335.637
1347.82	341.86
1348.09	352.257
1348.36	351.165
1348.63	359.436
1348.9	354.159
1349.18	358.259
1349.45	325.916
1349.72	350.845
1349.99	348.7
1350.26	349.659
1350.53	347.491
1350.8	347.431
1351.07	337.986
1351.34	347.312
1351.62	338.984
1351.89	353.577
1352.16	330.765
1352.43	340.232
1352.7	337.153
1352.97	341.582
1353.24	356.544
1353.51	344.806
1353.78	359.891
1354.06	354.277
1354.33	342.876
1354.6	347.081
1354.87	349.048
1355.14	353.11
1355.41	352.173
1355.68	336.654
1355.95	348
1356.22	344.849
1356.49	347.935
1356.76	353.096
1357.04	347.86
1357.3	340.54
1357.58	334.254
1357.85	354.952
1358.12	348.665
1358.39	343.411
1358.66	344.38
1358.93	345.366
1359.2	341.175
1359.47	351.465
1359.74	348.249
1360.01	346.081
1360.28	347.046
1360.56	343.907
1360.83	332.505
1361.1	349.068
1361.37	356.299
1361.64	347.977
1361.91	357.257
1362.18	355.152
1362.45	349.959
1362.72	346.87
1362.99	340.711
1363.26	344.902
1363.53	349.087
1363.8	347.021
1364.07	340.784
1364.34	344.893
1364.61	364.511
1364.89	349.938
1365.16	347.786
1365.43	343.568
1365.7	348.665
1365.97	346.516
1366.24	339.181
1366.51	347.337
1366.78	352.44
1367.05	341.037
1367.32	342.103
1367.59	343.169
1367.86	347.325
1368.13	353.549
1368.4	362.875
1368.67	342.226
1368.94	355.693
1369.21	390.813
1369.48	375.261
1369.75	378.32
1370.02	373.063
1370.29	363.709
1370.56	339.885
1370.83	357.354
1371.1	350.011
1371.37	350.908
1371.64	339.426
1371.91	348.589
1372.18	342.308
1372.45	339.153
1372.72	345.291
1372.99	342.156
1373.26	353.456
1373.54	331.787
1373.8	356.491
1374.07	361.62
1374.34	345.11
1374.61	352.278
1374.89	345.074
1375.16	346.147
1375.42	353.354
1375.69	349.258
1375.96	366.688
1376.24	352.184
1376.51	348.986
1376.77	340.595
1377.04	351.944
1377.31	344.821
1377.58	363.487
1377.86	347.176
1378.12	349.447
1378.39	366.014
1378.66	340.232
1378.93	359.775
1379.2	355.604
1379.47	350.386
1379.74	360.566
1380.01	343.786
1380.28	351.864
1380.55	348.608
1380.82	363.09
1381.09	357.868
1381.36	354.622
1381.63	350.334
1381.9	365.588
1382.17	351.088
1382.44	346.841
1382.71	347.774
1382.98	366.125
1383.25	362.987
1383.52	352.672
1383.79	381.39
1384.06	370.138
1384.33	358.923
1384.6	374.396
1384.87	397.129
1385.14	411.602
1385.41	420.946
1385.68	431.26
1385.95	449.843
1386.21	486.868
1386.48	566.992
1386.76	702.209
1387.03	1014.38
1387.29	1634.52
1387.56	2142.95
1387.83	2332.39
1388.1	1565.63
1388.37	876.104
1388.64	590.362
1388.91	525.69
1389.18	461.092
1389.45	446.594
1389.72	387.799
1389.99	388.601
1390.26	390.701
1390.53	352.592
1390.8	379.2
1391.06	375.078
1391.33	369.875
1391.6	362.609
1391.87	358.43
1392.14	361.439
1392.41	367.532
1392.68	358.277
1392.95	359.265
1393.22	360.255
1393.49	366.367
1393.76	349.968
1394.03	342.785
1394.3	368.35
1394.56	356.098
1394.83	351.044
1395.1	360.301
1395.37	364.418
1395.64	343.939
1395.91	332.654
1396.18	353.086
1396.45	356.111
1396.72	358.097
1396.99	345.754
1397.26	349.809
1397.52	364.121
1397.79	339.593
1398.06	352.93
1398.33	337.613
1398.6	348.887
1398.87	347.916
1399.14	336.701
1399.41	349.017
1399.68	335.715
1399.95	342.92
1400.22	341.977
1400.48	349.193
1400.75	339.974
1401.02	359.465
1401.29	353.326
1401.56	345.232
1401.83	337.214
1402.1	350.752
1402.37	357.074
1402.63	356.168
1402.9	336.727
1403.17	355.22
1403.44	360.294
1403.71	351.892
1403.98	345.764
1404.25	360.107
1404.51	350.836
1404.78	353.855
1405.05	354.816
1405.32	360.906
1405.59	365.973
1405.86	346.459
1406.13	355.652
1406.39	351.566
1406.66	354.666
1406.93	361.875
1407.2	358.822
1407.47	373.198
1407.74	374.246
1408.01	385.548
1408.27	399.933
1408.54	409.201
1408.81	445.135
1409.08	461.585
1409.35	439.046
1409.62	418.547
1409.89	390.778
1410.15	378.372
1410.42	372.102
1410.69	380.212
1410.96	365.802
1411.23	337.065
1411.5	344.215
1411.76	353.479
1412.03	336.149
1412.3	360.924
1412.57	351.106
1412.84	359.616
1413.11	344.018
1413.37	342.442
1413.64	349.666
1413.91	348.87
1414.18	354.213
1414.45	345.969
1414.72	345.986
1414.98	354.202
1415.25	344.97
1415.52	354.24
1415.79	344.005
1416.06	348.148
1416.33	354.348
1416.59	340.01
1416.86	353.408
1417.13	342.147
1417.4	353.475
1417.67	341.153
1417.93	342.193
1418.2	352.494
1418.47	341.19
1418.74	334.012
1419.01	353.509
1419.27	341.119
1419.54	344.132
1419.81	345.099
1420.08	339.897
1420.35	325.452
1420.61	346.948
1420.88	353.068
1421.15	347.95
1421.42	349.055
1421.69	347.131
1421.95	345.181
1422.22	338.164
1422.49	357.97
1422.76	346.991
1423.02	357.837
1423.29	362.837
1423.56	342.565
1423.83	333.021
1424.1	342.137
1424.36	360.759
1424.63	338.334
1424.9	346.749
1425.17	340.43
1425.43	339.574
1425.7	345.706
1425.97	340.53
1426.24	345.57
1426.51	346.506
1426.77	346.408
1427.04	351.403
1427.31	336.937
1427.58	348.143
1427.84	349.141
1428.11	345.049
1428.38	341.997
1428.65	345.098
1428.91	334.896
1429.18	339.045
1429.45	342.189
1429.72	338.18
1429.98	353.635
1430.25	337.327
1430.52	349.78
1430.79	347.861
1431.05	347.931
1431.32	329.469
1431.59	346.868
1431.86	344.736
1432.12	343.654
1432.39	348.696
1432.66	344.466
1432.93	354.575
1433.19	356.483
1433.46	340.002
1433.73	338.939
1434	339.055
1434.26	334.04
1434.53	368.897
1434.8	344.31
1435.07	347.38
1435.33	345.318
1435.6	339.151
1435.87	344.253
1436.13	330.907
1436.4	343.17
1436.67	336.996
1436.94	336.984
1437.2	346.174
1437.47	335.911
1437.74	338.997
1438	350.312
1438.27	338.058
1438.54	337.049
1438.81	346.288
1439.07	343.264
1439.34	345.389
1439.61	340.358
1439.87	342.463
1440.14	345.565
1440.41	339.423
1440.67	338.416
1440.94	344.553
1441.21	339.376
1441.48	346.52
1441.74	339.4
1442.01	334.292
1442.28	336.406
1442.54	336.382
1442.81	336.328
1443.08	344.482
1443.34	333.171
1443.61	348.533
1443.88	348.547
1444.15	349.666
1444.41	341.547
1444.68	341.664
1444.95	330.367
1445.21	337.519
1445.48	332.363
1445.75	323.106
1446.01	345.647
1446.28	350.751
1446.55	332.267
1446.81	326.085
1447.08	340.399
1447.35	324.986
1447.61	336.253
1447.88	344.508
1448.15	333.313
1448.41	352.829
1448.68	337.445
1448.95	346.652
1449.21	337.383
1449.48	335.28
1449.75	351.625
1450.01	341.345
1450.28	345.421
1450.55	332.072
1450.81	347.419
1451.08	340.213
1451.35	348.378
1451.61	342.204
1451.88	350.383
1452.15	339.119
1452.41	326.837
1452.68	341.221
1452.94	318.715
1453.21	335.122
1453.48	338.175
1453.75	333.031
1454.01	340.204
1454.28	348.406
1454.54	335.08
1454.81	340.181
1455.08	342.226
1455.34	346.389
1455.61	336.18
1455.88	338.236
1456.14	328.991
1456.41	327.915
1456.68	356.545
1456.94	354.47
1457.21	342.156
1457.47	334.969
1457.74	331.899
1458.01	346.248
1458.27	349.342
1458.54	344.24
1458.8	347.325
1459.07	337.093
1459.34	338.109
1459.6	330.917
1459.87	352.409
1460.13	332.92
1460.4	344.155
1460.67	341.039
1460.93	336.901
1461.2	350.167
1461.47	341.921
1461.73	340.838
1462	335.656
1462.26	340.702
1462.53	342.672
1462.79	342.593
1463.06	334.338
1463.33	336.353
1463.59	341.549
1463.86	334.555
1464.13	326.488
1464.39	340.959
1464.66	347.037
1464.92	342.237
1465.19	341.929
1465.45	348.979
1465.72	339.916
1465.99	338.9
1466.25	323.453
1466.52	336.631
1466.78	338.722
1467.05	326.461
1467.32	334.6
1467.58	340.704
1467.85	343.759
1468.11	332.533
1468.38	333.538
1468.64	331.469
1468.91	329.391
1469.18	343.611
1469.44	333.337
1469.71	343.463
1469.97	337.301
1470.24	330.13
1470.51	330.102
1470.77	343.312
1471.04	333.059
1471.3	338.102
1471.57	341.131
1471.83	346.209
1472.1	346.2
1472.36	336.009
1472.63	330.899
1472.9	351.217
1473.16	338.949
1473.43	334.837
1473.69	334.81
1473.96	326.664
1474.22	331.777
1474.49	336.895
1474.75	346.062
1475.02	346.056
1475.28	330.763
1475.55	335.81
1475.82	341.879
1476.08	333.713
1476.35	333.667
1476.61	331.576
1476.88	332.561
1477.14	326.447
1477.41	342.71
1477.67	334.545
1477.94	330.418
1478.2	331.383
1478.47	338.451
1478.73	346.526
1479	322.078
1479.27	344.36
1479.53	339.21
1479.79	327.933
1480.06	330.88
1480.32	336.899
1480.59	319.613
1480.85	326.667
1481.12	330.738
1481.39	338.905
1481.65	334.906
1481.92	338.019
1482.18	327.923
1482.45	347.223
1482.71	327.966
1482.98	330.022
1483.24	339.167
1483.51	332.051
1483.77	330.927
1484.04	335.829
1484.3	328.413
1484.57	333.045
1484.83	330.817
1485.1	340.659
1485.36	338.256
1485.63	345.55
1485.89	333.533
1486.16	345.388
1486.42	332.316
1486.69	331.379
1486.95	336.368
1487.22	342.365
1487.48	347.378
1487.75	333.148
1488.01	330.042
1488.28	349.195
1488.54	324.839
1488.81	336.943
1489.07	330.843
1489.34	345.994
1489.6	336.884
1489.86	342.954
1490.13	330.781
1490.39	335.776
1490.66	331.663
1490.92	343.76
1491.19	346.775
1491.45	337.672
1491.72	349.822
1491.98	331.616
1492.25	330.588
1492.51	336.64
1492.78	329.567
1493.04	334.599
1493.3	327.508
1493.57	340.65
1493.83	329.55
1494.1	329.584
1494.36	333.623
1494.63	333.58
1494.89	323.384
1495.16	330.339
1495.42	332.257
1495.69	343.301
1495.95	337.195
1496.22	334.129
1496.48	341.14
1496.74	335.08
1497.01	337.101
1497.27	327.997
1497.54	328.997
1497.8	332.027
1498.07	332.034
1498.33	334.063
1498.59	347.198
1498.86	336.116
1499.12	336.145
1499.39	332.139
1499.65	337.203
1499.92	337.203
1500.18	334.163
1500.44	339.203
1500.71	323.028
1500.97	338.095
1501.24	331.007
1501.5	336.044
1501.77	336.033
1502.03	338.029
1502.29	337.962
1502.56	321.747
1502.82	327.772
1503.09	323.668
1503.35	320.632
1503.62	332.767
1503.88	340.852
1504.14	334.808
1504.41	325.722
1504.67	324.683
1504.93	328.671
1505.2	335.654
1505.46	339.541
1505.73	346.566
1505.99	335.475
1506.26	329.429
1506.52	334.526
1506.78	342.599
1507.05	329.517
1507.31	329.52
1507.58	338.569
1507.84	322.424
1508.1	336.534
1508.37	337.556
1508.63	333.533
1508.89	332.523
1509.16	340.578
1509.42	343.626
1509.69	332.592
1509.95	343.612
1510.21	339.52
1510.48	319.299
1510.74	334.322
1511.01	332.188
1511.27	336.042
1511.53	332.848
1511.8	334.699
1512.06	330.525
1512.32	336.464
1512.59	334.378
1512.85	334.311
1513.12	331.26
1513.38	336.324
1513.64	331.45
1513.91	330.5
1514.17	327.455
1514.43	330.405
1514.7	326.295
1514.96	333.245
1515.22	329.132
1515.49	331.04
1515.75	343.998
1516.02	329.923
1516.28	325.887
1516.54	333.885
1516.81	336.881
1517.07	339.892
1517.33	331.891
1517.6	326.932
1517.86	333.979
1518.12	323.972
1518.39	332.017
1518.65	332.044
1518.91	328.058
1519.18	337.107
1519.44	348.141
1519.7	327.047
1519.97	337.055
1520.23	319.009
1520.49	332.08
1520.76	328.098
1521.02	333.131
1521.28	324.093
1521.55	336.107
1521.81	337.075
1522.07	317.978
1522.34	333.992
1522.6	328.928
1522.86	335.858
1523.13	331.724
1523.39	337.64
1523.65	339.569
1523.92	330.495
1524.18	341.457
1524.44	339.475
1524.71	342.5
1524.97	333.5
1525.23	324.527
1525.5	331.597
1525.76	341.701
1526.02	326.741
1526.28	337.802
1526.55	337.803
1526.81	343.776
1527.07	330.722
1527.34	331.698
1527.6	340.69
1527.86	338.648
1528.13	336.609
1528.39	322.553
1528.65	328.545
1528.91	332.545
1529.18	335.532
1529.44	338.488
1529.7	331.455
1529.97	325.468
1530.23	336.546
1530.49	323.591
1530.76	334.668
1531.02	330.676
1531.28	342.682
1531.54	334.674
1531.81	334.634
1532.07	327.644
1532.33	335.739
1532.59	337.86
1532.86	334.963
1533.12	331.007
1533.38	328.03
1533.65	331.043
1533.91	336.043
1534.17	326.992
1534.43	335.985
1534.7	339.969
1534.96	329.893
1535.22	328.736
1535.48	334.638
1535.75	338.572
1536.01	331.452
1536.27	325.326
1536.54	328.213
1536.8	322.163
1537.06	332.085
1537.32	325.086
1537.59	327.034
1537.85	331.927
1538.11	338.886
1538.37	349.834
1538.63	334.907
1538.9	324.077
1539.16	335.326
1539.42	326.493
1539.69	337.651
1539.95	333.796
1540.21	329.884
1540.47	346.003
1540.74	342.847
1541	337.821
1541.26	330.72
1541.52	332.642
1541.79	336.566
1542.05	338.486
1542.31	328.395
1542.57	334.329
1542.83	323.244
1543.1	337.154
1543.36	333.016
1543.62	329.024
1543.88	337.036
1544.14	327.093
1544.41	321.195
1544.67	333.262
1544.93	326.394
1545.19	317.46
1545.46	326.515
1545.72	319.554
1545.98	330.549
1546.24	321.544
1546.51	324.586
1546.77	337.646
1547.03	330.686
1547.29	348.69
1547.55	332.441
1547.82	333.449
1548.08	323.405
1548.34	331.613
1548.6	328.336
1548.86	336.946
1549.13	334.804
1549.39	332.963
1549.65	334.247
1549.91	326.783
1550.17	332.108
1550.44	330.606
1550.7	340.346
1550.96	340.399
1551.22	335.344
1551.48	335.172
1551.74	328.277
1552.01	330.475
1552.27	333.44
1552.53	333.41
1552.79	338.132
1553.05	330.042
1553.32	328.018
1553.58	331.972
1553.84	328.872
1554.1	333.785
1554.36	347.673
1554.63	338.609
1554.89	336.58
1555.15	321.547
1555.41	337.592
1555.67	339.623
1555.93	320.525
1556.2	333.545
1556.46	328.559
1556.72	332.587
1556.98	331.597
1557.24	332.586
1557.5	326.536
1557.77	343.444
1558.03	338.365
1558.29	327.241
1558.55	338.144
1558.81	327.05
1559.07	339.975
1559.33	320.918
1559.6	330.866
1559.86	325.832
1560.12	327.805
1560.38	341.773
1560.64	322.779
1560.9	333.784
1561.17	335.839
1561.43	333.92
1561.69	338.038
1561.95	338.052
1562.21	328.039
1562.47	342.011
1562.74	328.025
1563	316
1563.26	330.967
1563.52	345.062
1563.78	325.191
1564.04	349.266
1564.3	337.255
1564.56	318.123
1564.82	344.618
1565.09	329.849
1565.35	335.165
1565.61	330.382
1565.87	328.968
1566.13	331.89
1566.39	327.632
1566.65	334.82
1566.91	335.152
1567.18	342.15
1567.44	337.903
1567.7	329.908
1567.96	345.953
1568.22	323.987
1568.48	322.974
1568.74	340.855
1569	334.772
1569.27	336.761
1569.53	326.793
1569.79	337.796
1570.05	325.81
1570.31	337.799
1570.57	327.793
1570.83	334.763
1571.09	333.716
1571.35	328.657
1571.62	331.641
1571.88	332.606
1572.14	332.542
1572.4	328.498
1572.66	322.463
1572.92	326.404
1573.18	331.341
1573.44	350.297
1573.7	329.39
1573.96	332.458
1574.22	333.535
1574.48	333.618
1574.74	330.703
1575.01	342.762
1575.27	327.799
1575.53	325.778
1575.79	329.771
1576.05	321.752
1576.31	322.662
1576.57	327.534
1576.83	341.391
1577.09	322.311
1577.35	327.196
1577.61	337.067
1577.87	331.013
1578.14	333.977
1578.4	331.978
1578.66	334.965
1578.92	330.979
1579.18	333.981
1579.44	323.062
1579.7	340.042
1579.96	336.064
1580.22	332.067
1580.48	332.034
1580.74	335.969
1581	335.928
1581.26	328.889
1581.52	340.769
1581.78	338.746
1582.04	335.734
1582.3	331.723
1582.57	336.682
1582.83	320.733
1583.09	323.718
1583.35	321.691
1583.61	319.69
1583.87	330.673
1584.13	330.696
1584.39	326.728
1584.65	335.695
1584.91	335.675
1585.17	342.641
1585.43	326.683
1585.69	333.583
1585.95	331.507
1586.21	325.471
1586.47	325.426
1586.73	332.355
1586.99	336.304
1587.25	337.279
1587.51	336.28
1587.77	343.268
1588.03	334.348
1588.29	333.402
1588.55	336.428
1588.81	325.522
1589.07	320.578
1589.33	327.564
1589.59	338.51
1589.85	324.593
1590.11	335.583
1590.37	325.665
1590.63	328.643
1590.89	335.615
1591.15	335.595
1591.41	332.581
1591.67	325.549
1591.94	333.407
1592.2	335.307
1592.46	330.297
1592.72	317.253
1592.98	331.05
1593.23	323.949
1593.49	332.797
1593.75	331.748
1594.01	331.738
1594.27	337.726
1594.53	322.895
1594.79	345.792
1595.05	335.905
1595.31	335.726
1595.57	328.757
1595.83	331.735
1596.09	338.688
1596.35	319.826
1596.61	325.806
1596.87	335.766
1597.13	332.822
1597.39	351.697
1597.65	332.794
1597.91	335.724
1598.17	336.627
1598.43	326.613
1598.69	328.536
1598.95	313.594
1599.21	333.386
1599.47	337.217
1599.73	327.13
1599.99	329.271
1600.25	328.671
1600.51	337.376
1600.77	326.681
1601.03	322.88
1601.29	340.948
1601.55	331.278
1601.81	325.026
1602.07	336.893
1602.33	329.951
1602.59	319.895
1602.85	332.73
1603.1	334.304
1603.36	327.374
1603.62	338.346
1603.88	322.858
1604.14	334.231
1604.4	329.878
1604.66	324.911
1604.92	326.636
1605.18	321.5
1605.44	327.297
1605.7	328.313
1605.96	335.961
1606.22	327.848
1606.48	331.528
1606.74	327.532
1607	323.72
1607.26	332.723
1607.52	329.938
1607.77	321.227
1608.03	332.916
1608.29	323.293
1608.55	333.281
1608.81	331.137
1609.07	331.143
1609.33	326.858
1609.59	318.745
1609.85	317.976
1610.11	322.289
1610.37	335.126
1610.63	320.798
1610.88	330.037
1611.14	318.758
1611.4	327.694
1611.66	332.73
1611.92	328.004
1612.18	323.163
1612.44	319.377
1612.7	325.069
1612.96	325.049
1613.22	319.145
1613.48	329.203
1613.73	332.251
1613.99	335.786
1614.25	327.74
1614.51	330.395
1614.77	329.755
1615.03	325.476
1615.29	330.025
1615.55	317.319
1615.81	326.5
1616.07	329.525
1616.32	330.079
1616.58	323.508
1616.84	318.914
1617.1	320.818
1617.36	321.919
1617.62	326.411
1617.88	324.244
1618.14	325.495
1618.4	327.202
1618.65	324.565
1618.91	321.093
1619.17	321.302
1619.43	330.337
1619.69	317.394
1619.95	323.881
1620.21	325.492
1620.47	317.135
1620.72	323.951
1620.98	327.005
1621.24	322.544
1621.5	317.086
1621.76	323.38
1622.02	329.411
1622.28	318.607
1622.54	316.941
1622.79	321.355
1623.05	323.001
1623.31	321.967
1623.57	319.692
1623.83	321.521
1624.09	319.24
1624.35	316.433
1624.6	322.48
1624.86	322.583
1625.12	318.238
1625.38	315.072
1625.64	310.156
1625.9	318.483
1626.16	322.919
1626.41	324.67
1626.67	321.399
1626.77	318.272
1627.04	316.302
1627.3	313.35
1627.56	318.286
1627.82	312.388
1628.08	320.289
1628.34	321.294
1628.6	314.372
1628.87	317.289
1629.13	320.22
1629.39	332.024
1629.65	316.246
1629.91	320.169
1630.17	314.23
1630.44	320.107
1630.7	315.191
1630.96	317.195
1631.22	322.18
1631.48	324.212
1631.74	319.308
1632	318.351
1632.27	318.485
1632.53	322.467
1632.79	318.366
1633.05	329.102
1633.31	323.201
1633.57	320.297
1633.83	327.233
1634.1	323.304
1634.36	314.435
1634.62	322.313
1634.88	314.413
1635.14	320.305
1635.4	316.334
1635.66	316.299
1635.92	321.187
1636.18	325.086
1636.45	314.204
1636.71	308.239
1636.97	313.122
1637.23	320.983
1637.49	324.9
1637.75	315.024
1638.01	321.885
1638.27	325.817
1638.53	313.024
1638.8	316.961
1639.06	322.866
1639.32	312.037
1639.58	311.043
1639.84	317.926
1640.1	314.037
1640.36	319.015
1640.62	320.031
1640.88	323.963
1641.15	313.098
1641.41	311.103
1641.67	323.883
1641.93	310.088
1642.19	315.98
1642.45	315.97
1642.71	332.693
1642.97	323.834
1643.23	319.878
1643.49	322.799
1643.75	314.889
1644.02	323.681
1644.28	310.878
1644.54	323.659
1644.8	315.853
1645.06	322.76
1645.32	312.953
1645.58	315.882
1645.84	321.748
1646.1	320.727
1646.36	317.747
1646.62	314.782
1646.88	328.505
1647.15	317.662
1647.41	332.385
1647.67	332.399
1647.93	324.569
1648.19	325.613
1648.45	321.76
1648.71	325.91
1648.97	326.839
1649.23	324.849
1649.49	319.889
1649.75	316.979
1650.01	314.15
1650.27	324.047
1650.53	314.266
1650.79	327.129
1651.05	329.132
1651.31	329.141
1651.57	317.316
1651.83	327.177
1652.1	322.253
1652.36	334.03
1652.62	313.311
1652.88	320.201
1653.14	333.02
1653.4	323.192
1653.66	315.341
1653.92	315.358
1654.18	323.259
1654.44	317.379
1654.7	312.504
1654.96	324.415
1655.22	312.688
1655.48	325.617
1655.74	313.839
1656	320.788
1656.26	326.733
1656.52	322.79
1656.78	312.901
1657.04	318.792
1657.3	322.712
1657.56	318.743
1657.82	316.742
1658.08	317.689
1658.34	321.59
1658.6	326.474
1658.86	311.634
1659.12	308.63
1659.38	338.148
1659.64	320.383
1659.9	321.405
1660.16	319.48
1660.42	324.467
1660.69	335.379
1660.95	329.53
1661.21	322.668
1661.46	330.617
1661.72	320.53
1661.98	316.815
1662.25	318.305
1662.51	318.333
1662.77	324.158
1663.03	314.302
1663.28	317.694
1663.54	317.673
1663.8	337.611
1664.07	320.857
1664.33	318.011
1664.59	319.155
1664.84	314.092
1665.1	323.348
1665.36	324.957
1665.62	328.298
1665.89	316.374
1666.14	320.451
1666.4	320.853
1666.66	314.669
1666.92	327.714
1667.18	321.72
1667.44	321.695
1667.7	316.704
1667.96	317.655
1668.22	318.706
1668.48	326.844
1668.74	317.05
1669	326.939
1669.26	325.963
1669.52	308.197
1669.78	324.902
1670.04	325.014
1670.3	321.282
1670.56	320.278
1670.82	320.241
1671.08	322.206
1671.34	328.121
1671.6	325.202
1671.86	323.239
1672.12	317.318
1672.38	330.159
1672.64	324.236
1672.9	316.341
1673.15	321.301
1673.41	319.353
1673.67	310.494
1673.93	325.375
1674.19	319.479
1674.45	316.562
1674.71	323.555
1674.97	323.593
1675.23	321.634
1675.49	320.64
1675.75	321.63
1676.01	322.639
1676.27	327.603
1676.53	320.679
1676.79	319.678
1677.05	325.593
1677.31	322.588
1677.57	320.556
1677.82	326.423
1678.08	330.312
1678.34	326.304
1678.6	320.331
1678.86	326.229
1679.12	316.317
1679.38	328.144
1679.64	324.162
1679.9	317.218
1680.16	317.184
1680.42	320.119
1680.68	313.181
1680.94	325.026
1681.19	312.18
1681.45	325.022
1681.71	324.036
1681.97	321.078
1682.23	322.065
1682.49	325.017
1682.75	320.072
1683.01	326.986
1683.27	322.043
1683.53	307.211
1683.79	308.166
1684.04	316.031
1684.3	334.772
1684.56	315.009
1684.82	320.926
1685.08	331.785
1685.34	311.049
1685.6	314.017
1685.86	324.895
1686.12	321.983
1686.38	321.047
1686.63	327.985
1686.89	324.024
1687.15	317.078
1687.41	328.893
1687.67	322.935
1687.93	324.877
1688.19	323.851
1688.45	321.814
1688.71	324.715
1688.96	308.871
1689.22	317.695
1689.48	327.489
1689.74	317.559
1690	316.632
1690.26	315.695
1690.52	332.503
1690.78	324.635
1691.03	328.596
1691.29	313.843
1691.55	322.738
1691.81	319.769
1692.07	312.833
1692.33	318.694
1692.59	326.522
1692.84	327.426
1693.1	313.529
1693.36	321.324
1693.62	318.317
1693.88	316.277
1694.14	314.246
1694.4	316.187
1694.66	325.066
1694.91	316.222
1695.17	323.136
1695.43	322.172
1695.69	324.173
1695.95	308.452
1696.21	320.294
1696.47	321.263
1696.72	323.19
1696.98	326.073
1697.24	329.925
1697.5	325.905
1697.76	318.952
1698.02	323.82
1698.27	312.946
1698.53	326.688
1698.79	309.945
1699.05	316.837
1699.31	316.851
1699.57	332.599
1699.82	323.722
1700.08	314.822
1700.34	326.617
1700.6	316.764
1700.86	327.562
1701.12	324.571
1701.37	322.545
1701.63	330.349
1701.89	324.389
1702.15	325.31
1702.41	317.408
1702.66	320.342
1702.92	311.485
1703.18	330.128
1703.44	322.242
1703.7	319.299
1703.96	325.232
1704.21	311.504
1704.47	324.276
1704.73	316.397
1704.99	315.405
1705.25	320.321
1705.5	304.576
1705.76	319.254
1706.02	308.379
1706.28	314.196
1706.54	327.858
1706.79	315.026
1707.05	312.006
1707.31	318.78
1707.57	320.64
1707.83	314.658
1708.08	320.427
1708.34	321.293
1708.6	323.162
1708.86	317.225
1709.12	332.854
1709.37	320.113
1709.63	310.326
1709.89	316.207
1710.15	322.095
1710.41	329.974
1710.66	325.117
1710.92	319.271
1711.18	321.258
1711.44	317.36
1711.7	307.554
1711.95	314.353
1712.21	324.025
1712.47	317.041
1712.73	316.896
1712.98	305.061
1713.24	314.697
1713.5	314.616
1713.76	325.316
1714.01	323.324
1714.27	308.65
1714.53	316.449
1714.79	300.826
1715.04	316.56
1715.3	330.262
1715.56	327.314
1715.82	314.578
1716.08	317.453
1716.33	315.422
1716.59	317.275
1716.85	315.202
1717.11	318.957
1717.36	313.915
1717.62	318.673
1717.88	319.518
1718.14	306.771
1718.39	318.401
1718.65	309.614
1718.91	311.568
1719.16	316.424
1719.42	322.249
1719.68	317.429
1719.94	335.915
1720.2	311.529
1720.45	321.194
1720.71	323.046
1720.97	323.965
1721.23	316.111
1721.48	321.871
1721.74	309.15
1722	315.873
1722.25	318.709
1722.51	328.351
1722.77	322.458
1723.03	318.526
1723.28	323.357
1723.54	328.209
1723.8	304.874
1724.05	326.212
1724.31	316.434
1724.57	318.274
1724.83	313.296
1725.08	318.033
1725.34	302.416
1725.6	319.804
1725.85	317.854
1726.11	309.145
1726.37	324.611
1726.63	312.911
1726.88	326.392
1727.14	313.835
1727.4	316.785
1727.66	327.4
1727.91	313.759
1728.17	305.764
1728.43	318.832
1728.68	309.781
1728.94	309.766
1729.2	315.74
1729.45	314.923
1729.71	305.248
1729.97	314.758
1730.23	312.764
1730.48	325.468
1730.74	317.949
1730.99	321.831
1731.25	323.765
1731.51	320.853
1731.77	307.299
1732.02	319.83
1732.28	309.162
1732.54	318.768
1732.79	318.687
1733.05	316.645
1733.31	308.787
1733.56	316.396
1733.82	323.049
1734.08	316.198
1734.33	315.13
1734.59	319.846
1734.85	320.708
1735.1	310.039
1735.36	312.867
1735.62	317.644
1735.87	319.541
1736.13	311.802
1736.39	321.384
1736.65	313.642
1736.9	325.139
1737.16	303.94
1737.41	311.59
1737.67	320.18
1737.93	312.421
1738.18	309.474
1738.44	310.367
1738.7	317.972
1738.95	314.991
1739.21	323.493
1739.47	326.225
1739.72	322.256
1739.98	313.511
1740.24	312.465
1740.49	319.103
1740.75	311.365
1741.01	324.709
1741.26	303.576
1741.52	313.11
1741.78	312.127
1742.03	314.029
1742.29	303.464
1742.54	305.349
1742.8	316.824
1743.06	319.69
1743.31	311.983
1743.57	314.779
1743.83	317.609
1744.08	310.863
1744.34	321.382
1744.6	322.341
1744.85	310.871
1745.11	316.604
1745.36	314.666
1745.62	311.747
1745.88	323.148
1746.13	316.366
1746.39	327.737
1746.65	316.205
1746.9	310.376
1747.16	313.18
1747.41	319.791
1747.67	318.822
1747.93	313.093
1748.18	307.375
1748.44	317.893
1748.69	319.83
1748.95	319.875
1749.21	312.293
1749.46	312.361
1749.72	313.391
1749.97	302.952
1750.23	309.696
1750.49	309.718
1750.74	317.399
1751	302.092
1751.26	309.678
1751.51	316.271
1751.77	301.854
1752.02	318.979
1752.28	330.367
1752.54	320.746
1752.79	313.043
1753.05	312.033
1753.3	311.981
1753.56	306.201
1753.82	310.9
1754.07	310.84
1754.33	316.515
1754.58	300.269
1754.84	322.156
1755.09	306.862
1755.35	310.616
1755.6	316.261
1755.86	313.322
1756.12	315.135
1756.37	310.275
1756.63	316.839
1756.88	310.111
1757.14	315.78
1757.4	311.962
1757.65	312.967
1757.91	315.888
1758.16	319.715
1758.42	320.674
1758.67	308.308
1758.93	315.932
1759.18	320.699
1759.44	306.412
1759.7	319.709
1759.95	294.944
1760.21	320.6
1760.46	315.801
1760.72	310.038
1760.97	316.634
1761.23	308.029
1761.49	309.9
1761.74	315.579
1762	315.603
1762.25	318.504
1762.51	309.971
1762.76	310.916
1763.02	312.816
1763.27	316.636
1763.53	322.371
1763.78	307.194
1764.04	307.299
1764.3	326.413
1764.55	310.284
1764.81	309.369
1765.06	317.012
1765.32	315.127
1765.57	331.32
1765.83	316.085
1766.08	318.925
1766.34	305.568
1766.59	325.552
1766.85	308.404
1767.1	306.47
1767.36	320.693
1767.61	306.386
1767.87	312.999
1768.13	308.246
1768.38	308.179
1768.64	302.307
1768.89	313.558
1769.15	310.533
1769.4	307.651
1769.66	311.471
1769.91	305.893
1770.17	305.917
1770.42	313.528
1770.68	310.713
1770.93	317.494
1771.19	311.883
1771.44	321.401
1771.7	310.974
1771.95	314.841
1772.21	321.565
1772.46	314.949
1772.72	313.084
1772.97	315.977
1773.23	309.347
1773.48	316.04
1773.74	312.256
1773.99	309.417
1774.25	312.298
1774.5	316.152
1774.76	308.565
1775.01	315.321
1775.27	314.506
1775.52	311.708
1775.78	321.271
1776.03	305.066
1776.29	326.968
1776.54	320.248
1776.8	306.858
1777.05	307.773
1777.31	321.054
1777.56	320.044
1777.82	317.129
1778.07	307.547
1778.32	321.755
1778.58	313.102
1778.83	311.125
1779.09	306.337
1779.34	317.787
1779.6	307.389
1779.85	307.411
1780.11	327.425
1780.36	301.756
1780.62	314.154
1780.87	307.501
1781.13	309.425
1781.38	305.652
1781.64	323.794
1781.89	321.953
1782.15	314.399
1782.4	323.972
1782.65	303.999
1782.91	313.568
1783.16	317.423
1783.42	315.562
1783.67	314.66
1783.93	324.268
1784.18	315.755
1784.44	314.843
1784.69	310.089
1784.94	314.854
1785.2	308.154
1785.45	318.613
1785.71	316.689
1785.96	317.658
1786.22	312.927
1786.47	312.987
1786.73	303.519
1786.98	329.392
1787.23	313.315
1787.49	316.38
1787.74	324.243
1788	316.774
1788.25	317.829
1788.51	312.144
1788.76	317.993
1789.02	323.85
1789.27	317.206
1789.52	322.04
1789.78	319.214
1790.03	313.489
1790.29	312.523
1790.54	316.35
1790.79	322.885
1791.05	312.247
1791.3	313.17
1791.56	320.818
1791.81	318.916
1792.07	324.672
1792.32	318.962
1792.57	311.334
1792.83	320.941
1793.08	305.603
1793.34	327.677
1793.59	309.494
1793.84	322.932
1794.1	309.476
1794.35	304.658
1794.61	317.323
1794.86	306.991
1795.11	316.714
1795.37	323.495
1795.62	322.593
1795.88	327.457
1796.13	315.036
1796.38	320.866
1796.64	318.05
1796.89	317.149
1797.15	319.121
1797.4	308.587
1797.65	311.507
1797.91	317.303
1798.16	324.051
1798.41	320.2
1798.67	316.33
1798.92	322.059
1799.18	317.197
1799.43	312.327
1799.68	308.434
1799.94	329.529
1800.19	326.613
1800.45	312.18
1800.7	324.653
1800.95	324.647
1801.21	316.969
1801.46	309.301
1801.71	316.052
1801.97	324.735
1802.22	311.332
1802.48	308.507
1802.73	313.381
1802.98	312.49
1803.24	311.577
1803.49	311.596
1803.74	311.615
1804	310.709
1804.25	310.772
1804.51	311.793
1804.76	325.348
1805.01	324.47
1805.26	313.956
1805.52	326.544
1805.77	334.307
1806.03	316.053
1806.28	305.493
1806.53	313.225
1806.79	320.942
1807.04	314.199
1807.29	317.093
1807.55	320.955
1807.8	317.108
1808.05	320.973
1808.31	313.274
1808.56	323.891
1808.81	328.725
1809.07	324.882
1809.32	317.186
1809.57	323.949
1809.83	322.031
1810.08	317.209
1810.33	310.442
1810.59	317.18
1810.84	316.213
1811.09	310.423
1811.35	320.064
1811.6	323.928
1811.85	324.919
1812.11	323.995
1812.36	323.084
1812.61	318.321
1812.87	325.105
1813.12	314.523
1813.37	306.86
1813.63	321.417
1813.88	316.674
1814.13	330.304
1814.39	315.902
1814.64	324.659
1814.89	314.071
1815.14	316.994
1815.4	326.675
1815.65	314.13
1815.9	311.244
1816.16	324.815
1816.41	305.476
1816.66	320.938
1816.92	322.77
1817.17	318.746
1817.42	310.01
1817.68	321.633
1817.93	318.807
1818.18	313.107
1818.43	318.905
1818.69	327.608
1818.94	312.176
1819.19	325.752
1819.44	318.051
1819.7	325.819
1819.95	316.194
1820.2	327.843
1820.46	326.907
1820.71	316.304
1820.96	323.126
1821.22	320.276
1821.47	312.58
1821.72	325.196
1821.97	326.193
1822.23	334.926
1822.48	315.586
1822.73	328.186
1822.99	322.357
1823.24	326.202
1823.49	314.553
1823.74	318.438
1824	316.533
1824.25	320.433
1824.5	318.527
1824.75	312.753
1825.01	318.599
1825.26	322.49
1825.51	316.682
1825.76	318.617
1826.02	315.725
1826.27	329.291
1826.52	321.554
1826.77	316.74
1827.03	311.929
1827.28	321.656
1827.53	317.809
1827.78	325.548
1828.04	317.787
1828.29	325.494
1828.54	308.014
1828.8	322.523
1829.05	322.516
1829.3	319.596
1829.55	328.293
1829.81	325.339
1830.06	317.565
1830.31	312.69
1830.56	321.426
1830.81	309.852
1831.07	327.327
1831.32	313.814
1831.57	325.478
1831.82	319.709
1832.08	321.697
1832.33	319.831
1832.58	314.048
1832.83	314.045
1833.09	316.969
1833.34	329.607
1833.59	313.136
1833.84	319.938
1834.09	316.901
1834.35	314.785
1834.6	315.605
1834.85	319.339
1835.1	327.001
1835.36	321.118
1835.61	322.094
1835.86	319.318
1836.11	316.856
1836.36	319.244
1836.62	313.076
1836.87	314.904
1837.12	310.783
1837.37	322.189
1837.62	326.692
1837.88	325.589
1838.13	312.166
1838.38	313.691
1838.63	316.735
1838.88	327.491
1839.14	317.838
1839.39	318.862
1839.64	327.579
1839.89	315.626
1840.14	320.268
1840.4	316.218
1840.65	315.097
1840.9	318.816
1841.15	327.369
1841.4	312.763
1841.66	323.266
1841.91	311.582
1842.16	314.419
1842.41	309.637
1842.66	319.266
1842.92	305.791
1843.17	327.972
1843.42	309.636
1843.67	326.009
1843.92	309.625
1844.17	312.55
1844.43	325.077
1844.68	316.364
1844.93	318.304
1845.18	323.174
1845.43	317.524
1845.69	319.592
1845.94	323.619
1846.19	311.144
1846.44	322.461
1846.69	320.035
1846.94	320.611
1847.19	317.655
1847.45	316.756
1847.7	315.956
1847.95	320.806
1848.2	324.521
1848.45	319.658
1848.7	315.791
1848.96	323.42
1849.21	310.815
1849.46	314.568
1849.71	324.077
1849.96	322.047
1850.21	320.993
1850.46	318.034
1850.72	315.085
1850.97	315.031
1851.22	316.91
1851.47	331.289
1851.72	312.075
1851.97	321.677
1852.23	313.997
1852.48	313.035
1852.73	318.783
1852.98	313.001
1853.23	310.079
1853.48	334.962
1853.73	319.51
1853.98	316.525
1854.24	316.45
1854.49	314.496
1854.74	313.476
1854.99	312.41
1855.24	309.445
1855.49	318.985
1855.74	315.127
1855.99	307.456
1856.25	311.292
1856.5	309.37
1856.75	311.27
1857	325.601
1857.25	323.648
1857.5	324.565
1857.75	310.15
1858	322.526
1858.26	316.71
1858.51	319.507
1858.76	328.034
1859.01	324.125
1859.26	321.218
1859.51	303.062
1859.76	320.266
1860.01	315.524
1860.26	314.638
1860.52	316.597
1860.77	326.214
1861.02	316.714
1861.27	316.756
1861.52	313.891
1861.77	315.779
1862.02	316.678
1862.27	316.607
1862.52	319.399
1862.77	316.456
1863.03	315.429
1863.28	311.541
1863.53	320.082
1863.78	315.248
1864.03	329.521
1864.28	315.136
1864.53	323.661
1864.78	307.345
1865.03	314.884
1865.28	312.867
1865.53	314.649
1865.78	315.469
1866.04	322
1866.29	313.298
1866.54	324.587
1866.79	308.282
1867.04	322.436
1867.29	318.549
1867.54	319.458
1867.79	316.574
1868.04	310.855
1868.29	327.982
1868.54	327.05
1868.79	313.729
1869.04	319.415
1869.29	314.642
1869.54	307.021
1869.79	320.314
1870.05	316.497
1870.3	311.734
1870.55	306.026
1870.8	320.277
1871.05	313.595
1871.3	319.257
1871.55	316.35
1871.8	314.419
1872.05	321.034
1872.3	312.421
1872.55	319.956
1872.8	309.479
1873.05	316.115
1873.3	320.83
1873.55	315.085
1873.8	316.919
1874.05	320.641
1874.31	312.972
1874.56	323.321
1874.81	315.648
1875.05	299.446
1875.31	326.793
1875.56	323.773
1875.81	315.152
1876.06	322.63
1876.31	308.373
1876.56	316.824
1876.81	317.584
1877.06	314.523
1877.31	312.378
1877.56	335.59
1877.81	308.12
1878.06	317.014
1878.31	318.855
1878.56	317.949
1878.81	311.623
1879.06	320.22
1879.31	301.159
1879.56	314.344
1879.81	315.281
1880.06	305.814
1880.31	314.38
1880.56	304.844
1880.81	318.059
1881.06	319.804
1881.31	310.186
1881.56	310.028
1881.81	308.914
1882.06	312.5
1882.31	310.428
1882.56	316.909
1882.81	330.547
1883.06	311.894
1883.31	314.358
1883.56	309.088
1883.81	313.894
1884.06	305.494
1884.31	318.605
1884.56	314.029
1884.81	309.441
1885.06	309.483
1885.31	315.222
1885.56	319.13
1885.81	307.867
1886.06	322.058
1886.31	315.383
1886.56	307.719
1886.81	316.143
1887.06	305.69
1887.31	320.706
1887.56	311.192
1887.81	319.577
1888.06	322.282
1888.31	325.001
1888.56	329.604
1888.81	306.919
1889.06	311.594
1889.31	310.636
1889.56	308.753
1889.81	313.505
1890.06	320.176
1890.31	307.989
1890.56	307.06
1890.81	313.631
1891.06	307.964
1891.31	313.604
1891.56	322.058
1891.8	312.632
1892.05	316.375
1892.3	321.974
1892.55	309.663
1892.8	313.287
1893.05	306.532
1893.3	310.16
1893.55	310.197
1893.8	321.446
1894.05	325.11
1894.3	310.029
1894.55	316.595
1894.8	312.852
1895.05	322.275
1895.3	318.553
1895.55	318.592
1895.8	322.397
1896.05	311.175
1896.3	315.937
1896.55	315.988
1896.79	306.623
1897.04	316.995
1897.29	307.6
1897.54	311.356
1897.79	313.214
1898.04	313.173
1898.29	306.532
1898.54	312.097
1898.79	305.441
1899.04	313.853
1899.29	315.701
1899.54	315.654
1899.79	310.929
1900.04	312.803
1900.28	314.701
1900.53	312.859
1900.78	312.922
1901.03	311.105
1901.28	305.529
1901.53	312.172
1901.78	323.546
1902.03	310.426
1902.28	305.711
1902.53	314.152
1902.78	308.472
1903.03	315.962
1903.27	322.52
1903.52	317.8
1903.77	321.549
1904.02	308.379
1904.27	317.768
1904.52	315.87
1904.77	321.504
1905.02	317.739
1905.27	325.234
1905.52	318.527
1905.76	313.754
1906.01	316.532
1906.26	307.104
1906.51	306.138
1906.76	310.814
1907.01	305.198
1907.26	303.333
1907.51	311.848
1907.76	312.835
1908	303.46
1908.25	299.723
1908.5	312.917
1908.75	303.574
1909	314.921
1909.25	311.246
1909.5	316.988
1909.75	311.452
1909.99	317.211
1910.24	313.536
1910.49	322.078
1910.74	318.357
1910.99	312.733
1911.24	315.567
1911.49	304.259
1911.74	307.057
1911.98	314.579
1912.23	310.807
1912.48	320.228
1912.73	309.869
1912.98	329.668
1913.23	307.124
1913.48	315.706
1913.73	320.517
1913.97	319.64
1914.22	316.883
1914.47	312.235
1914.72	322.675
1914.97	305.73
1915.22	311.404
1915.47	307.616
1915.71	314.193
1915.96	302.862
1916.21	314.122
1916.46	321.603
1916.71	310.236
1916.96	317.736
1917.2	306.396
1917.45	312.037
1917.7	307.344
1917.95	312.113
1918.2	314.076
1918.45	313.221
1918.7	312.376
1918.94	306.815
1919.19	308.846
1919.44	318.389
1919.69	302.374
1919.94	326.945
1920.19	314.61
1920.43	308.998
1920.68	312.866
1920.93	311.056
1921.18	314.874
1921.43	327.22
1921.67	313.054
1921.92	331.018
1922.17	312.072
1922.42	314.856
1922.67	302.526
1922.92	312.9
1923.16	302.478
1923.41	316.627
1923.66	324.138
1923.91	316.519
1924.16	328.772
1924.41	317.43
1924.65	317.451
1924.9	308.998
1925.15	311.906
1925.4	324.302
1925.65	302.637
1925.89	309.339
1926.14	328.354
1926.39	314.259
1926.64	314.316
1926.89	308.682
1927.13	314.408
1927.38	329.602
1927.63	331.536
1927.88	304.099
1928.12	304.121
1928.37	320.275
1928.62	322.213
1928.87	317.532
1929.12	308.129
1929.36	313.92
1929.61	308.307
1929.86	309.353
1930.11	306.579
1930.36	316.152
1930.6	309.518
1930.85	318.069
1931.1	314.24
1931.35	314.198
1931.6	317.005
1931.84	314.114
1932.09	320.713
1932.34	320.668
1932.59	305.478
1932.83	313.029
1933.08	318.762
1933.33	302.741
1933.58	314.3
1933.83	316.425
1934.07	312.91
1934.32	319.835
1934.57	318.159
1934.82	317.393
1935.06	314.677
1935.31	319.501
1935.56	323.087
1935.81	322.135
1936.05	314.485
1936.3	320.158
1936.55	321.041
1936.8	319.059
1937.04	322.804
1937.29	318.93
1937.54	298.884
1937.79	318.818
1938.03	319.794
1938.28	318.955
1938.53	313.273
1938.78	316.183
1939.02	314.33
1939.27	316.279
1939.52	305.846
1939.77	323.971
1940.01	323.105
1940.26	315.583
1940.51	319.605
1940.76	321.607
1941	318.727
1941.25	316.764
1941.5	318.539
1941.75	312.68
1941.99	317.629
1942.24	316.969
1942.49	319.876
1942.74	316.996
1942.98	313.038
1943.23	313.858
1943.48	325.259
1943.72	318.783
1943.97	318.841
1944.22	317.957
1944.46	317.078
1944.71	321.935
1944.96	322.971
1945.21	314.448
1945.45	325.989
1945.7	329.873
1945.95	306.97
1946.2	314.653
1946.44	327.101
1946.69	318.482
1946.94	317.497
1947.18	313.646
1947.43	312.686
1947.68	322.247
1947.92	307.897
1948.17	311.706
1948.42	313.646
1948.67	307.012
1948.91	313.772
1949.16	316.714
1949.41	316.797
1949.65	315.936
1949.9	336.189
1950.15	327.713
1950.4	313.454
1950.64	328.923
1950.89	309.872
1951.13	317.663
1951.38	326.394
1951.63	323.575
1951.88	314.023
1952.12	310.219
1952.37	320.788
1952.62	317.973
1952.86	330.505
1953.11	316.958
1953.36	316.818
1953.6	312.783
1953.85	311.652
1954.1	321.079
1954.34	300.837
1954.59	319.005
1954.84	317.091
1955.08	312.352
1955.33	308.617
1955.58	319.321
1955.82	318.556
1956.07	321.53
1956.32	316.824
1956.56	322.647
1956.81	318.881
1957.06	320.869
1957.3	319.967
1957.55	322.895
1957.8	317.16
1958.04	309.494
1958.29	331.608
1958.54	307.547
1958.78	322.87
1959.03	318.04
1959.28	312.255
1959.52	311.247
1959.77	334.251
1960.02	313.073
1960.26	321.661
1960.51	312.962
1960.76	319.629
1961	310.947
1961.25	320.523
1961.5	320.537
1961.74	309.998
1961.99	318.65
1962.23	334.023
1962.48	312.921
1962.73	322.534
1962.97	323.507
1963.22	319.681
1963.47	328.345
1963.71	310.142
1963.96	315.93
1964.2	308.238
1964.45	305.343
1964.7	319.748
1964.94	328.384
1965.19	319.756
1965.44	324.599
1965.68	324.666
1965.93	318.976
1966.18	323.848
1966.42	322.938
1966.67	316.239
1966.91	306.621
1967.16	317.206
1967.41	324.924
1967.65	320.127
1967.9	316.299
1968.14	314.364
1968.39	319.138
1968.64	318.115
1968.88	321.876
1969.13	313.126
1969.37	312.068
1969.62	319.674
1969.87	321.531
1970.11	329.17
1970.36	316.634
1970.61	304.12
1970.85	316.559
1971.1	317.489
1971.34	313.631
1971.59	319.425
1971.84	304.105
1972.08	314.672
1972.33	316.583
1972.57	313.673
1972.82	316.493
1973.06	301.079
1973.31	311.575
1973.56	306.745
1973.8	322.059
1974.05	320.135
1974.29	330.684
1974.54	310.57
1974.78	318.27
1975.03	319.274
1975.28	326.997
1975.52	306.9
1975.77	313.645
1976.01	320.378
1976.26	319.43
1976.51	319.431
1976.75	309.827
1977	315.56
1977.24	319.358
1977.49	317.389
1977.73	313.504
1977.98	309.63
1978.22	314.392
1978.47	320.128
1978.72	313.423
1978.96	309.602
1979.21	314.394
1979.45	312.496
1979.7	317.291
1979.95	318.21
1980.19	318.15
1980.44	324.807
1980.68	324.787
1980.93	303.66
1981.17	322.79
1981.42	315.064
1981.66	320.682
1981.91	320.545
1982.16	317.487
1982.4	322.819
1982.65	316.597
1982.89	314.815
1983.14	311.627
1983.38	315.908
1983.63	322.997
1983.87	310.276
1984.12	320.749
1984.36	324.676
1984.61	311.632
1984.85	309.611
1985.1	312.993
1985.34	312.517
1985.59	331.069
1985.84	315.998
1986.08	318.791
1986.33	320.923
1986.57	317.866
1986.82	309.788
1987.06	307.153
1987.31	312.522
1987.55	316.04
1987.8	312.08
1988.04	319.14
1988.29	316.475
1988.53	326.519
1988.78	311.52
1989.02	310.864
1989.27	310.219
1989.51	309.996
1989.76	310.773
1990	314.436
1990.25	310.752
1990.49	313.931
1990.74	310.713
1990.98	321.464
1991.23	317.683
1991.47	313.306
1991.72	310.28
1991.96	322.035
1992.21	312.448
1992.45	314.868
1992.7	311.541
1992.94	310.421
1993.19	309.296
1993.43	314.543
1993.68	314.096
1993.92	314.62
1994.17	309.795
1994.41	310.91
1994.66	312.056
1994.9	315.011
1995.15	308.657
1995.39	309.623
1995.64	309.087
1995.88	312.186
1996.13	310.701
1996.37	312.479
1996.62	317.783
1996.86	313.495
1997.11	311.704
1997.35	311.551
1997.6	315.712
1997.84	312.56
1998.09	303.381
1998.33	309.414
1998.58	312.581
1998.82	312.7
1999.07	302.619
1999.31	301.641
1999.55	308.69
1999.8	301.376
2000.04	307.681
2000.29	312.168
2000.53	307.518
2000.78	306.235
2001.02	310.116
2001.27	312.377
2001.51	306.549
2001.76	304.172
2002	304.604
2002.25	306.883
2002.49	307.812
2002.73	306.724
2002.98	308.173
2003.22	309.264
2003.47	312.139
2003.71	310.709
2003.96	306.895
2004.2	309.385
2004.45	307.506
2004.69	311.287
2004.94	317.151
2005.1	312.844
2005.34	311.881
2005.59	301.471
2005.84	310.917
2006.08	314.706
2006.33	303.403
2006.58	310.975
2006.83	294.882
2007.08	309.019
2007.32	311.81
2007.57	303.235
2007.82	313.494
2008.06	308.664
2008.31	310.473
2008.56	301.908
2008.81	303.7
2009.05	313.029
2009.3	301.64
2009.55	310.047
2009.8	312.799
2010.04	313.658
2010.29	296.689
2010.54	304.216
2010.79	304.208
2011.03	302.318
2011.28	315.493
2011.53	290.992
2011.77	308.871
2012.02	311.674
2012.27	309.758
2012.52	310.631
2012.76	307.676
2013.01	303.781
2013.26	309.33
2013.51	315.789
2013.75	311.887
2014	304.201
2014.25	299.39
2014.49	308.749
2014.74	312.524
2014.99	310.696
2015.24	308.87
2015.48	307.967
2015.73	307.903
2015.98	306.199
2016.22	302.618
2016.47	311.104
2016.72	309.2
2016.96	309.148
2017.21	310.949
2017.46	304.275
2017.71	304.151
2017.95	319.039
2018.2	317.988
2018.45	309.428
2018.69	321.487
2018.94	299.824
2019.19	304.465
2019.43	313.783
2019.68	306.277
2019.93	307.206
2020.18	300.634
2020.42	298.752
2020.67	304.397
2020.92	303.476
2021.16	297.856
2021.41	303.459
2021.66	296.873
2021.9	299.637
2022.15	303.322
2022.4	318.218
2022.64	310.641
2022.89	307.774
2023.14	319.862
2023.38	319.793
2023.63	315.048
2023.88	307.511
2024.12	307.399
2024.37	303.558
2024.62	305.323
2024.86	304.294
2025.11	303.271
2025.36	306.919
2025.6	307.752
2025.85	308.742
2026.1	308.875
2026.34	299.747
2026.59	304.66
2026.84	308.655
2027.08	300.363
2027.33	296.549
2027.58	312.231
2027.82	313.7
2028.07	300.105
2028.32	301.918
2028.56	306.445
2028.81	298.527
2029.06	310.817
2029.3	315.916
2029.55	300.621
2029.79	305.013
2030.04	304.003
2030.29	306.65
2030.53	293.815
2030.78	299.543
2031.03	307.906
2031.27	300.442
2031.52	307.001
2031.77	306.161
2032.01	313.737
2032.26	306.381
2032.51	294.334
2032.75	308.426
2033	310.366
2033.24	312.336
2033.49	310.458
2033.74	300.018
2033.98	312.845
2034.23	312.559
2034.48	312.541
2034.72	310.797
2034.97	308.115
2035.21	312.052
2035.46	301.986
2035.71	319.902
2035.95	297.381
2036.2	312.21
2036.45	304.776
2036.69	305.764
2036.94	313.241
2037.18	309.482
2037.43	301.972
2037.68	301.933
2037.92	304.693
2038.17	297.169
2038.41	308.334
2038.66	296.14
2038.91	308.23
2039.15	307.244
2039.4	299.7
2039.64	314.548
2039.89	298.599
2040.14	303.186
2040.38	295.652
2040.63	304.917
2040.87	307.663
2041.12	308.578
2041.37	305.76
2041.61	291.732
2041.86	304.749
2042.1	300.016
2042.35	307.462
2042.6	309.323
2042.84	309.36
2043.09	307.592
2043.33	302.13
2043.58	312.517
2043.83	312.548
2044.07	314.391
2044.32	308.707
2044.56	307.623
2044.81	298.938
2045.05	315.323
2045.3	303.186
2045.55	311.203
2045.79	307.014
2046.04	301.933
2046.28	304.46
2046.53	309.855
2046.77	300.559
2047.02	301.374
2047.26	308.589
2047.51	298.297
2047.76	309.502
2048	311.383
2048.25	308.61
2048.49	307.743
2048.74	294.739
2048.98	309.734
2049.23	310.763
2049.48	297.811
2049.72	300.691
2049.97	306.381
2050.21	303.622
2050.46	304.567
2050.7	303.607
2050.95	307.275
2051.2	308.128
2051.44	309.999
2051.69	299.741
2051.93	301.652
2052.18	301.67
2052.42	299.842
2052.67	307.368
2052.91	302.762
2053.16	298.181
2053.4	304.856
2053.65	310.525
2053.89	304.015
2054.14	307.765
2054.39	306.822
2054.63	296.517
2054.88	308.646
2055.12	307.644
2055.37	305.743
2055.61	301.987
2055.86	303.827
2056.1	296.319
2056.35	312.193
2056.59	300.979
2056.84	295.387
2057.08	308.502
2057.33	314.154
2057.57	305.786
2057.82	301.164
2058.07	304.047
2058.31	307.86
2058.56	314.477
2058.8	305.161
2059.04	296.755
2059.29	312.69
2059.54	304.262
2059.78	307.032
2060.03	306.046
2060.27	304.157
2060.52	308.878
2060.76	307.987
2061.01	306.144
2061.25	304.285
2061.5	306.165
2061.74	310.861
2061.99	316.505
2062.23	309.986
2062.48	312.845
2062.72	308.22
2062.97	294.217
2063.21	301.755
2063.46	307.411
2063.7	314
2063.95	303.716
2064.19	336.57
2064.44	308.491
2064.68	317.016
2064.93	303.04
2065.17	305.941
2065.42	318.22
2065.66	316.404
2065.91	303.301
2066.15	314.578
2066.39	306.17
2066.64	312.776
2066.88	319.383
2067.13	310.974
2067.37	310.089
2067.62	316.71
2067.86	301.706
2068.11	320.522
2068.35	304.599
2068.6	304.59
2068.84	301.722
2069.09	298.809
2069.33	299.611
2069.58	301.459
2069.82	296.802
2070.07	311.042
2070.31	306.501
2070.56	306.665
2070.8	317.892
2071.04	305.572
2071.29	313.549
2071.53	307.961
2071.78	309.811
2072.02	310.734
2072.27	300.369
2072.51	314.463
2072.76	315.411
2073	302.211
2073.25	309.763
2073.49	310.715
2073.73	305.087
2073.98	319.252
2074.22	331.565
2074.47	309.989
2074.71	310.103
2074.96	326.281
2075.2	325.509
2075.45	310.518
2075.69	309.627
2075.94	311.524
2076.18	318.14
2076.42	304.886
2076.67	304.823
2076.91	299.08
2077.16	317.819
2077.4	308.365
2077.65	308.41
2077.89	315.075
2078.13	315.105
2078.38	312.307
2078.62	316.132
2078.87	305.84
2079.11	316.361
2079.35	308.869
2079.6	309.869
2079.84	325.039
2080.09	315.628
2080.33	304.287
2080.58	305.203
2080.82	309.908
2081.06	305.178
2081.31	311.785
2081.55	312.726
2081.8	314.642
2082.04	319.392
2082.29	298.62
2082.53	309.966
2082.77	318.465
2083.02	307.113
2083.26	307.103
2083.51	302.382
2083.75	308.055
2083.99	297.659
2084.24	319.401
2084.48	313.742
2084.73	303.349
2084.97	324.141
2085.21	314.691
2085.46	301.494
2085.7	318.595
2085.95	306.406
2086.19	303.632
2086.43	315.962
2086.68	307.49
2086.92	305.652
2087.17	316.085
2087.41	303.787
2087.65	304.739
2087.9	309.482
2088.14	307.605
2088.39	306.677
2088.63	307.639
2088.87	310.536
2089.12	311.535
2089.36	314.468
2089.6	311.647
2089.85	308.823
2090.09	298.427
2090.33	311.722
2090.58	310.811
2090.82	308.952
2091.07	307.091
2091.31	312.869
2091.55	309.17
2091.8	313.068
2092.04	303.681
2092.28	300.942
2092.53	317.166
2092.77	312.498
2093.02	308.781
2093.26	317.411
2093.5	312.724
2093.75	322.289
2093.99	315.65
2094.23	300.436
2094.48	312.781
2094.72	306.101
2094.96	313.653
2095.21	311.696
2095.45	308.803
2095.7	304.969
2095.94	312.549
2096.18	309.688
2096.43	304.923
2096.67	322.925
2096.91	304.819
2097.16	307.611
2097.4	311.385
2097.64	313.268
2097.89	303.756
2098.13	314.16
2098.37	310.364
2098.62	307.508
2098.86	309.389
2099.1	307.479
2099.35	308.425
2099.59	308.429
2099.83	318.881
2100.08	314.154
2100.32	309.449
2100.56	312.374
2100.81	311.484
2101.05	307.724
2101.29	313.441
2101.54	311.54
2101.78	312.486
2102.02	320.085
2102.27	319.113
2102.51	313.361
2102.75	306.653
2103	303.778
2103.24	318.006
2103.48	301.855
2103.73	314.204
2103.97	311.389
2104.21	319.035
2104.46	307.688
2104.7	315.332
2104.94	303.992
2105.18	307.864
2105.43	319.324
2105.67	310.808
2105.91	309.888
2106.16	302.299
2106.4	310.871
2106.64	309.952
2106.89	314.711
2107.13	314.673
2107.37	315.56
2107.61	313.576
2107.86	305.891
2108.1	311.505
2108.34	309.546
2108.59	305.727
2108.83	314.293
2109.07	307.738
2109.32	315.388
2109.56	308.742
2109.8	311.594
2110.04	312.544
2110.29	311.595
2110.53	324.896
2110.77	312.543
2111.01	307.77
2111.26	312.475
2111.5	309.598
2111.74	320.026
2111.99	312.432
2112.23	308.669
2112.47	300.152
2112.71	303.041
2112.96	309.775
2113.2	308.885
2113.44	314.616
2113.69	313.641
2113.93	319.317
2114.17	311.712
2114.41	305.077
2114.66	313.637
2114.9	311.717
2115.14	305.038
2115.38	306.916
2115.63	310.691
2115.87	319.172
2116.11	309.615
2116.35	308.641
2116.6	309.577
2116.84	312.413
2117.08	317.179
2117.32	314.292
2117.57	310.444
2117.81	307.545
2118.05	306.511
2118.29	299.779
2118.54	302.558
2118.78	308.184
2119.02	321.392
2119.26	305.213
2119.51	308.948
2119.75	311.748
2119.99	306.998
2120.23	313.645
2120.48	319.387
2120.72	309.941
2120.96	314.755
2121.2	310.092
2121.45	310.162
2121.69	306.433
2121.93	311.235
2122.17	316.978
2122.42	306.581
2122.66	318.957
2122.9	316.136
2123.14	318.044
2123.38	308.525
2123.63	316.083
2123.87	310.332
2124.11	314.041
2124.35	297.791
2124.6	305.232
2124.84	318.365
2125.08	313.52
2125.32	309.636
2125.57	307.653
2125.81	312.307
2126.05	310.348
2126.29	309.337
2126.53	309.269
2126.78	317.719
2127.02	308.238
2127.26	312.005
2127.5	309.148
2127.74	311.006
2127.99	312.881
2128.23	307.212
2128.47	318.556
2128.71	311.925
2128.95	319.462
2129.2	313.771
2129.44	323.208
2129.68	303.348
2129.92	306.164
2130.16	318.424
2130.41	311.779
2130.65	303.238
2130.89	307.916
2131.13	314.478
2131.37	314.435
2131.62	316.295
2131.86	311.536
2132.1	309.585
2132.34	309.531
2132.58	321.77
2132.82	314.221
2133.07	309.517
2133.31	322.741
2133.55	303.87
2133.79	320.875
2134.03	316.163
2134.28	318.043
2134.52	310.485
2134.76	309.533
2135	318.009
2135.24	309.484
2135.48	310.372
2135.73	326.303
2135.97	306.41
2136.21	303.542
2136.45	306.39
2136.69	313
2136.94	313.008
2137.18	301.732
2137.42	307.46
2137.66	315.909
2137.9	309.219
2138.14	308.214
2138.39	309.23
2138.63	312.161
2138.87	308.458
2139.11	314.874
2139.35	306.289
2139.59	315.659
2139.83	318.438
2140.08	307.095
2140.32	314.597
2140.56	313.632
2140.8	305.131
2141.04	309.849
2141.28	313.543
2141.53	314.416
2141.77	311.569
2142.01	303.101
2142.25	307.875
2142.49	308.863
2142.73	314.799
2142.97	325.928
2143.21	307.194
2143.46	307.286
2143.7	306.391
2143.94	315.91
2144.18	319.781
2144.42	305.732
2144.66	303.652
2144.9	311.223
2145.15	320.637
2145.39	305.573
2145.63	315.889
2145.87	313.982
2146.11	316.777
2146.35	312.992
2146.59	306.381
2146.83	311.976
2147.08	329.785
2147.32	315.654
2147.56	312.803
2147.8	309.949
2148.04	313.669
2148.28	322.078
2148.52	306.067
2148.76	310.696
2149.01	312.494
2149.25	306.739
2149.49	319.797
2149.73	310.335
2149.97	312.149
2150.21	299.935
2150.45	303.681
2150.69	306.523
2150.93	315.948
2151.18	305.67
2151.42	306.654
2151.66	308.555
2151.9	318.909
2152.14	306.67
2152.38	318.816
2152.62	308.445
2152.86	315.894
2153.1	321.492
2153.34	306.465
2153.59	308.285
2153.83	311.018
2154.07	313.717
2154.31	318.265
2154.55	320.006
2154.79	308.641
2155.03	314.152
2155.27	320.602
2155.51	300.897
2155.75	304.579
2155.99	315.759
2156.23	297.062
2156.47	316.673
2156.72	308.269
2156.96	303.623
2157.2	313.946
2157.44	325.22
2157.68	314.989
2157.92	313.132
2158.16	315.934
2158.4	312.181
2158.64	301.872
2158.88	304.637
2159.12	317.667
2159.36	310.129
2159.6	304.447
2159.84	309.974
2160.09	306.171
2160.33	309.846
2160.57	304.215
2160.81	306.997
2161.05	309.767
2161.29	304.141
2161.53	312.528
2161.77	300.4
2162.01	315.328
2162.25	309.725
2162.49	327.419
2162.73	304.992
2162.97	312.419
2163.21	306.793
2163.45	305.826
2163.69	302.993
2163.93	312.245
2164.17	310.3
2164.41	313.047
2164.66	319.589
2164.9	312.163
2165.14	313.1
2165.38	304.719
2165.62	309.382
2165.86	314.933
2166.1	307.446
2166.34	312.057
2166.58	319.444
2166.82	313.811
2167.06	323.045
2167.3	300.61
2167.54	320.923
2167.78	324.499
2168.02	315.159
2168.26	307.717
2168.5	317.034
2168.74	314.29
2168.98	304.127
2169.22	317.24
2169.46	309.908
2169.7	313.755
2169.94	311.961
2170.18	301.742
2170.42	305.444
2170.66	309.106
2170.9	304.424
2171.14	311.738
2171.38	311.516
2171.62	303.04
2171.86	315.066
2172.1	312.224
2172.34	305.68
2172.58	301.956
2172.82	304.739
2173.06	302.878
2173.3	307.548
2173.54	309.447
2173.78	300.182
2174.02	314.137
2174.26	306.706
2174.5	304.846
2174.74	304.84
2174.98	308.537
2175.22	309.448
2175.46	293.64
2175.7	305.704
2175.94	299.174
2176.18	317.708
2176.42	305.614
2176.66	323.265
2176.9	311.198
2177.14	301.914
2177.38	313.057
2177.62	306.564
2177.86	321.394
2178.1	312.95
2178.34	304.534
2178.58	307.314
2178.82	299.9
2179.06	309.19
2179.3	306.408
2179.54	312.907
2179.78	302.692
2180.02	302.683
2180.26	310.091
2180.5	310.073
2180.74	310.064
2180.98	307.259
2181.22	313.719
2181.46	300.693
2181.7	312.74
2181.94	302.493
2182.18	313.599
2182.42	306.146
2182.66	297.738
2182.9	317.143
2183.14	298.511
2183.38	307.717
2183.62	314.155
2183.85	301.139
2184.09	315.025
2184.33	306.699
2184.57	298.389
2184.81	309.534
2185.05	312.34
2185.29	319.795
2185.53	305.945
2185.77	311.565
2186.01	305.131
2186.25	307.076
2186.49	304.386
2186.73	315.618
2186.97	319.424
2187.21	303.704
2187.45	302.791
2187.69	314.831
2187.93	310.134
2188.16	310.073
2188.41	307.222
2188.64	306.219
2188.88	302.425
2189.12	303.251
2189.36	305.951
2189.6	312.4
2189.84	310.537
2190.08	313.325
2190.32	317.064
2190.56	318.015
2190.8	312.454
2191.04	315.256
2191.28	310.647
2191.51	308.822
2191.76	299.576
2191.99	306.094
2192.23	315.4
2192.47	311.745
2192.71	293.24
2192.95	296.075
2193.19	309.141
2193.43	304.636
2193.67	314.076
2193.91	301.164
2194.15	315.164
2194.39	306.777
2194.62	303.954
2194.86	314.147
2195.1	315.027
2195.34	311.243
2195.58	313.011
2195.82	302.687
2196.06	308.16
2196.3	307.158
2196.54	306.172
2196.77	305.193
2197.01	305.149
2197.25	305.154
2197.49	302.381
2197.73	312.62
2197.97	318.266
2198.21	308.139
2198.45	306.377
2198.69	313.915
2198.93	312.15
2199.17	315.044
2199.4	304.924
2199.64	317.168
2199.88	318.271
2200.12	310.973
2200.36	308.307
2200.6	305.604
2200.84	310.341
2201.08	311.135
2201.31	316.392
2201.55	306.417
2201.79	316.188
2202.03	308.067
2202.27	310.466
2202.51	326.513
2202.75	308.752
2202.98	308.688
2203.22	306.211
2203.46	309.955
2203.7	311.448
2203.94	315.161
2204.18	310.542
2204.42	308.464
2204.66	308.188
2204.89	307.944
2205.13	309.636
2205.37	310.521
2205.61	301.234
2205.85	310.605
2206.09	305.96
2206.33	310.499
2206.56	309.591
2206.8	310.569
2207.04	308.769
2207.28	321.858
2207.52	311.695
2207.76	307.11
2208	312.76
2208.23	310.025
2208.47	311.934
2208.71	314.761
2208.95	302.675
2209.19	321.304
2209.43	320.365
2209.67	295.233
2209.9	305.519
2210.14	309.291
2210.38	315.866
2210.62	314.986
2210.86	318.765
2211.09	310.43
2211.33	317.96
2211.57	304.973
2211.81	303.155
2212.05	315.305
2212.29	306.89
2212.52	309.658
2212.76	307.764
2213	306.782
2213.24	314.189
2213.48	316.074
2213.72	316.14
2213.95	297.616
2214.19	304.264
2214.43	305.232
2214.67	318.329
2214.91	305.282
2215.15	312.766
2215.38	314.643
2215.62	319.314
2215.86	308.107
2216.1	303.432
2216.34	312.755
2216.57	309.01
2216.81	305.277
2217.05	315.561
2217.29	314.643
2217.53	323.046
2217.76	311.84
2218	308.121
2218.24	309.088
2218.48	304.463
2218.72	310.124
2218.95	305.513
2219.19	302.745
2219.43	318.672
2219.67	304.686
2219.91	316.83
2220.14	317.752
2220.38	315.873
2220.62	305.563
2220.86	311.096
2221.09	317.552
2221.33	294.139
2221.57	309.955
2221.81	318.319
2222.05	314.578
2222.29	311.802
2222.52	307.181
2222.76	309.096
2223	311.953
2223.24	321.372
2223.47	310.255
2223.71	320.636
2223.95	319.795
2224.19	315.2
2224.43	309.659
2224.66	313.472
2224.9	307
2225.14	312.708
2225.38	310.907
2225.61	308.164
2225.85	309.17
2226.09	305.472
2226.33	314.913
2226.56	309.351
2226.8	311.279
2227.04	319.757
2227.28	316.03
2227.51	321.65
2227.75	313.188
2227.99	311.291
2228.23	318.772
2228.47	308.444
2228.7	306.554
2228.94	313.118
2229.18	305.672
2229.42	310.444
2229.65	309.584
2229.89	312.456
2230.13	317.211
2230.36	313.523
2230.6	312.654
2230.84	303.338
2231.08	319.384
2231.31	316.629
2231.55	313.876
2231.79	313.94
2232.03	315.884
2232.27	324.408
2232.5	323.532
2232.74	309.482
2232.98	306.719
2233.21	314.307
2233.45	313.413
2233.69	314.392
2233.93	311.552
2234.16	315.294
2234.4	312.434
2234.64	318.966
2234.87	310.388
2235.11	320.654
2235.35	313.14
2235.59	306.572
2235.82	316.936
2236.06	315.075
2236.3	323.555
2236.54	316.05
2236.77	317.068
2237.01	317.137
2237.25	305.965
2237.48	296.678
2237.72	308.1
2237.96	304.418
2238.2	306.386
2238.43	313.083
2238.67	327.35
2238.91	321.714
2239.14	304.708
2239.38	322.59
2239.62	309.299
2239.85	311.111
2240.09	314.847
2240.33	309.324
2240.57	323.597
2240.8	320.79
2241.04	311.377
2241.28	313.291
2241.51	319.919
2241.75	312.399
2241.99	320.931
2242.22	305.868
2242.46	316.262
2242.7	311.531
2242.94	315.268
2243.17	306.728
2243.41	320.861
2243.65	316.135
2243.88	312.373
2244.12	313.366
2244.36	313.461
2244.59	319.258
2244.83	322.213
2245.07	311.896
2245.3	311.959
2245.54	314.864
2245.78	310.203
2246.01	320.663
2246.25	315.021
2246.49	317.91
2246.72	310.39
2246.96	311.371
2247.2	310.441
2247.43	307.599
2247.67	316.103
2247.91	305.676
2248.14	319.853
2248.38	308.482
2248.62	322.66
2248.85	315.079
2249.09	318.92
2249.33	304.766
2249.56	302.872
2249.8	308.514
2250.04	316.972
2250.27	315.962
2250.51	324.4
2250.75	328.124
2250.98	312.006
2251.22	326.171
2251.46	312.949
2251.69	312.039
2251.93	310.198
2252.17	314.993
2252.4	318.881
2252.64	320.001
2252.88	305.922
2253.11	312.648
2253.35	319.358
2253.59	314.681
2253.82	329.913
2254.06	314.79
2254.29	319.54
2254.53	313.823
2254.77	317.632
2255	319.533
2255.24	310.064
2255.48	317.666
2255.71	317.722
2255.95	313.99
2256.19	322.586
2256.42	306.509
2256.66	315.105
2256.9	305.666
2257.13	318.059
2257.37	301.954
2257.6	319.067
2257.84	314.335
2258.08	319.107
2258.31	312.491
2258.55	312.537
2258.78	324.938
2259.02	315.471
2259.26	310.748
2259.49	317.439
2259.73	322.227
2259.97	310.854
2260.2	311.837
2260.44	313.789
2260.67	318.646
2260.91	318.717
2261.15	318.736
2261.38	321.612
2261.62	318.787
2261.85	309.299
2262.09	328.382
2262.33	320.837
2262.56	312.341
2262.8	315.284
2263.03	329.676
2263.27	306.918
2263.51	305.135
2263.74	328.148
2263.98	312.997
2264.21	311.183
2264.45	308.397
2264.69	319.923
2264.92	320.938
2265.16	330.505
2265.39	318.102
2265.63	310.439
2265.86	321.834
2266.1	311.257
2266.34	315.955
2266.57	324.475
2266.81	313.927
2267.05	317.698
2267.28	321.465
2267.52	318.535
2267.75	307.993
2267.99	318.463
2268.22	325.149
2268.46	308.03
2268.7	315.728
2268.93	320.585
2269.17	325.451
2269.4	315.049
2269.64	319.938
2269.87	316.222
2270.11	320.108
2270.35	324.929
2270.58	316.399
2270.82	317.416
2271.05	314.59
2271.29	314.637
2271.52	329.048
2271.76	326.216
2271.99	314.745
2272.23	320.502
2272.47	316.694
2272.7	314.802
2272.94	312.907
2273.17	324.41
2273.41	317.731
2273.64	317.75
2273.88	320.638
2274.12	308.214
2274.35	319.72
2274.58	325.489
2274.82	311.149
2275.06	314.046
2275.29	319.78
2275.53	322.701
2275.76	324.697
2276	318.074
2276.23	316.231
2276.47	312.464
2276.7	316.37
2276.94	318.395
2277.17	320.435
2277.41	322.484
2277.65	317.828
2277.88	323.642
2278.12	320.788
2278.35	324.637
2278.59	322.707
2278.82	312.125
2279.06	314.956
2279.29	318.651
2279.53	327.195
2279.76	306.964
2280	315.524
2280.23	309.71
2280.47	315.419
2280.71	324.976
2280.94	326.854
2281.17	322.029
2281.41	320.151
2281.65	317.299
2281.88	325.975
2282.11	322.206
2282.35	312.693
2282.59	318.524
2282.82	318.616
2283.06	329.304
2283.29	317.937
2283.53	319.033
2283.76	328.805
2284	309.666
2284.23	330.862
2284.47	319.396
2284.7	313.701
2284.94	317.577
2285.17	313.743
2285.41	315.606
2285.64	308.748
2285.88	323.166
2286.11	340.506
2286.35	329.014
2286.58	318.584
2286.82	316.79
2287.05	305.286
2287.29	318.802
2287.52	316.008
2287.76	319.843
2287.99	318.833
2288.23	324.565
2288.46	319.696
2288.69	321.528
2288.93	325.256
2289.17	318.415
2289.4	317.316
2289.63	317.272
2289.87	332.621
2290.1	323.011
2290.34	318.211
2290.57	303.836
2290.81	316.42
2291.04	314.607
2291.28	315.644
2291.51	318.59
2291.75	319.61
2291.98	321.598
2292.22	307.232
2292.45	326.57
2292.69	326.631
2292.92	319.938
2293.15	322.867
2293.39	317.109
2293.62	324.798
2293.86	328.617
2294.09	322.788
2294.33	313.093
2294.56	321.719
2294.8	328.418
2295.03	315.855
2295.27	318.7
2295.5	312.888
2295.73	321.487
2295.97	311.726
2296.2	317.48
2296.44	323.28
2296.67	309.855
2296.91	315.689
2297.14	321.539
2297.38	315.852
2297.61	317.892
2297.85	317.968
2298.08	321.869
2298.31	312.295
2298.55	327.805
2298.78	320.166
2299.02	325.048
2299.25	318.335
2299.49	326.047
2299.72	318.336
2299.95	311.575
2300.19	318.364
2300.42	324.212
2300.66	309.781
2300.89	332.984
2301.13	322.392
2301.36	323.368
2301.59	315.639
2301.83	327.196
2302.06	325.241
2302.3	320.427
2302.53	327.179
2302.77	319.441
2303	315.577
2303.23	316.548
2303.47	323.336
2303.7	313.74
2303.94	320.552
2304.17	321.557
2304.4	324.501
2304.64	312.008
2304.87	313.015
2305.11	324.626
2305.34	328.519
2305.58	319.865
2305.81	316.044
2306.04	317.027
2306.28	323.802
2306.51	315.101
2306.75	316.06
2306.98	332.465
2307.21	329.524
2307.45	314.04
2307.68	327.542
2307.92	316.885
2308.15	313.023
2308.38	325.595
2308.62	329.511
2308.85	317.005
2309.09	316.117
2309.32	315.255
2309.55	311.459
2309.79	335.678
2310.02	318.277
2310.26	312.468
2310.49	309.536
2310.72	316.24
2310.96	318.972
2311.19	313.924
2311.42	326.367
2311.66	315.661
2311.89	322.374
2312.13	319.423
2312.36	311.661
2312.59	324.198
2312.83	316.515
2313.06	320.469
2313.29	317.703
2313.53	322.631
2313.76	318.863
2314	320.897
2314.23	318.115
2314.46	310.495
2314.7	326.03
2314.93	321.123
2315.16	325.874
2315.4	317.108
2315.63	321.859
2315.87	320.726
2316.1	325.453
2316.33	308.026
2316.57	331.191
2316.8	316.725
2317.03	317.711
2317.27	326.484
2317.5	325.584
2317.73	320.662
2317.97	316.736
2318.2	306.077
2318.43	325.338
2318.67	320.459
2318.9	318.481
2319.13	322.307
2319.37	330.003
2319.6	318.424
2319.84	319.4
2320.07	318.436
2320.3	325.22
2320.54	317.548
2320.77	326.291
2321	323.457
2321.23	314.837
2321.47	323.621
2321.7	325.657
2321.94	326.714
2322.17	320.954
2322.4	328.679
2322.64	328.691
2322.87	324.851
2323.1	322.939
2323.33	325.863
2323.57	328.778
2323.8	317.164
2324.03	331.654
2324.27	320.948
2324.5	331.48
2324.73	327.5
2324.97	338.043
2325.2	339.909
2325.43	326.327
2325.67	333.017
2325.9	338.737
2326.13	331.91
2326.37	349.203
2326.6	333.696
2326.83	341.336
2327.07	346.104
2327.3	361.471
2327.53	371.066
2327.77	399.031
2328	425.064
2328.23	462.666
2328.46	472.225
2328.7	458.641
2328.93	442.149
2329.16	386.234
2329.4	359.25
2329.63	346.769
2329.86	341.94
2330.09	333.243
2330.33	341.881
2330.56	342.831
2330.79	327.444
2331.03	322.675
2331.26	317.913
2331.49	329.553
2331.73	316.961
2331.96	329.412
2332.19	325.513
2332.42	312.951
2332.66	311.947
2332.89	328.274
2333.12	311.874
2333.36	327.245
2333.59	311.805
2333.82	318.49
2334.05	324.182
2334.29	325.091
2334.52	318.325
2334.75	317.351
2334.99	323.106
2335.22	329.847
2335.45	321.216
2335.68	316.403
2335.92	317.334
2336.15	316.351
2336.38	320.184
2336.61	322.096
2336.85	324.004
2337.08	315.339
2337.31	331.657
2337.54	312.409
2337.78	318.163
2338.01	323.916
2338.24	310.45
2338.47	318.15
2338.71	314.315
2338.94	311.433
2339.17	303.736
2339.41	318.131
2339.64	315.211
2339.87	324.768
2340.1	317.028
2340.34	314.079
2340.57	311.113
2340.8	324.453
2341.03	312.818
2341.27	308.887
2341.5	326.091
2341.73	314.535
2341.96	323.792
2342.2	317.125
2342.43	313.525
2342.66	316.276
2342.89	315.903
2343.13	317.844
2343.36	315.142
2343.59	322.018
2343.82	321.892
2344.05	321.312
2344.29	309.06
2344.52	319.768
2344.75	320.08
2344.98	327.907
2345.22	309.965
2345.45	312.817
2345.68	317.429
2345.91	316.819
2346.14	318.773
2346.38	317.86
2346.61	321.095
2346.84	315.414
2347.07	321.292
2347.31	331.242
2347.54	322.118
2347.77	316.313
2348	316.451
2348.23	314.852
2348.47	311.781
2348.7	309.398
2348.93	311.106
2349.16	316.859
2349.39	307.466
2349.63	320.731
2349.86	317.234
2350.09	322.431
2350.32	310.789
2350.56	315.669
2350.79	325.364
2351.02	316.305
2351.25	314.343
2351.48	323.389
2351.72	310.644
2351.95	309.552
2352.18	313.844
2352.41	315.85
2352.64	315.563
2352.88	316.939
2353.11	312.312
2353.34	316.927
2353.57	309.923
2353.8	322.513
2354.03	322.306
2354.27	309.69
2354.5	315.961
2354.73	310.736
2354.96	314.044
2355.19	311.289
2355.43	318.682
2355.66	311.31
2355.89	312.665
2356.12	305.983
2356.35	319.628
2356.59	328.231
2356.82	312.648
2357.05	315.66
2357.28	308.573
2357.51	307.9
2357.74	311.74
2357.98	307.108
2358.21	314.58
2358.44	318.93
2358.67	319.762
2358.9	316.759
2359.13	313.654
2359.37	314.896
2359.6	315.396
2359.83	308.682
2360.06	311.777
2360.29	309.981
2360.52	313.194
2360.75	315.062
2360.99	309.627
2361.22	307.699
2361.45	305.942
2361.68	304.844
2361.91	317.724
2362.14	320.131
2362.38	313.439
2362.61	309.122
2362.84	312.385
2363.07	314.919
2363.3	308.208
2363.53	304.335
2363.77	302.346
2364	309.006
2364.23	321.378
2364.46	318.249
2364.69	312.564
2364.92	308.357
2365.15	306.055
2365.27	308.856
2365.51	314.331
2365.74	319.896
2365.98	315.153
2366.21	300.042
2366.45	329.378
2366.68	305.948
2366.92	328.827
2367.15	311.851
2367.38	311.825
2367.62	307.082
2367.85	306.988
2368.09	309.76
2368.32	312.546
2368.56	316.272
2368.79	308.663
2369.02	305.767
2369.26	301.926
2369.49	314.115
2369.73	310.262
2369.96	314.898
2370.2	310.116
2370.43	314.775
2370.66	313.767
2370.9	327.845
2371.13	324.034
2371.37	307.991
2371.6	314.55
2371.83	310.721
2372.07	322.912
2372.3	317.208
2372.54	304.927
2372.77	301.136
2373	315.238
2373.24	308.63
2373.47	305.753
2373.71	310.385
2373.94	309.388
2374.17	312.158
2374.41	298.002
2374.64	305.465
2374.88	305.399
2375.11	312.859
2375.34	302.492
2375.58	303.409
2375.81	303.389
2376.05	307.113
2376.28	299.542
2376.51	306.067
2376.75	307.916
2376.98	308.83
2377.22	309.734
2377.45	312.493
2377.68	308.678
2377.92	308.628
2378.15	305.753
2378.39	311.318
2378.62	301.876
2378.85	306.478
2379.09	317.612
2379.32	316.573
2379.56	303.4
2379.79	315.539
2380.02	309.895
2380.26	306.126
2380.49	322.956
2380.72	312.646
2380.96	305.153
2381.19	316.393
2381.42	306.109
2381.66	309.843
2381.89	307.95
2382.13	299.517
2382.36	310.73
2382.59	306.022
2382.83	310.681
2383.06	309.735
2383.29	305.981
2383.53	312.521
2383.76	305.971
2384	297.552
2384.23	305.022
2384.46	297.519
2384.7	311.529
2384.93	299.317
2385.16	297.4
2385.4	307.623
2385.63	314.079
2385.86	310.258
2386.1	304.583
2386.33	304.48
2386.56	305.32
2386.8	300.567
2387.03	300.457
2387.26	300.386
2387.5	303.171
2387.73	315.306
2387.97	311.576
2388.2	312.5
2388.43	294.756
2388.67	318.979
2388.9	316.144
2389.13	299.357
2389.36	310.531
2389.6	305.855
2389.83	314.243
2390.06	295.594
2390.3	301.201
2390.53	303.085
2390.77	308.704
2391	295.659
2391.23	309.657
2391.47	314.309
2391.7	315.22
2391.93	317.056
2392.16	322.621
2392.4	315.106
2392.63	301.948
2392.86	310.218
2393.1	296.138
2393.33	309.973
2393.56	312.695
2393.8	303.33
2394.03	316.339
2394.26	315.312
2394.5	311.51
2394.73	308.762
2394.96	309.75
2395.2	301.498
2395.43	312.443
2395.66	318.907
2395.9	317.975
2396.13	315.445
2396.36	307.157
2396.59	305.959
2396.83	312.45
2397.06	312.43
2397.29	304.971
2397.53	314.305
2397.76	318.037
2397.99	304.965
2398.23	308.685
2398.46	303.087
2398.69	310.544
2398.92	319.866
2399.16	311.487
2399.39	303.099
2399.62	307.766
2399.86	319.887
2400.09	305.887
2400.32	306.802
2400.56	307.708
2400.79	303.95
2401.02	303.928
2401.25	320.686
2401.49	308.545
2401.72	308.517
2401.95	309.404
2402.18	317.716
2402.42	317.609
2402.65	310.948
2402.88	303.347
2403.12	304.056
2403.35	309.242
2403.58	304.569
2403.81	304.407
2404.05	312.112
2404.28	311.125
2404.51	315.785
2404.74	324.366
2404.98	308.596
2405.21	314.167
2405.44	306.727
2405.68	301.143
2405.91	300.233
2406.14	317.978
2406.37	311.473
2406.61	316.142
2406.84	302.152
2407.07	305.878
2407.3	297.48
2407.54	307.731
2407.77	299.332
2408	308.651
2408.23	316.107
2408.47	300.248
2408.7	319.811
2408.93	314.189
2409.16	317.896
2409.4	299.261
2409.63	313.264
2409.86	309.541
2410.09	298.352
2410.33	307.673
2410.56	294.63
2410.79	312.364
2411.02	308.63
2411.26	311.421
2411.49	302.12
2411.72	309.635
2411.95	309.683
2412.19	318.111
2412.42	296.676
2412.65	310.719
2412.88	314.483
2413.11	307.028
2413.35	318.225
2413.58	314.467
2413.81	305.121
2414.04	299.523
2414.28	308.842
2414.51	305.074
2414.74	309.68
2414.97	304.035
2415.21	308.659
2415.44	308.625
2415.67	308.569
2415.9	302.001
2416.13	298.259
2416.37	300.135
2416.6	305.76
2416.83	310.475
2417.06	308.662
2417.29	314.348
2417.53	312.51
2417.76	305.994
2417.99	305.125
2418.22	308.904
2418.45	313.686
2418.69	307.262
2418.92	312.949
2419.15	304.608
2419.38	310.268
2419.61	307.512
2419.85	305.673
2420.08	325.3
2420.31	319.702
2420.54	317.861
2420.78	309.513
2421.01	315.165
2421.24	326.205
2421.47	311.082
2421.7	314.776
2421.94	307.298
2422.17	309.191
2422.4	302.713
2422.63	314.959
2422.86	308.553
2423.09	315.282
2423.33	306.079
2423.56	317.254
2423.79	305.872
2424.02	300.354
2424.25	305.091
2424.48	306.094
2424.72	318.334
2424.95	298.737
2425.18	315.661
2425.41	315.727
2425.64	306.417
2425.88	309.284
2426.11	304.656
2426.34	300.969
2426.57	317.895
2426.8	312.301
2427.03	308.582
2427.27	309.552
2427.5	313.329
2427.73	310.519
2427.96	308.627
2428.19	314.225
2428.43	301.998
2428.66	312.302
2428.89	308.543
2429.12	315.094
2429.35	313.209
2429.58	313.205
2429.81	311.326
2430.05	307.571
2430.28	310.382
2430.51	315.093
2430.74	317.916
2430.97	315.14
2431.2	303.003
2431.44	307.79
2431.67	309.776
2431.9	311.753
2432.13	307.15
2432.36	312.87
2432.59	316.708
2432.82	311.141
2433.05	319.66
2433.29	307.476
2433.52	320.634
2433.75	317.829
2433.98	305.641
2434.21	316.939
2434.44	308.483
2434.68	314.188
2434.91	308.606
2435.14	314.307
2435.37	314.363
2435.6	305.026
2435.83	311.696
2436.06	309.895
2436.29	313.736
2436.53	316.572
2436.76	308.103
2436.99	306.236
2437.22	310.024
2437.45	302.487
2437.68	312.789
2437.91	311.838
2438.14	313.741
2438.38	315.681
2438.61	297.837
2438.84	304.495
2439.07	307.411
2439.3	308.427
2439.53	319.823
2439.76	308.577
2439.99	318.094
2440.23	302.133
2440.46	313.534
2440.69	313.574
2440.92	313.593
2441.15	314.529
2441.38	318.265
2441.61	324.885
2441.84	321.153
2442.07	309.88
2442.3	307.108
2442.53	322.292
2442.77	309.118
2443	309.168
2443.23	312.035
2443.46	317.76
2443.69	304.583
2443.92	320.72
2444.15	313.19
2444.38	311.337
2444.61	318.005
2444.84	320.897
2445.08	325.69
2445.31	321.959
2445.54	312.532
2445.77	307.822
2446	317.337
2446.23	306.992
2446.46	308.016
2446.69	304.296
2446.92	318.585
2447.15	313.911
2447.38	320.609
2447.61	306.413
2447.85	314.013
2448.08	313.993
2448.31	301.617
2448.54	308.228
2448.77	310.125
2449	337.643
2449.23	310.16
2449.46	326.344
2449.69	308.386
2449.92	312.234
2450.15	306.601
2450.38	323.783
2450.61	321.056
2450.85	312.656
2451.08	316.545
2451.31	302.317
2451.54	319.455
2451.77	319.494
2452	315.736
2452.23	312.911
2452.46	306.259
2452.69	316.683
2452.92	314.733
2453.15	307.092
2453.38	324.186
2453.61	307.075
2453.84	302.339
2454.07	318.541
2454.3	314.792
2454.53	315.811
2454.76	319.693
2455	307.408
2455.22	326.54
2455.46	315.186
2455.69	304.751
2455.92	312.432
2456.15	319.198
2456.38	311.657
2456.61	310.77
2456.84	315.587
2457.07	310.842
2457.3	318.477
2457.53	313.724
2457.76	322.321
2457.99	310.887
2458.22	306.123
2458.45	319.464
2458.68	321.386
2458.91	323.325
2459.14	316.695
2459.37	301.48
2459.6	310.114
2459.83	313.024
2460.06	313.067
2460.29	306.43
2460.52	316.01
2460.75	318.894
2460.98	319.859
2461.21	314.13
2461.44	301.702
2461.67	310.265
2461.9	316.001
2462.14	323.67
2462.36	311.26
2462.59	310.349
2462.83	316.039
2463.05	313.145
2463.29	320.934
2463.52	314.688
2463.74	307.686
2463.98	312.236
2464.21	315.978
2464.43	314.042
2464.67	321.705
2464.9	304.496
2465.12	320.793
2465.36	308.356
2465.59	327.476
2465.81	321.683
2466.05	318.788
2466.28	315.885
2466.5	310.138
2466.74	308.232
2466.97	299.675
2467.19	317.958
2467.43	321.755
2467.65	317.824
2467.88	314.852
2468.12	325.291
2468.34	306.115
2468.57	328.102
2468.8	311.842
2469.03	320.476
2469.26	315.732
2469.49	310.982
2469.72	313.883
2469.95	315.835
2470.18	321.615
2470.41	328.303
2470.64	313.961
2470.87	315.929
2471.1	309.275
2471.33	314.13
2471.56	316.145
2471.79	318.157
2472.02	327.819
2472.25	324.992
2472.48	315.427
2472.71	318.329
2472.94	311.67
2473.17	304.987
2473.4	314.366
2473.63	319.185
2473.86	319.37
2474.09	324.689
2474.32	323.135
2474.55	327.196
2474.78	314.734
2475.01	322.58
2475.24	323.538
2475.47	315.049
2475.7	335.313
2475.92	313.367
2476.15	323.027
2476.38	311.602
2476.61	326.01
2476.84	312.613
2477.07	330.769
2477.3	324.959
2477.53	315.205
2477.76	323.708
2477.99	324.377
2478.22	332.421
2478.45	308.804
2478.68	310.812
2478.91	322.262
2479.14	325.769
2479.37	317.694
2479.6	308.994
2479.83	328.408
2480.05	318.73
2480.28	312.419
2480.51	327.978
2480.74	311.462
2480.97	320.662
2481.2	314.302
2481.43	309.561
2481.66	313.304
2481.89	313.319
2482.12	325.788
2482.35	310.454
2482.58	328.636
2482.81	319.985
2483.04	314.225
2483.27	320.919
2483.49	320.906
2483.72	321.845
2483.95	315.107
2484.18	317.002
2484.41	317.005
2484.64	317.013
2484.87	317.015
2485.1	314.132
2485.33	313.193
2485.56	312.276
2485.78	309.428
2486.02	317.092
2486.24	319.955
2486.47	319.935
2486.7	315.111
2486.93	322.717
2487.16	311.156
2487.39	319.718
2487.62	320.647
2487.85	312.023
2488.08	312.004
2488.31	314.833
2488.53	311.881
2488.76	312.747
2488.99	316.556
2489.22	312.719
2489.45	328.024
2489.68	305.088
2489.91	312.757
2490.14	318.508
2490.37	304.164
2490.59	330.946
2490.82	312.77
2491.05	303.19
2491.28	315.591
2491.51	321.284
2491.74	315.494
2491.97	309.688
2492.2	318.176
2492.43	317.078
2492.65	312.178
2492.88	315.85
2493.11	314.716
2493.34	315.579
2493.57	312.727
2493.8	314.643
2494.03	312.975
2494.25	314.501
2494.48	316.474
2494.71	319.204
2494.94	314.468
2495.17	320.212
2495.4	318.128
2495.63	315.738
2495.86	318.502
2496.08	318.49
2496.31	315.474
2496.54	314.413
2496.77	319.113
2497	320.943
2497.23	321.783
2497.46	320.678
2497.69	313.982
2497.91	319.735
2498.14	319.792
2498.37	315.088
2498.6	325.62
2498.83	308.545
2499.06	319.07
2499.28	322.915
2499.51	316.248
2499.74	313.342
2499.97	308.496
2500.2	302.614
2500.43	314.875
2500.66	314.779
2500.88	309.938
2501.11	311.749
2501.34	314.519
2501.57	323.004
2501.8	325.795
2502.03	316.248
2502.25	318.112
2502.48	326.632
2502.71	316.141
2502.94	315.166
2503.17	316.146
2503.4	324.665
2503.62	326.521
2503.85	312.231
2504.08	324.509
2504.31	305.485
2504.54	317.766
2504.77	328.097
2504.99	315.677
2505.22	316.597
2505.45	317.607
2505.68	309.19
2505.91	322.661
2506.14	319.102
2506.36	307.874
2506.59	317.223
2506.82	317.962
2507.05	323.643
2507.28	321.746
2507.5	323.662
2507.73	315.145
2507.96	327.512
2508.19	307.596
2508.42	312.351
2508.64	311.4
2508.87	329.421
2509.1	305.662
2509.33	317.015
2509.56	303.655
2509.79	324.445
2510.01	316.765
2510.24	321.393
2510.47	311.779
2510.7	310.679
2510.92	311.457
2511.15	321.727
2511.38	317.835
2511.61	306.407
2511.84	304.471
2512.06	323.357
2512.29	323.348
2512.52	322.4
2512.75	312.947
2512.98	321.463
2513.2	318.676
2513.43	306.45
2513.66	315.978
2513.89	311.272
2514.11	321.641
2514.34	313.093
2514.57	313.059
2514.8	313.946
2515.03	326.131
2515.26	315.625
2515.48	319.296
2515.71	329.569
2515.94	314.338
2516.17	315.148
2516.39	312.181
2516.62	314.917
2516.85	322.372
2517.08	315.685
2517.3	322.194
2517.53	308.936
2517.76	311.708
2517.99	313.532
2518.21	317.235
2518.44	312.45
2518.67	312.423
2518.9	317.125
2519.13	315.256
2519.35	313.396
2519.58	322.841
2519.81	310.672
2520.04	321.102
2520.26	306.098
2520.49	308.047
2520.72	319.428
2520.95	305.314
2521.17	316.632
2521.4	308.141
2521.63	314.724
2521.86	318.413
2522.08	330.51
2522.31	312.57
2522.54	308.755
2522.77	311.555
2522.99	316.239
2523.22	318.101
2523.45	312.444
2523.68	330.336
2523.9	308.667
2524.13	314.269
2524.36	323.653
2524.58	312.338
2524.81	324.544
2525.04	314.133
2525.27	315.898
2525.49	316.697
2525.72	307.151
2525.95	307.05
2526.18	316.342
2526.4	312.492
2526.63	314.295
2526.86	308.654
2527.09	311.446
2527.31	319.873
2527.54	322.683
2527.77	311.438
2527.99	312.402
2528.22	311.501
2528.45	304.023
2528.68	311.568
2528.9	308.799
2529.13	313.54
2529.36	318.254
2529.58	307.927
2529.81	316.369
2530.04	307.915
2530.27	309.785
2530.49	326.657
2530.72	320.977
2530.95	307.782
2531.18	305.874
2531.4	310.521
2531.63	306.714
2531.86	314.169
2532.08	316.947
2532.31	314.065
2532.54	325.221
2532.76	311.117
2532.99	315.775
2533.22	303.595
2533.45	310.18
2533.67	314.9
2533.9	314.019
2534.13	311.23
2534.35	309.35
2534.58	325.219
2534.81	303.61
2535.03	325.118
2535.26	326.964
2535.49	310.093
2535.71	310.09
2535.94	311.025
2536.17	318.513
2536.4	307.251
2536.62	310.953
2536.85	309.027
2537.08	317.421
2537.3	323.001
2537.53	306.101
2537.76	320.088
2537.98	310.671
2538.21	317.145
2538.44	315.198
2538.66	320.737
2538.89	315.988
2539.12	309.354
2539.34	314.003
2539.57	308.342
2539.8	324.181
2540.02	315.737
2540.25	319.45
2540.48	322.241
2540.7	301.695
2540.93	322.262
2541.16	301.761
2541.38	315.882
2541.61	321.554
2541.84	316.906
2542.06	305.715
2542.29	320.704
2542.52	320.733
2542.74	315.143
2542.97	317.973
2543.2	314.222
2543.42	307.642
2543.65	310.405
2543.88	311.281
2544.1	311.225
2544.33	308.383
2544.55	296.213
2544.78	312.114
2545.01	324.27
2545.23	313.997
2545.46	302.79
2545.69	316.816
2545.91	312.147
2546.14	319.587
2546.37	318.54
2546.59	314.79
2546.82	311.046
2547.05	312.915
2547.27	310.12
2547.5	310.133
2547.73	318.562
2547.95	315.783
2548.18	325.142
2548.4	323.292
2548.63	324.271
2548.86	314.979
2549.08	307.544
2549.31	314.131
2549.54	318.855
2549.76	339.492
2549.99	312.445
2550.21	306.914
2550.44	308.848
2550.67	305.155
2550.89	315.488
2551.12	318.335
2551.34	322.144
2551.57	321.264
2551.8	307.254
2552.02	317.587
2552.25	318.538
2552.48	311.032
2552.7	315.682
2552.93	307.215
2553.15	309.996
2553.38	316.529
2553.61	317.449
2553.83	293.091
2554.06	313.686
2554.28	315.562
2554.51	324.941
2554.74	313.726
2554.96	320.312
2555.19	323.17
2555.42	321.37
2555.64	308.345
2555.87	319.702
2556.09	319.807
2556.32	318.03
2556.55	320.941
2556.77	316.329
2557	310.75
2557.22	307.948
2557.45	326.725
2557.67	321.111
2557.9	312.699
2558.13	327.754
2558.35	324.007
2558.58	315.56
2558.8	309.923
2559.03	323.061
2559.26	305.203
2559.48	318.333
2559.71	322.067
2559.93	310.774
2560.16	328.59
2560.39	313.56
2560.61	315.446
2560.84	313.578
2561.06	324.854
2561.29	321.112
2561.51	327.71
2561.74	323.049
2561.96	308.998
2562.19	325.002
2562.42	310.965
2562.64	314.814
2562.87	315.866
2563.09	323.497
2563.32	317.018
2563.55	301.124
2563.77	321.931
2564	305.119
2564.22	314.666
2564.45	316.65
2564.67	317.665
2564.9	307.341
2565.12	314.905
2565.35	309.253
2565.58	309.229
2565.8	315.811
2566.03	310.151
2566.25	321.459
2566.48	308.263
2566.7	326.196
2566.93	314.912
2567.15	312.093
2567.38	310.206
2567.61	312.081
2567.83	315.84
2568.06	326.2
2568.28	317.718
2568.51	318.675
2568.73	304.551
2568.96	314.946
2569.18	304.585
2569.41	310.261
2569.63	308.426
2569.86	325.484
2570.08	314.225
2570.31	307.68
2570.53	317.196
2570.76	301.238
2570.99	315.524
2571.21	320.401
2571.44	312.98
2571.66	319.729
2571.89	321.738
2572.11	312.38
2572.34	317.205
2572.56	327.708
2572.79	310.726
2573.01	315.519
2573.24	315.587
2573.46	302.384
2573.69	320.423
2573.91	311.954
2574.14	314.708
2574.36	335.502
2574.59	313.64
2574.81	310.746
2575.04	312.633
2575.26	315.498
2575.49	314.68
2575.71	336.608
2575.94	318.646
2576.16	312.035
2576.39	321.553
2576.61	322.547
2576.84	328.303
2577.06	312.251
2577.29	311.392
2577.52	315.287
2577.74	317.286
2577.96	327.841
2578.19	320.337
2578.42	323.274
2578.64	314.778
2578.86	326.273
2579.09	320.671
2579.31	319.835
2579.54	319.929
2579.77	323.802
2579.99	315.279
2580.21	320.092
2580.44	317.25
2580.66	338.235
2580.89	318.249
2581.11	311.604
2581.34	329.742
2581.56	307.867
2581.79	311.748
2582.01	312.724
2582.24	315.583
2582.46	327.023
2582.69	334.661
2582.91	312.767
2583.14	325.175
2583.36	328.062
2583.59	328.079
2583.81	327.13
2584.04	317.583
2584.26	309.964
2584.49	310.022
2584.71	328.208
2584.94	309.193
2585.16	315.974
2585.38	319.899
2585.61	316.175
2585.83	310.556
2586.06	329.779
2586.28	337.514
2586.51	315.608
2586.73	321.334
2586.96	326.267
2587.18	341.74
2587.41	324.683
2587.63	324.896
2587.86	330.777
2588.08	324.173
2588.3	326.171
2588.53	313.736
2588.75	328.822
2588.98	332.66
2589.2	321.481
2589.43	317.655
2589.65	323.422
2589.88	323.421
2590.1	320.54
2590.32	323.414
2590.55	315.731
2590.77	339.717
2591	317.639
2591.22	327.237
2591.45	335.887
2591.67	317.695
2591.9	328.294
2592.12	328.34
2592.34	318.802
2592.57	328.47
2592.79	325.664
2593.02	328.634
2593.24	322.023
2593.47	323.997
2593.69	314.444
2593.91	320.29
2594.14	325.2
2594.36	315.665
2594.59	329.188
2594.81	327.292
2595.04	331.148
2595.26	319.619
2595.48	313.864
2595.71	324.479
2595.93	317.767
2596.16	322.624
2596.38	322.819
2596.6	323.086
2596.83	319.475
2597.05	329.378
2597.28	319.37
2597.5	323.423
2597.73	325.319
2597.95	325.168
2598.17	326.022
2598.4	318.231
2598.62	325.993
2598.85	314.497
2599.07	322.337
2599.29	325.326
2599.52	325.406
2599.74	317.762
2599.97	321.674
2600.19	318.669
2600.41	317.587
2600.64	311.982
2600.86	313.082
2601.09	313.314
2601.31	314.374
2601.53	321.216
2601.76	331.905
2601.98	322.251
2602.21	332.892
2602.43	312.553
2602.65	323.181
2602.88	322.2
2603.1	315.42
2603.33	323.178
2603.55	321.285
2603.77	318.388
2604	322.241
2604.22	328.998
2604.45	322.241
2604.67	324.207
2604.89	322.315
2605.12	316.547
2605.34	332.066
2605.56	322.403
2605.79	325.319
2606.01	320.476
2606.24	332.088
2606.46	322.406
2606.68	324.348
2606.91	329.216
2607.13	317.655
2607.35	317.735
2607.58	325.579
2607.8	330.532
2608.02	318.036
2608.25	316.215
2608.47	315.32
2608.7	326.062
2608.92	326.117
2609.14	328.093
2609.37	318.411
2609.59	326.192
2609.81	325.246
2610.04	321.404
2610.26	318.524
2610.48	327.268
2610.71	325.344
2610.93	319.526
2611.15	330.205
2611.38	342.808
2611.6	326.271
2611.83	318.455
2612.05	327.12
2612.27	335.804
2612.5	314.432
2612.72	321.23
2612.94	315.404
2613.17	322.169
2613.39	327.019
2613.61	323.176
2613.84	331.016
2614.06	324.332
2614.28	335.136
2614.51	326.512
2614.73	325.67
2614.95	331.642
2615.18	312.276
2615.4	325.962
2615.62	321.136
2615.85	320.18
2616.07	319.254
2616.29	319.292
2616.52	329.06
2616.74	332.012
2616.96	333.99
2617.19	319.415
2617.41	332.096
2617.63	330.153
2617.86	324.348
2618.08	314.715
2618.3	323.471
2618.53	330.253
2618.75	319.479
2618.97	320.363
2619.19	323.183
2619.42	326.001
2619.64	325.883
2619.87	333.489
2620.09	326.538
2620.31	324.524
2620.53	323.516
2620.76	329.346
2620.98	330.422
2621.2	341.329
2621.43	332.663
2621.65	325.943
2621.87	324.1
2622.1	319.324
2622.32	325.219
2622.54	312.607
2622.76	331.106
2622.99	327.151
2623.21	334.938
2623.43	323.284
2623.66	323.32
2623.88	338.927
2624.1	317.513
2624.32	330.173
2624.55	327.241
2624.77	331.139
2624.99	321.429
2625.22	331.188
2625.44	321.472
2625.66	333.201
2625.89	325.447
2626.11	325.487
2626.33	329.426
2626.55	314.847
2626.78	335.362
2627	330.528
2627.22	323.715
2627.45	325.668
2627.67	329.587
2627.89	331.548
2628.11	315.94
2628.34	317.87
2628.56	322.707
2628.78	325.573
2629	320.646
2629.23	320.622
2629.45	323.544
2629.67	325.503
2629.9	320.648
2630.12	325.545
2630.34	338.238
2630.56	318.768
2630.79	319.771
2631.01	326.642
2631.23	322.801
2631.45	323.795
2631.68	325.747
2631.9	328.681
2632.12	327.691
2632.34	330.589
2632.57	330.588
2632.79	318.886
2633.01	322.789
2633.23	328.633
2633.46	318.868
2633.68	327.616
2633.9	319.75
2634.12	328.445
2634.35	324.439
2634.57	326.268
2634.79	329.074
2635.01	338.696
2635.24	335.668
2635.46	332.732
2635.68	334.845
2635.9	325.309
2636.13	325.438
2636.35	326.52
2636.57	319.783
2636.79	323.604
2637.02	329.291
2637.24	325.322
2637.46	320.245
2637.68	313.273
2637.91	324.025
2638.13	324.073
2638.35	320.199
2638.57	328.009
2638.79	337.773
2639.02	335.862
2639.24	318.372
2639.46	324.258
2639.68	332.073
2639.91	315.559
2640.13	319.539
2640.35	326.451
2640.57	331.43
2640.8	334.394
2641.02	333.365
2641.24	343.762
2641.46	321.825
2641.68	321.279
2641.91	319.997
2642.13	328.67
2642.35	310.229
2642.57	330.642
2642.79	317.207
2643.02	314.523
2643.24	327.134
2643.46	327.967
2643.68	331.835
2643.9	323.997
2644.13	325.839
2644.35	323.8
2644.57	334.396
2644.79	321.758
2645.01	326.571
2645.24	327.504
2645.46	332.309
2645.68	316.765
2645.9	323.498
2646.13	315.721
2646.35	312.805
2646.57	329.25
2646.79	330.194
2647.01	324.36
2647.23	307.865
2647.46	332.008
2647.68	323.214
2647.9	318.247
2648.12	324.868
2648.34	324.748
2648.57	325.623
2648.79	322.663
2649.01	329.392
2649.23	334.185
2649.45	338.006
2649.67	318.66
2649.9	324.405
2650.12	334.011
2650.34	330.137
2650.56	321.467
2650.78	321.494
2651	326.329
2651.23	323.342
2651.45	328.037
2651.67	334.731
2651.89	317.34
2652.11	311.519
2652.34	324.984
2652.56	320.134
2652.78	329.769
2653	316.267
2653.22	320.107
2653.44	319.11
2653.66	322.915
2653.89	314.194
2654.11	317.054
2654.33	328.572
2654.55	312.128
2654.77	314.923
2655	306.167
2655.22	327.294
2655.44	322.449
2655.66	325.318
2655.88	324.339
2656.1	320.497
2656.32	318.626
2656.55	321.578
2656.77	319.696
2656.99	322.608
2657.21	316.844
2657.43	326.477
2657.65	323.597
2657.87	317.816
2658.1	312.96
2658.32	323.473
2658.54	325.294
2658.76	326.147
2658.98	320.261
2659.2	327.848
2659.42	308.488
2659.65	315.108
2659.87	324.659
2660.09	329.445
2660.31	312.182
2660.53	323.733
2660.75	310.27
2660.97	324.639
2661.19	329.397
2661.42	310.134
2661.64	334.027
2661.86	330.999
2662.08	319.334
2662.3	324.929
2662.52	319.978
2662.74	316.943
2662.96	321.561
2663.19	312.84
2663.41	329.034
2663.63	321.36
2663.85	325.171
2664.07	327.048
2664.29	322.231
2664.51	320.287
2664.73	319.304
2664.95	315.465
2665.18	315.46
2665.4	319.279
2665.62	344.119
2665.84	324.021
2666.06	332.593
2666.28	310.579
2666.5	316.278
2666.72	322.935
2666.94	312.404
2667.16	323.823
2667.39	303.703
2667.61	317.96
2667.83	321.703
2668.05	323.531
2668.27	323.424
2668.49	332.868
2668.71	318.484
2668.93	326.076
2669.15	330.841
2669.38	322.268
2669.6	325.139
2669.82	315.616
2670.04	322.307
2670.26	310.888
2670.48	324.264
2670.7	315.675
2670.92	311.821
2671.14	316.528
2671.36	322.188
2671.58	324.041
2671.8	312.567
2672.02	330.602
2672.25	324.794
2672.47	309.465
2672.69	325.554
2672.91	315.932
2673.13	311.069
2673.35	324.289
2673.57	320.399
2673.79	326.053
2674.01	320.417
2674.23	316.65
2674.45	309.031
2674.67	316.633
2674.89	313.822
2675.11	324.476
2675.34	316.147
2675.56	312.374
2675.78	320.59
2676	315.419
2676.22	311.533
2676.44	320.004
2676.66	308.549
2676.88	327.485
2677.1	313.206
2677.32	321.71
2677.54	319.772
2677.76	326.37
2677.98	322.528
2678.2	327.219
2678.42	304.405
2678.65	329.955
2678.87	328.004
2679.09	321.309
2679.31	317.48
2679.53	314.638
2679.75	326.973
2679.97	325.063
2680.19	306.997
2680.41	313.582
2680.63	315.47
2680.85	311.71
2681.07	315.548
2681.29	313.678
2681.51	316.523
2681.73	314.622
2681.95	315.556
2682.17	318.336
2682.39	316.329
2682.61	322.801
2682.83	322.691
2683.05	309.669
2683.27	315.034
2683.49	316.691
2683.71	330.808
2683.93	305.217
2684.15	321.796
2684.37	314.86
2684.59	316.046
2684.81	314.315
2685.03	317.516
2685.25	316.158
2685.48	321.195
2685.7	316.138
2685.92	318.911
2686.14	319.629
2686.36	318.507
2686.58	308.832
2686.8	320.743
2687.02	319.527
2687.24	315.001
2687.46	324.351
2687.68	318.11
2687.9	318.765
2688.12	309.067
2688.34	314.48
2688.56	308.579
2688.78	313.986
2689	313.892
2689.22	311.768
2689.44	316.331
2689.66	319.016
2689.88	309.488
2690.1	308.472
2690.32	313.752
2690.54	323.409
2690.76	322.446
2690.98	309.845
2691.2	321.003
2691.42	306.995
2691.64	319.401
2691.86	317.14
2692.08	310.899
2692.3	317.081
2692.52	308.24
2692.74	315.742
2692.96	314.398
2693.18	310.954
2693.4	309.354
2693.62	316.707
2693.84	316.064
2694.06	313.746
2694.28	311.888
2694.49	315.709
2694.71	307.5
2694.93	318.767
2695.15	317.316
2695.37	314.765
2695.59	317.946
2695.81	317.784
2696.03	316.915
2696.25	311.259
2696.47	320.209
2696.69	322.104
2696.91	317.071
2697.13	316.251
2697.35	322.606
2697.57	314.628
2697.79	305.808
2698.01	311.549
2698.23	317.11
2698.45	312.891
2698.67	308.122
2698.89	311.186
2699.11	312.972
2699.33	316.734
2699.55	313.655
2699.77	312.774
2699.99	308.739
2700.21	314.402
2700.43	308.35
2700.64	308.421
2700.86	306.813
2701.08	304.754
2701.3	309.579
2701.52	312.243
2701.74	317.32
2701.96	315.654
2702.18	309.704
2702.4	313.479
2702.62	316.034
2702.84	312.676
2703.06	313.806
2703.28	308.121
2703.5	306.028
2703.72	309.216
2703.94	319.586
2704.15	318.38
2704.37	313.057
2704.59	319.128
2704.81	310.975
2705.03	308.381
2705.25	303.917
2705.45	322.293
2705.67	310.06
2705.9	308.187
2706.12	308.182
2706.34	309.104
2706.56	311.912
2706.78	320.381
2707.01	304.427
2707.23	319.454
2707.45	308.143
2707.67	321.238
2707.9	322.11
2708.12	301.381
2708.34	315.448
2708.56	308.916
2708.78	328.669
2709.01	312.736
2709.23	310.888
2709.45	317.492
2709.67	322.216
2709.89	312.846
2710.12	323.199
2710.34	314.752
2710.56	323.215
2710.78	324.157
2711	305.338
2711.23	316.554
2711.45	306.151
2711.67	309.793
2711.89	312.533
2712.11	324.656
2712.34	318.949
2712.56	320.704
2712.78	302.814
2713	317.827
2713.22	319.742
2713.45	311.367
2713.67	314.257
2713.89	309.666
2714.11	310.746
2714.33	320.253
2714.56	318.473
2714.78	314.789
2715	316.719
2715.22	305.463
2715.44	326.146
2715.66	310.165
2715.89	314.803
2716.11	309.08
2716.33	319.357
2716.55	310.862
2716.77	319.282
2716.99	309.86
2717.22	314.529
2717.44	306.066
2717.66	316.401
2717.88	314.549
2718.1	309.881
2718.33	308.042
2718.55	311.847
2718.77	326.937
2718.99	314.793
2719.21	323.332
2719.43	315.903
2719.66	315.066
2719.88	310.47
2720.1	302.098
2720.32	319.107
2720.54	311.624
2720.76	312.609
2720.98	308.875
2721.21	301.358
2721.43	307.933
2721.65	319.178
2721.87	317.248
2722.09	318.162
2722.32	319.052
2722.54	306.764
2722.76	307.664
2722.98	315.16
2723.2	319.853
2723.42	310.447
2723.64	314.255
2723.86	314.327
2724.09	317.226
2724.31	308.822
2724.53	313.603
2724.75	305.171
2724.97	326.839
2725.19	316.481
2725.42	326.832
2725.64	303.236
2725.86	322.955
2726.08	312.564
2726.3	323.842
2726.52	314.421
2726.74	319.134
2726.96	314.446
2727.19	303.173
2727.41	319.209
2727.63	313.59
2727.85	320.217
2728.07	310.834
2728.29	314.637
2728.51	325.035
2728.74	325.065
2728.96	310.958
2729.18	314.695
2729.4	297.76
2729.62	304.402
2729.84	309.163
2730.06	312.054
2730.28	324.403
2730.51	310.356
2730.73	308.555
2730.95	321.841
2731.17	312.473
2731.39	312.504
2731.61	321.961
2731.83	321.958
2732.05	310.612
2732.27	320.031
2732.49	309.619
2732.72	319.019
2732.94	315.197
2733.16	313.235
2733.38	313.181
2733.6	312.195
2733.82	326.313
2734.04	319.692
2734.26	314.975
2734.48	314.062
2734.71	318.842
2734.93	314.223
2735.15	311.49
2735.37	309.691
2735.59	307.891
2735.81	307.972
2736.03	321.257
2736.25	319.407
2736.47	322.259
2736.69	312.824
2736.91	312.853
2737.14	327.053
2737.36	314.777
2737.58	305.323
2737.8	314.764
2738.02	316.622
2738.24	313.767
2738.46	307.17
2738.68	313.828
2738.9	315.788
2739.12	314.896
2739.34	312.999
2739.56	319.581
2739.79	305.366
2740.01	323.34
2740.23	314.77
2740.45	306.125
2740.67	312.55
2740.89	305.936
2741.11	308.802
2741.33	312.741
2741.55	310.959
2741.77	318.583
2741.99	316.799
2742.21	328.232
2742.43	314.103
2742.65	316.058
2742.88	317.075
2743.1	313.372
2743.32	307.781
2743.54	317.347
2743.76	304.174
2743.98	320.392
2744.2	318.601
2744.42	310.141
2744.64	322.523
2744.86	320.655
2745.08	322.559
2745.3	309.285
2745.52	312.126
2745.74	325.327
2745.96	304.418
2746.18	326.169
2746.4	305.269
2746.62	313.728
2746.84	317.494
2747.06	319.332
2747.29	305.104
2747.51	312.696
2747.73	308.025
2747.95	318.49
2748.17	306.199
2748.39	320.436
2748.61	315.705
2748.83	328.044
2749.05	314.782
2749.27	314.769
2749.49	312.841
2749.71	324.196
2749.93	320.402
2750.15	315.732
2750.37	312.95
2750.59	307.294
2750.81	314.93
2751.03	318.792
2751.25	324.557
2751.47	324.636
2751.69	329.473
2751.91	320.072
2752.13	304.026
2752.35	319.315
2752.57	318.439
2752.79	319.443
2753.01	329.931
2753.23	314.709
2753.45	320.398
2753.67	319.424
2753.9	328.901
2754.11	321.265
2754.33	307.928
2754.55	310.75
2754.77	313.564
2755	318.276
2755.22	305.902
2755.44	319.181
2755.66	312.521
2755.88	322.019
2756.1	316.35
2756.32	317.368
2756.54	325.06
2756.76	318.46
2756.98	310.927
2757.2	329.035
2757.42	309.091
2757.64	321.466
2757.86	305.306
2758.08	308.173
2758.3	317.712
2758.51	317.703
2758.74	327.172
2758.96	320.492
2759.18	305.273
2759.4	312.913
2759.61	307.292
2759.83	318.608
2760.05	318.556
2760.28	302.365
2760.5	322.342
2760.71	328.35
2760.93	325.637
2761.15	309.426
2761.37	314.994
2761.59	312.004
2761.81	325.185
2762.03	317.553
2762.25	319.424
2762.47	328.033
2762.69	312.932
2762.91	311.102
2763.13	294.978
2763.35	324.44
2763.57	314.927
2763.79	317.873
2764.01	306.639
2764.23	307.77
2764.45	320.928
2764.67	311.314
2764.89	317.975
2765.11	314.228
2765.33	322.791
2765.55	317.045
2765.77	323.674
2765.99	314.135
2766.21	318.867
2766.43	318.808
2766.65	312.077
2766.87	316.763
2767.09	325.269
2767.31	322.375
2767.53	328.994
2767.75	327.049
2767.96	314.654
2768.18	314.634
2768.4	312.731
2768.62	319.408
2768.84	307.069
2769.06	318.48
2769.28	319.444
2769.5	309.97
2769.72	319.533
2769.94	329.125
2770.16	312.967
2770.38	332.955
2770.6	309.182
2770.82	316.828
2771.04	330.19
2771.26	325.509
2771.48	326.555
2771.7	320.013
2771.92	320.241
2772.13	312.764
2772.35	331.962
2772.57	323.409
2772.79	327.181
2773.01	311.02
2773.23	317.588
2773.45	316.328
2773.67	322.91
2773.89	306.61
2774.11	313.125
2774.33	327.619
2774.55	319.145
2774.77	307.715
2774.98	315.318
2775.2	312.363
2775.42	321.807
2775.64	322.678
2775.86	333.071
2776.08	325.424
2776.3	320.643
2776.52	321.578
2776.74	318.712
2776.96	319.652
2777.18	314.883
2777.4	312.017
2777.61	316.785
2777.83	317.75
2778.05	325.369
2778.27	315.857
2778.49	306.348
2778.71	321.594
2778.93	328.244
2779.15	318.711
2779.37	320.526
2779.59	321.35
2779.81	319.383
2780.02	313.639
2780.24	313.62
2780.46	328.843
2780.68	320.28
2780.9	315.529
2781.12	313.663
2781.34	314.643
2781.56	321.312
2781.78	316.564
2782	320.361
2782.21	304.201
2782.43	337.477
2782.65	313.669
2782.87	324.914
2783.09	309.673
2783.31	308.64
2783.53	308.521
2783.75	325.564
2783.97	314.161
2784.18	313.216
2784.4	306.56
2784.62	317.018
2784.84	329.415
2785.06	317.149
2785.28	318.17
2785.5	325.84
2785.72	313.554
2785.93	307.91
2786.15	316.486
2786.37	315.528
2786.59	308.894
2786.81	319.328
2787.03	310.709
2787.25	321.07
2787.47	321.922
2787.68	307.558
2787.9	305.527
2788.12	323.457
2788.34	323.411
2788.56	313.887
2788.78	317.641
2789	321.412
2789.21	317.591
2789.43	312.804
2789.65	317.502
2789.87	313.674
2790.09	325.015
2790.31	331.625
2790.52	306.03
2790.74	325.909
2790.96	322.082
2791.18	316.323
2791.4	326.677
2791.62	311.482
2791.84	315.236
2792.06	313.332
2792.27	332.286
2792.49	322.893
2792.71	316.319
2792.93	313.506
2793.15	307.827
2793.37	319.182
2793.58	314.418
2793.8	321.003
2794.02	308.65
2794.24	308.605
2794.46	323.474
2794.68	319.705
2794.89	314.382
2795.11	317.235
2795.33	315.252
2795.55	322.783
2795.77	325.591
2795.99	321.776
2796.2	305.656
2796.42	330.224
2796.64	315.052
2796.86	317.862
2797.08	320.681
2797.3	317.825
2797.51	323.507
2797.73	318.761
2797.95	310.206
2798.17	315.8
2798.39	313.869
2798.6	311.992
2798.82	318.641
2799.04	325.299
2799.26	314.937
2799.48	321.607
2799.7	313.181
2799.91	319.871
2800.13	323.597
2800.35	316.864
2800.57	313.938
2800.79	309.071
2801	312.811
2801.22	320.884
2801.44	320.673
2801.66	317.632
2801.88	301.546
2802.1	316.68
2802.31	314.967
2802.53	316.909
2802.75	306.435
2802.97	313.021
2803.19	315.786
2803.4	318.558
2803.62	327.926
2803.84	316.506
2804.06	307.937
2804.27	316.376
2804.49	311.592
2804.71	309.644
2804.93	304.88
2805.15	319.008
2805.36	315.231
2805.58	315.254
2805.8	316.232
2806.02	310.624
2806.24	309.678
2806.45	323.823
2806.67	325.705
2806.89	326.644
2807.11	320.961
2807.33	303.954
2807.54	319.045
2807.76	315.255
2807.98	316.185
2808.2	318.06
2808.41	319.935
2808.63	316.142
2808.85	326.505
2809.07	321.769
2809.28	313.258
2809.5	319.842
2809.72	315.104
2809.94	331.12
2810.16	306.571
2810.37	307.488
2810.59	310.264
2810.81	332.821
2811.03	313.905
2811.24	325.143
2811.46	318.459
2811.68	302.372
2811.9	313.642
2812.11	315.49
2812.33	323.893
2812.55	306.89
2812.77	304.994
2812.98	317.234
2813.2	311.603
2813.42	313.52
2813.64	318.344
2813.86	313.674
2814.07	322.058
2814.29	306.885
2814.51	315.329
2814.73	307.835
2814.94	326.697
2815.16	308.766
2815.38	303.036
2815.59	315.146
2815.81	326.449
2816.03	306.734
2816.25	317.993
2816.46	307.601
2816.68	316.019
2816.9	318.798
2817.12	314.984
2817.34	311.171
2817.55	298.83
2817.77	314.731
2817.99	321.218
2818.2	313.63
2818.42	314.515
2818.64	309.783
2818.86	308.801
2819.07	318.176
2819.29	321.95
2819.51	325.064
2819.72	308.288
2819.94	310.17
2820.16	316.74
2820.38	322.293
2820.59	317.58
2820.81	318.319
2821.03	315.113
2821.25	328.414
2821.46	326.578
2821.68	320.223
2821.9	324.902
2822.11	301.284
2822.33	318.052
2822.55	308.26
2822.77	311.557
2822.98	325.48
2823.2	301.929
2823.42	311.202
2823.63	307.307
2823.85	331.668
2824.07	324.314
2824.28	326.329
2824.5	306.622
2824.72	309.366
2824.94	318.667
2825.15	327.182
2825.37	315.918
2825.59	312.123
2825.81	306.498
2826.02	307.406
2826.24	306.529
2826.46	329.139
2826.67	325.472
2826.89	317.009
2827.11	315.07
2827.32	310.766
2827.54	317.398
2827.76	312.537
2827.97	309.559
2828.19	314.129
2828.41	313.158
2828.62	315.956
2828.84	304.652
2829.06	321.484
2829.27	316.762
2829.49	311.122
2829.71	320.509
2829.93	325.22
2830.14	305.549
2830.36	314.005
2830.58	322.486
2830.79	315.949
2831.01	315.963
2831.23	323.459
2831.44	302.811
2831.66	325.263
2831.88	315.781
2832.09	322.287
2832.31	325.051
2832.53	308.132
2832.74	315.582
2832.96	308.997
2833.18	310.848
2833.39	327.689
2833.61	309.904
2833.83	309.929
2834.04	317.446
2834.26	316.513
2834.48	315.565
2834.69	320.298
2834.91	316.615
2835.13	310.131
2835.34	312.058
2835.56	313.97
2835.78	313.062
2835.99	314.029
2836.21	316.877
2836.43	316.918
2836.64	312.263
2836.86	313.212
2837.07	335.726
2837.29	310.389
2837.51	323.458
2837.72	329.973
2837.94	309.338
2838.16	314.952
2838.37	316.819
2838.59	316.816
2838.81	315.878
2839.02	308.383
2839.24	316.853
2839.46	319.718
2839.67	327.319
2839.89	313.373
2840.11	316.328
2840.32	335.219
2840.54	321.314
2840.75	309.112
2840.97	317.214
2841.19	321.421
2841.4	319.204
2841.62	325.687
2841.84	311.769
2842.05	312.025
2842.27	316.075
2842.49	322.855
2842.7	318.184
2842.92	328.514
2843.13	311.561
2843.35	308.647
2843.57	324.575
2843.78	324.589
2844	321.752
2844.22	317.041
2844.43	307.646
2844.65	309.516
2844.86	320.717
2845.08	323.512
2845.3	314.161
2845.51	307.628
2845.73	318.944
2845.95	322.792
2846.16	313.53
2846.38	315.572
2846.59	318.494
2846.81	326.982
2847.03	320.397
2847.24	318.478
2847.46	316.526
2847.67	321.154
2847.89	328.525
2848.11	308.749
2848.32	319.98
2848.54	319.964
2848.75	309.643
2848.97	312.514
2849.19	302.227
2849.4	322.907
2849.62	311.681
2849.83	325.805
2850.05	324.902
2850.27	316.503
2850.48	310.932
2850.7	325.072
2850.91	327.924
2851.13	314.786
2851.34	311.051
2851.56	323.27
2851.78	316.659
2851.99	311.916
2852.21	317.539
2852.42	325.995
2852.64	316.596
2852.85	310.043
2853.07	313.83
2853.29	313.841
2853.5	313.845
2853.72	320.448
2853.93	311.071
2854.15	330.828
2854.36	311.117
2854.58	321.482
2854.8	319.597
2855.01	318.646
2855.23	329.917
2855.44	310.194
2855.66	323.365
2855.87	303.631
2856.09	322.431
2856.31	319.598
2856.52	315.823
2856.74	322.402
2856.95	321.471
2857.17	314.909
2857.38	312.117
2857.6	317.784
2857.82	307.45
2858.03	316.868
2858.25	319.701
2858.46	326.289
2858.68	325.345
2858.89	315.933
2859.11	321.549
2859.33	309.302
2859.54	327.167
2859.76	320.586
2859.97	315.9
2860.19	325.326
2860.4	330.095
2860.62	322.669
2860.83	308.676
2861.05	317.27
2861.26	309.838
2861.48	310.866
2861.7	310.959
2861.91	315.756
2862.13	321.479
2862.34	319.644
2862.56	309.283
2862.77	323.396
2862.99	311.081
2863.2	322.313
2863.42	317.529
2863.63	327.824
2863.85	321.174
2864.06	316.437
2864.28	308.881
2864.49	321.107
2864.71	321.109
2864.93	311.714
2865.14	309.883
2865.36	318.409
2865.57	311.846
2865.79	310.94
2866	319.465
2866.22	322.339
2866.43	320.516
2866.65	325.282
2866.86	313.995
2867.08	316.834
2867.29	314.95
2867.51	316.85
2867.72	324.412
2867.94	315.035
2868.15	333.022
2868.37	312.36
2868.58	325.67
2868.8	317.299
2869.01	304.218
2869.23	315.569
2869.44	330.643
2869.66	311.559
2869.87	323.812
2870.09	322.892
2870.3	321.944
2870.52	312.501
2870.73	323.83
2870.95	318.159
2871.17	322.867
2871.38	324.732
2871.59	313.366
2871.81	315.206
2872.02	334.044
2872.24	320.828
2872.45	337.825
2872.67	319.899
2872.88	320.853
2873.1	312.406
2873.31	317.194
2873.53	319.159
2873.74	321.133
2873.96	313.669
2874.17	319.436
2874.39	323.293
2874.6	317.708
2874.82	329.126
2875.03	320.709
2875.25	316.956
2875.46	320.741
2875.68	333.009
2875.89	318.801
2876.11	323.507
2876.32	329.187
2876.54	313.111
2876.75	322.574
2876.97	313.119
2877.18	311.235
2877.4	318.815
2877.61	342.487
2877.83	316.971
2878.04	316.066
2878.25	323.658
2878.47	321.829
2878.68	323.727
2878.9	318.007
2879.11	314.131
2879.33	309.375
2879.54	331.115
2879.76	318.769
2879.97	318.746
2880.19	311.169
2880.4	324.43
2880.62	315.031
2880.83	323.607
2881.04	334.073
2881.26	311.412
2881.47	309.58
2881.69	321.982
2881.9	323.022
2882.12	308.821
2882.33	320.21
2882.55	317.383
2882.76	309.799
2882.98	323.982
2883.19	316.29
2883.4	326.557
2883.62	320.828
2883.83	307.562
2884.05	319.861
2884.26	334.133
2884.48	318.07
2884.69	323.797
2884.9	320.153
2885.12	312.715
2885.33	325.115
2885.55	331.79
2885.76	316.624
2885.98	310.913
2886.19	316.589
2886.41	331.777
2886.62	318.521
2886.83	329.929
2887.05	320.501
2887.26	323.43
2887.48	317.876
2887.69	317.098
2887.91	322.763
2888.12	318.013
2888.33	331.34
2888.55	323.776
2888.76	320.987
2888.98	324.809
2889.19	309.619
2889.41	320.066
2889.62	322.908
2889.83	329.542
2890.05	323.826
2890.26	323.807
2890.48	331.384
2890.69	324.726
2890.91	333.268
2891.12	320.926
2891.33	307.616
2891.55	340.87
2891.76	319.082
2891.97	314.362
2892.19	323.895
2892.4	313.433
2892.62	313.437
2892.83	316.129
2893.05	314.365
2893.26	322.248
2893.47	317.504
2893.69	325.968
2893.9	319.244
2894.11	308.692
2894.33	310.538
2894.54	316.176
2894.76	325.609
2894.97	317.03
2895.19	328.632
2895.4	320.301
2895.61	311.034
2895.83	311.957
2896.04	330.903
2896.25	323.197
2896.47	312.798
2896.68	320.411
2896.9	318.516
2897.11	317.573
2897.32	311.879
2897.54	321.4
2897.75	320.465
2897.97	313.826
2898.18	323.361
2898.39	316.691
2898.61	324.302
2898.82	319.581
2899.04	313.922
2899.25	332.056
2899.46	321.649
2899.68	324.552
2899.89	324.591
2900.1	323.675
2900.32	343.718
2900.53	322.778
2900.75	317.045
2900.96	327.508
2901.17	322.738
2901.39	320.825
2901.6	326.534
2901.81	327.465
2902.03	314.103
2902.24	309.309
2902.45	309.329
2902.67	329.338
2902.88	315.087
2903.09	328.452
2903.31	326.602
2903.52	330.49
2903.74	329.597
2903.95	319.161
2904.16	328.722
2904.38	313.503
2904.59	326.867
2904.8	322.127
2905.02	314.539
2905.23	321.227
2905.44	302.131
2905.66	322.095
2905.87	322.97
2906.08	326.708
2906.3	316.175
2906.51	318.037
2906.72	320.865
2906.94	306.566
2907.15	318.926
2907.36	324.608
2907.58	319.857
2907.79	323.696
2908	316.113
2908.22	316.185
2908.43	308.608
2908.65	314.288
2908.86	329.443
2909.07	330.382
2909.29	324.686
2909.5	326.613
2909.71	321.873
2909.92	322.851
2910.14	326.686
2910.35	324.801
2910.57	322.909
2910.78	323.868
2910.99	326.731
2911.2	327.706
2911.42	317.262
2911.63	318.243
2911.84	323.018
2912.06	320.167
2912.27	334.492
2912.48	327.861
2912.7	336.463
2912.91	309.778
2913.12	321.209
2913.34	328.785
2913.55	331.594
2913.76	327.782
2913.97	335.397
2914.19	338.238
2914.4	322.955
2914.62	335.273
2914.83	342.834
2915.04	337.066
2915.25	345.586
2915.47	343.714
2915.68	361.898
2915.89	345.7
2916.11	353.325
2916.32	343.824
2916.53	344.791
2916.74	337.169
2916.96	327.647
2917.17	345.757
2917.38	339.105
2917.6	334.359
2917.81	329.593
2918.02	319.086
2918.24	323.811
2918.45	327.587
2918.66	317.109
2918.88	319.022
2919.09	326.635
2919.3	322.806
2919.51	315.153
2919.73	330.336
2919.94	322.66
2920.15	323.552
2920.36	325.413
2920.58	324.417
2920.79	328.155
2921	318.593
2921.22	322.378
2921.43	338.512
2921.64	327.068
2921.85	320.372
2922.07	319.369
2922.28	317.424
2922.49	323.095
2922.71	331.63
2922.92	328.785
2923.13	332.591
2923.34	310.74
2923.56	331.663
2923.77	313.614
2923.98	331.667
2924.19	323.103
2924.41	327.839
2924.62	321.173
2924.83	322.11
2925.05	321.156
2925.26	317.357
2925.47	316.408
2925.68	331.603
2925.9	319.241
2926.11	335.381
2926.32	318.26
2926.53	322.988
2926.74	322.066
2926.96	325.867
2927.17	335.349
2927.38	314.415
2927.6	319.116
2927.81	320.039
2928.02	325.745
2928.23	320.023
2928.45	319.955
2928.66	329.418
2928.87	321.802
2929.08	324.694
2929.3	302.921
2929.51	334.431
2929.72	327.114
2929.93	322.57
2930.14	315.059
2930.36	320.41
2930.57	328.401
2930.78	320.15
2930.99	324.051
2931.21	321.327
2931.42	324.133
2931.63	325.133
2931.84	306.993
2932.06	318.336
2932.27	329.632
2932.48	320.001
2932.69	327.591
2932.91	323.817
2933.12	316.248
2933.33	326.722
2933.54	321.049
2933.75	327.726
2933.97	319.214
2934.18	326.793
2934.39	326.751
2934.6	321.012
2934.82	327.626
2935.03	311.399
2935.24	313.228
2935.45	336.893
2935.66	326.412
2935.88	317.856
2936.09	315.031
2936.3	322.622
2936.51	329.277
2936.72	327.393
2936.94	319.853
2937.15	315.145
2937.36	310.419
2937.57	313.254
2937.79	325.59
2938	321.771
2938.21	322.682
2938.42	331.176
2938.63	328.267
2938.85	328.167
2939.06	316.731
2939.27	327.111
2939.48	320.46
2939.69	323.308
2939.91	321.44
2940.12	311.963
2940.33	320.577
2940.54	314.991
2940.75	316.084
2940.97	328.61
2941.18	314.439
2941.39	321.194
2941.6	326.026
2941.81	324.175
2942.02	314.6
2942.24	329.616
2942.45	324.185
2942.66	316.465
2942.87	327.564
2943.08	317.326
2943.29	321.219
2943.51	331.93
2943.72	335.417
2943.93	326.656
2944.14	325.588
2944.35	319.836
2944.57	322.624
2944.78	317.802
2944.99	324.26
2945.2	321.113
2945.41	330.255
2945.63	334.406
2945.84	337.188
2946.05	313.259
2946.26	333.953
2946.47	317.869
2946.68	327.307
2946.89	318.792
2947.11	332.996
2947.32	325.459
2947.53	316.048
2947.74	327.471
2947.95	321.787
2948.17	314.236
2948.38	309.506
2948.59	325.584
2948.8	308.519
2949.01	321.726
2949.22	322.633
2949.43	320.696
2949.65	324.436
2949.86	324.391
2950.07	324.389
2950.28	313.999
2950.49	322.52
2950.7	311.196
2950.92	317.861
2951.13	319.818
2951.34	326.515
2951.55	315.19
2951.76	324.643
2951.97	323.655
2952.18	321.725
2952.4	335.921
2952.61	330.231
2952.82	316.96
2953.03	314.077
2953.24	314.965
2953.45	320.567
2953.66	311.971
2953.87	317.577
2954.09	314.677
2954.3	313.669
2954.51	319.277
2954.72	321.11
2954.93	319.171
2955.14	317.225
2955.35	320.015
2955.56	322.837
2955.78	320
2955.99	330.384
2956.2	319.097
2956.41	324.822
2956.62	310.695
2956.83	317.322
2957.04	332.438
2957.25	318.275
2957.47	323.002
2957.68	321.121
2957.89	312.63
2958.1	315.475
2958.31	312.652
2958.52	309.83
2958.73	322.122
2958.94	332.531
2959.16	317.406
2959.37	317.381
2959.58	318.263
2959.79	321.916
2960	313.382
2960.21	332.321
2960.42	315.365
2960.63	325.726
2960.84	318.011
2961.05	315.906
2961.27	326.4
2961.48	314.29
2961.69	319.052
2961.9	320.736
2962.11	322.397
2962.32	319.544
2962.53	315.77
2962.74	311.055
2962.95	323.332
2963.16	310.18
2963.38	314.957
2963.59	322.576
2963.8	333.964
2964.01	317.983
2964.22	313.317
2964.43	319.972
2964.64	308.682
2964.85	331.365
2965.06	327.589
2965.27	323.793
2965.48	312.376
2965.7	308.509
2965.91	322.587
2966.12	323.455
2966.33	313.958
2966.54	304.482
2966.75	316.693
2966.96	329.829
2967.17	319.416
2967.38	324.077
2967.59	334.382
2967.8	314.565
2968.01	317.365
2968.23	336.196
2968.43	316.442
2968.65	313.657
2968.86	313.701
2969.07	329.753
2969.28	315.624
2969.49	330.695
2969.7	316.569
2969.91	325.06
2970.12	309.056
2970.33	331.678
2970.54	313.799
2970.75	312.882
2970.96	316.653
2971.17	311.927
2971.38	315.694
2971.59	322.3
2971.81	326.087
2972.02	312.911
2972.23	327.067
2972.44	312.943
2972.65	315.778
2972.86	320.491
2973.07	322.352
2973.28	308.188
2973.49	328.891
2973.7	322.292
2973.91	315.705
2974.12	304.374
2974.33	314.719
2974.54	321.292
2974.75	314.67
2974.96	324.058
2975.17	328.727
2975.38	321.166
2975.59	314.548
2975.8	314.55
2976.01	328.702
2976.22	308.017
2976.44	319.378
2976.65	315.637
2976.86	313.727
2977.07	319.397
2977.28	323.196
2977.49	328.926
2977.7	329.969
2977.91	320.63
2978.12	317.842
2978.33	315.895
2978.54	319.302
2978.75	303.016
2978.96	313.377
2979.17	315.324
2979.38	326.263
2979.59	323.797
2979.8	331.068
2980.01	318.215
2980.22	302.003
2980.43	326.249
2980.64	327.062
2980.85	321.359
2981.06	318.517
2981.27	323.277
2981.48	327.073
2981.69	317.672
2981.9	322.247
2982.11	319.298
2982.32	321.169
2982.53	333.456
2982.74	327.824
2982.95	312.745
2983.16	320.27
2983.37	320.239
2983.58	320.08
2983.79	319.062
2984	323.75
2984.21	327.495
2984.42	330.294
2984.63	326.505
2984.84	328.367
2985.05	317.064
2985.26	323.646
2985.47	321.772
2985.68	314.276
2985.89	310.559
2986.1	320.951
2986.31	319.103
2986.52	309.72
2986.73	322.933
2986.94	327.673
2987.15	315.444
2987.36	318.266
2987.57	324.87
2987.78	326.782
2987.99	317.409
2988.2	316.511
2988.41	326.907
2988.62	319.377
2988.83	315.621
2989.04	317.522
2989.25	327.885
2989.46	315.629
2989.67	328.81
2989.88	307.137
2990.09	327.855
2990.3	320.306
2990.51	326.892
2990.72	330.669
2990.93	324.113
2991.14	319.442
2991.35	313.821
2991.56	331.759
2991.76	328.967
2991.98	304.482
2992.18	326.165
2992.39	329.925
2992.6	327.077
2992.81	327.05
2993.02	318.537
2993.23	328.87
2993.44	321.302
2993.65	323.169
2993.86	325.056
2994.07	326.002
2994.28	313.773
2994.49	322.292
2994.7	311.981
2994.91	318.65
2995.12	331.932
2995.33	324.475
2995.54	307.579
2995.75	322.758
2995.96	319.064
2996.17	328.554
2996.38	327.638
2996.59	329.546
2996.79	324.844
2997	311.645
2997.21	319.22
2997.42	327.761
2997.63	313.634
2997.84	323.116
2998.05	322.203
2998.26	308.074
2998.47	324.188
2998.68	320.426
2998.89	331.773
2999.1	327.042
2999.31	312.84
2999.52	322.259
2999.73	325.065
2999.94	329.76
