#Acq. time (s)=	30
#Accumulations=	2
#Range (cm-¹)=	1200...2999
#Windows=	5
#Auto scanning=	Off
#Autofocus=	Off
#Macrospot=	Off
#AutoExposure=	Off
#Spike filter=	Multiple accum.
#Delay time (s)=	2
#Binning=	1
#Readout mode=	Signal
#DeNoise=	Off
#ICS correction=	On
#Dark correction=	Off
#Inst. Process=	Off
#Detector Gain=	Best Dynamic
#Detector ADC=	50 kHz EM
#Detector EM gain=	150
#Detector temperature (°C)=	-60.09
#Instrument=	LabRAM HR Evol
#Detector=	SIN-EM FIVIS
#Objective=	x100_VIS_LWD
#Grating=	1800 (450-850nm)
#ND Filter=	100%
#Laser=	532nm_Edge
#Hole=	30.0125
#Temperature=	39.9
#Range=	Visible
#StageXY=	75x50mm Scan+
#StageZ=	Z motor
#X (µm)=	0
#Y (µm)=	0
#Z (µm)=	57.1
#Full time(mm:ss)=	5:33
#Project=	21_08_11
#Sample=	BU32
#Site=	
#Title=	BU32-B-FF2-FI05-V_1800 (450-850nm)_532nm_Edge_100%_x100_VIS_LWD_H30um_30sX2
#Remark=	
#Date=	13.08.2021 16:03
#Acquired=	13.08.2021 16:03:49
1200.05	327.611
1200.33	323.224
1200.61	326.36
1200.89	330.458
1201.16	329.15
1201.44	324.672
1201.72	332.129
1202	333.359
1202.28	329.512
1202.55	326.452
1202.83	327.323
1203.11	327.09
1203.39	329.06
1203.67	328.944
1203.94	327.861
1204.22	325.761
1204.5	330.002
1204.78	334.18
1205.06	326.523
1205.33	324.226
1205.61	327.289
1205.89	331.425
1206.17	324.837
1206.44	328.971
1206.72	327.77
1207	322.329
1207.28	323.323
1207.55	328.62
1207.83	327.485
1208.11	328.458
1208.39	323.019
1208.67	321.867
1208.94	327.17
1209.22	328.225
1209.5	331.404
1209.78	317.445
1210.05	333.345
1210.33	322.531
1210.61	325.627
1210.89	330.843
1211.16	327.541
1211.44	325.28
1211.72	329.419
1212	328.261
1212.27	327.101
1212.55	327.003
1212.83	329.065
1213.11	320.504
1213.38	327.888
1213.66	322.576
1213.94	316.2
1214.22	317.27
1214.49	321.527
1214.77	325.773
1215.05	328.951
1215.33	325.735
1215.6	320.333
1215.88	325.54
1216.16	324.336
1216.44	323.141
1216.71	325.167
1216.99	326.137
1217.27	330.289
1217.54	324.903
1217.82	328.016
1218.1	317.331
1218.38	324.72
1218.65	321.515
1218.93	328.912
1219.21	328.874
1219.49	325.63
1219.76	315.011
1220.04	324.56
1220.32	319.239
1220.59	329.815
1220.87	324.453
1221.15	326.518
1221.43	324.307
1221.7	315.707
1221.98	318.74
1222.26	317.523
1222.53	320.544
1222.81	323.572
1223.09	319.206
1223.36	320.153
1223.64	323.206
1223.92	322.068
1224.2	320.951
1224.47	327.238
1224.75	314.56
1225.03	327.261
1225.3	323.076
1225.58	321.005
1225.86	322.049
1226.13	323.081
1226.41	321.968
1226.69	322.967
1226.96	325.975
1227.24	321.458
1227.52	320.2
1227.79	328.437
1228.07	323.928
1228.35	322.625
1228.63	325.735
1228.9	329.632
1229.18	320.862
1229.45	325.895
1229.73	324.526
1230.01	312.809
1230.28	318.116
1230.56	328.503
1230.84	318.342
1231.11	321.559
1231.39	321.553
1231.67	327.849
1231.94	323.604
1232.22	327.8
1232.5	326.732
1232.77	324.597
1233.05	321.436
1233.33	323.553
1233.6	326.734
1233.88	330.968
1234.16	321.557
1234.43	319.511
1234.71	317.435
1234.99	326.924
1235.26	323.81
1235.54	326.994
1235.82	315.426
1236.09	318.542
1236.37	323.747
1236.65	319.477
1236.92	319.371
1237.2	332.909
1237.47	321.242
1237.75	321.127
1238.03	323.108
1238.3	317.771
1238.58	326.103
1238.86	315.573
1239.13	329.167
1239.41	326
1239.68	325.989
1239.96	330.179
1240.24	323.898
1240.51	327.059
1240.79	326.024
1241.07	323.904
1241.34	328.037
1241.62	321.709
1241.89	325.902
1242.17	320.684
1242.45	332.253
1242.72	326.013
1243	335.446
1243.27	321.818
1243.55	344.902
1243.83	332.322
1244.1	324.962
1244.38	319.691
1244.65	319.626
1244.93	321.64
1245.21	317.344
1245.48	324.565
1245.76	323.465
1246.03	323.44
1246.31	332.859
1246.59	329.715
1246.86	325.502
1247.14	324.445
1247.41	327.555
1247.69	333.719
1247.97	328.414
1248.24	324.213
1248.52	321.091
1248.79	333.667
1249.07	338.88
1249.34	324.224
1249.62	323.18
1249.9	325.212
1250.17	328.264
1250.45	329.235
1250.72	329.169
1251	328.066
1251.27	323.832
1251.55	324.817
1251.83	318.492
1252.1	327.829
1252.38	323.585
1252.65	322.479
1252.93	324.532
1253.2	313.051
1253.48	331.883
1253.76	322.55
1254.03	327.839
1254.31	333.092
1254.58	333.095
1254.86	329.987
1255.13	331.033
1255.41	324.751
1255.68	320.587
1255.96	323.743
1256.23	324.837
1256.51	326.945
1256.79	318.575
1257.06	332.105
1257.34	320.588
1257.61	331.006
1257.89	332.022
1258.16	330.946
1258.44	339.212
1258.71	333.979
1258.99	336.109
1259.27	328.834
1259.54	330.04
1259.82	327.864
1260.09	331.966
1260.37	327.669
1260.64	333.846
1260.92	336.919
1261.19	342.155
1261.47	340.359
1261.74	359.599
1262.02	354.718
1262.29	337.399
1262.57	336.998
1262.84	341.983
1263.12	360.069
1263.39	364.525
1263.67	385.755
1263.94	413.226
1264.22	417.132
1264.49	415.971
1264.77	400.289
1265.04	367.87
1265.32	363.616
1265.59	353.162
1265.87	333.332
1266.14	338.6
1266.42	349.115
1266.7	336.648
1266.97	341.966
1267.24	339.973
1267.52	336.944
1267.79	336.041
1268.07	337.22
1268.35	331.004
1268.62	337.344
1268.89	331.101
1269.17	338.425
1269.44	336.257
1269.72	336.158
1269.99	327.706
1270.27	324.489
1270.54	334.895
1270.82	329.638
1271.09	335.875
1271.37	337.985
1271.64	334.918
1271.92	331.872
1272.19	339.327
1272.47	339.419
1272.74	346.843
1273.02	335.407
1273.29	327.108
1273.57	342.925
1273.84	342.985
1274.12	330.418
1274.39	339.848
1274.66	337.75
1274.94	336.735
1275.21	338.887
1275.49	324.255
1275.76	339.026
1276.04	332.791
1276.31	341.256
1276.59	338.153
1276.86	328.781
1277.14	346.723
1277.41	344.704
1277.69	339.519
1277.96	347.99
1278.23	350.196
1278.51	340.787
1278.78	340.851
1279.06	347.145
1279.33	339.757
1279.61	350.231
1279.88	342.852
1280.15	337.62
1280.43	342.906
1280.7	348.249
1280.98	352.574
1281.25	364.209
1281.53	381.039
1281.8	378.965
1282.08	395.866
1282.35	406.336
1282.62	445.097
1282.9	515.123
1283.17	598.966
1283.45	711.423
1283.72	958.566
1284	1305.31
1284.27	1609.01
1284.54	1666
1284.82	1375.55
1285.09	878.078
1285.37	645.388
1285.64	540.228
1285.91	460.211
1286.19	429.579
1286.46	391.671
1286.74	374.806
1287.01	370.544
1287.28	351.533
1287.56	352.544
1287.83	360.957
1288.11	349.391
1288.38	344.151
1288.66	339.991
1288.93	346.368
1289.2	344.327
1289.48	344.397
1289.75	348.675
1290.02	340.256
1290.3	360.231
1290.57	333.878
1290.85	334.926
1291.12	344.402
1291.39	342.285
1291.67	334.912
1291.94	335.987
1292.22	331.763
1292.49	345.424
1292.76	331.746
1293.04	325.522
1293.31	336.198
1293.59	324.742
1293.86	343.78
1294.13	341.668
1294.41	335.324
1294.68	340.641
1294.95	336.56
1295.23	333.573
1295.5	330.636
1295.77	343.474
1296.05	329.779
1296.32	329.789
1296.6	330.817
1296.87	339.215
1297.14	325.414
1297.42	334.848
1297.69	329.482
1297.96	327.391
1298.24	332.66
1298.51	330.494
1298.78	330.449
1299.06	323.009
1299.33	331.444
1299.6	332.552
1299.88	335.759
1300.15	319.933
1300.43	333.647
1300.7	326.244
1300.97	341.04
1301.25	335.813
1301.52	334.811
1301.79	327.45
1302.07	329.574
1302.34	340.136
1302.61	325.329
1302.89	334.801
1303.16	328.408
1303.43	333.671
1303.71	330.51
1303.98	329.456
1304.25	343.181
1304.53	331.53
1304.8	337.808
1305.07	335.624
1305.35	329.218
1305.62	332.304
1305.89	324.853
1306.17	330.094
1306.44	323.762
1306.71	328.012
1306.98	335.407
1307.26	328.02
1307.53	333.289
1307.8	333.313
1308.08	325.907
1308.35	333.304
1308.62	333.358
1308.9	336.57
1309.17	329.235
1309.44	319.773
1309.71	330.321
1309.99	325.022
1310.26	326.076
1310.53	336.644
1310.81	328.22
1311.08	328.235
1311.35	329.314
1311.63	326.204
1311.9	336.814
1312.17	330.505
1312.45	332.612
1312.72	327.28
1312.99	329.375
1313.26	327.239
1313.54	322.992
1313.81	328.267
1314.08	330.396
1314.36	326.206
1314.63	329.413
1314.9	324.174
1315.17	332.666
1315.45	323.204
1315.72	334.816
1315.99	335.852
1316.26	325.277
1316.54	334.773
1316.81	325.267
1317.08	326.365
1317.36	328.512
1317.63	329.592
1317.9	319.042
1318.17	330.672
1318.45	337.014
1318.72	329.611
1318.99	326.43
1319.26	333.813
1319.54	333.832
1319.81	330.671
1320.08	342.277
1320.35	338.007
1320.63	326.319
1320.9	328.341
1321.17	334.568
1321.44	328.179
1321.72	321.754
1321.99	323.819
1322.26	331.157
1322.53	332.168
1322.81	339.47
1323.08	328.969
1323.35	325.822
1323.62	335.321
1323.9	328.982
1324.17	331.1
1324.44	331.084
1324.71	332.174
1324.99	336.316
1325.26	325.631
1325.53	321.242
1325.8	327.313
1326.08	327.211
1326.35	331.381
1326.62	327.261
1326.89	339.075
1327.16	324.447
1327.44	337.205
1327.71	325.739
1327.98	334.306
1328.25	323.867
1328.53	326.028
1328.8	327.026
1329.07	331.29
1329.34	315.452
1329.61	332.308
1329.89	321.72
1330.16	326.937
1330.43	335.298
1330.7	326.768
1330.98	323.487
1331.25	324.397
1331.52	320.07
1331.79	325.245
1332.06	336.724
1332.33	333.455
1332.61	329.13
1332.88	334.279
1333.15	326.82
1333.42	329.88
1333.69	328.738
1333.97	328.652
1334.24	323.323
1334.51	326.403
1334.78	327.39
1335.05	329.427
1335.33	328.32
1335.6	320.925
1335.87	327.168
1336.14	321.882
1336.41	342.811
1336.69	322.862
1336.96	324.931
1337.23	326.994
1337.5	329.018
1337.77	321.603
1338.04	327.84
1338.32	328.836
1338.59	324.607
1338.86	332.973
1339.13	329.841
1339.4	336.143
1339.67	330.917
1339.95	334.069
1340.22	328.846
1340.49	323.606
1340.76	334.065
1341.03	336.137
1341.3	330.867
1341.58	328.723
1341.85	324.469
1342.12	336.943
1342.39	326.393
1342.66	330.526
1342.93	322.133
1343.2	324.212
1343.48	318.98
1343.75	325.26
1344.02	332.583
1344.29	325.237
1344.56	328.324
1344.83	320.936
1345.1	326.065
1345.38	318.666
1345.65	325.875
1345.92	319.457
1346.19	324.564
1346.46	329.685
1346.73	324.368
1347	320.107
1347.28	322.129
1347.55	324.171
1347.82	318.931
1348.09	316.823
1348.36	326.156
1348.63	329.223
1348.9	327.076
1349.18	324.933
1349.45	322.792
1349.72	330.023
1349.99	333.086
1350.26	322.602
1350.53	328.764
1350.8	326.626
1351.07	325.507
1351.34	332.754
1351.62	327.546
1351.89	321.339
1352.16	325.565
1352.43	333.989
1352.7	323.625
1352.97	334.292
1353.24	330.481
1353.51	325.014
1353.78	324.526
1354.06	330.381
1354.33	325.213
1354.6	328.376
1354.87	319.961
1355.14	333.377
1355.41	321.007
1355.68	322.108
1355.95	329.301
1356.22	323.037
1356.49	325.086
1356.76	328.171
1357.04	326.054
1357.3	328.081
1357.58	324.912
1357.85	335.232
1358.12	327.911
1358.39	322.661
1358.66	321.559
1358.93	320.475
1359.2	326.657
1359.47	318.288
1359.74	322.338
1360.01	336.755
1360.28	319.075
1360.56	327.333
1360.83	322.147
1361.1	325.245
1361.37	325.227
1361.64	317.943
1361.91	334.475
1362.18	328.231
1362.45	329.251
1362.72	322.02
1362.99	334.498
1363.26	327.295
1363.53	327.334
1363.8	314.909
1364.07	328.354
1364.34	332.465
1364.61	336.552
1364.89	325.091
1365.16	344.681
1365.43	327.011
1365.7	339.354
1365.97	325.828
1366.24	331.942
1366.51	321.493
1366.78	337.97
1367.05	338.97
1367.32	320.398
1367.59	330.765
1367.86	331.819
1368.13	337.009
1368.4	333.928
1368.67	334.988
1368.94	335.013
1369.21	353.593
1369.48	372.159
1369.75	377.286
1370.02	347.228
1370.29	325.478
1370.56	332.654
1370.83	333.599
1371.1	328.329
1371.37	334.395
1371.64	318.792
1371.91	339.307
1372.18	331.997
1372.45	326.783
1372.72	337.045
1372.99	341.126
1373.26	325.633
1373.54	330.757
1373.8	335.885
1374.07	329.682
1374.34	328.627
1374.61	334.767
1374.89	323.443
1375.16	325.543
1375.42	328.629
1375.69	332.774
1375.96	338.878
1376.24	341.887
1376.51	329.426
1376.77	335.45
1377.04	347.827
1377.31	342.762
1377.58	344.952
1377.86	334.814
1378.12	356.662
1378.39	330.959
1378.66	334.046
1378.93	352.559
1379.2	337.051
1379.47	354.508
1379.74	352.325
1380.01	343.786
1380.28	348.777
1380.55	340.382
1380.82	346.632
1381.09	354.783
1381.36	347.427
1381.63	370.881
1381.9	360.453
1382.17	362.38
1382.44	362.234
1382.71	365.214
1382.98	363.049
1383.25	352.733
1383.52	363.949
1383.79	360.885
1384.06	363.986
1384.33	376.357
1384.6	361.061
1384.87	395.076
1385.14	402.364
1385.41	439.426
1385.68	451.796
1385.95	465.249
1386.21	537.199
1386.48	656.355
1386.76	781.258
1387.03	1158.85
1387.29	1878.98
1387.56	2672.3
1387.83	2761.02
1388.1	1937.58
1388.37	1064.87
1388.64	696.114
1388.91	550.331
1389.18	478.55
1389.45	441.461
1389.72	397.033
1389.99	393.727
1390.26	382.497
1390.53	389.491
1390.8	359.727
1391.06	364.83
1391.33	348.358
1391.6	359.536
1391.87	350.237
1392.14	343.009
1392.41	350.128
1392.68	358.277
1392.95	352.1
1393.22	342.857
1393.49	348.969
1393.76	357.131
1394.03	339.715
1394.3	325.375
1394.56	333.586
1394.83	327.505
1395.1	346.994
1395.37	325.52
1395.64	325.514
1395.91	329.584
1396.18	356.156
1396.45	339.738
1396.72	345.819
1396.99	332.456
1397.26	325.261
1397.52	336.505
1397.79	329.364
1398.06	341.677
1398.33	331.474
1398.6	329.447
1398.87	347.916
1399.14	330.561
1399.41	333.664
1399.68	326.503
1399.95	331.66
1400.22	334.81
1400.48	334.857
1400.75	322.565
1401.02	334.886
1401.29	333.867
1401.56	336.012
1401.83	329.015
1402.1	342.547
1402.37	335.526
1402.63	321.27
1402.9	325.435
1403.17	332.633
1403.44	344.897
1403.71	338.555
1403.98	330.374
1404.25	334.459
1404.51	332.371
1404.78	326.162
1405.05	345.587
1405.32	337.324
1405.59	344.445
1405.86	334.158
1406.13	336.178
1406.39	329.016
1406.66	340.315
1406.93	351.623
1407.2	345.494
1407.47	354.744
1407.74	358.866
1408.01	384.523
1408.27	405.061
1408.54	418.432
1408.81	470.776
1409.08	449.276
1409.35	490.336
1409.62	430.857
1409.89	416.42
1410.15	356.839
1410.42	354.676
1410.69	350.492
1410.96	337.111
1411.23	333.991
1411.5	327.824
1411.76	327.865
1412.03	343.323
1412.3	332.214
1412.57	329.547
1412.84	333.93
1413.11	321.426
1413.37	316.811
1413.64	337.361
1413.91	326.296
1414.18	326.492
1414.45	322.357
1414.72	326.479
1414.98	328.535
1415.25	330.596
1415.52	321.383
1415.79	320.387
1416.06	318.366
1416.33	339.969
1416.59	330.765
1416.86	335.943
1417.13	334.955
1417.4	315.456
1417.67	325.739
1417.93	317.53
1418.2	323.719
1418.47	320.637
1418.74	330.929
1419.01	335.011
1419.27	323.652
1419.54	321.532
1419.81	324.557
1420.08	323.467
1420.35	316.212
1420.61	338.736
1420.88	323.304
1421.15	319.211
1421.42	328.523
1421.69	325.563
1421.95	325.661
1422.22	325.83
1422.49	334.311
1422.76	331.546
1423.02	315.678
1423.29	323.888
1423.56	315.898
1423.83	324.823
1424.1	318.577
1424.36	325.913
1424.63	322.955
1424.9	329.309
1425.17	318.897
1425.43	321.108
1425.7	324.164
1425.97	313.862
1426.24	314.808
1426.51	327.028
1426.77	322.835
1427.04	326.815
1427.31	318.502
1427.58	325.616
1427.84	333.783
1428.11	319.452
1428.38	313.327
1428.65	321.546
1428.91	318.51
1429.18	321.632
1429.45	323.747
1429.72	310.511
1429.98	325.959
1430.25	317.846
1430.52	314.905
1430.79	317.077
1431.05	321.246
1431.32	325.364
1431.59	320.186
1431.86	313.956
1432.12	322.111
1432.39	327.159
1432.66	312.685
1432.93	319.732
1433.19	316.533
1433.46	319.52
1433.73	322.555
1434	311.398
1434.26	312.522
1434.53	334.056
1434.8	316.642
1435.07	316.638
1435.33	314.577
1435.6	321.733
1435.87	317.615
1436.13	315.54
1436.4	317.56
1436.67	319.582
1436.94	322.645
1437.2	312.376
1437.47	317.477
1437.74	316.465
1438	308.316
1438.27	323.716
1438.54	315.536
1438.81	313.504
1439.07	315.598
1439.34	325.916
1439.61	314.729
1439.87	313.753
1440.14	317.879
1440.41	315.838
1440.67	315.855
1440.94	323.018
1441.21	317.845
1441.48	323.965
1441.74	317.867
1442.01	316.859
1442.28	312.816
1442.54	316.896
1442.81	318.897
1443.08	321.927
1443.34	320.869
1443.61	309.579
1443.88	321.894
1444.15	317.878
1444.41	321.034
1444.68	311.91
1444.95	320.107
1445.21	315.975
1445.48	315.95
1445.75	309.771
1446.01	311.801
1446.28	309.727
1446.55	323.037
1446.81	326.085
1447.08	308.615
1447.35	309.608
1447.61	323.951
1447.88	319.9
1448.15	324.083
1448.41	311.802
1448.68	311.804
1448.95	317.936
1449.21	317.899
1449.48	314.774
1449.75	314.72
1450.01	320.844
1450.28	314.671
1450.55	310.548
1450.81	316.674
1451.08	317.668
1451.35	322.762
1451.61	320.688
1451.88	313.501
1452.15	315.555
1452.41	309.42
1452.68	313.555
1452.94	320.764
1453.21	306.427
1453.48	309.481
1453.75	319.709
1454.01	313.562
1454.28	308.442
1454.54	307.413
1454.81	314.565
1455.08	317.634
1455.34	315.644
1455.61	306.457
1455.88	311.587
1456.14	307.469
1456.41	315.618
1456.68	312.489
1456.94	317.589
1457.21	311.423
1457.47	313.457
1457.74	316.534
1458.01	308.345
1458.27	318.608
1458.54	313.504
1458.8	315.564
1459.07	309.429
1459.34	311.47
1459.6	318.623
1459.87	309.382
1460.13	306.286
1460.4	319.572
1460.67	323.629
1460.93	320.517
1461.2	308.188
1461.47	309.162
1461.73	313.203
1462	312.119
1462.26	312.054
1462.53	311.985
1462.79	308.845
1463.06	308.777
1463.33	313.862
1463.59	313.938
1463.86	317.162
1464.13	317.277
1464.39	306.146
1464.66	321.445
1464.92	312.61
1465.19	309.267
1465.45	312.244
1465.72	309.293
1465.99	316.443
1466.25	312.229
1466.52	315.209
1466.78	316.277
1467.05	315.239
1467.32	317.258
1467.58	308.062
1467.85	311.117
1468.11	311.112
1468.38	309.058
1468.64	309.031
1468.91	311.035
1469.18	307.925
1469.44	304.794
1469.71	307.792
1469.97	306.73
1470.24	314.846
1470.51	304.632
1470.77	308.675
1471.04	307.596
1471.3	308.569
1471.57	314.655
1471.83	303.442
1472.1	310.562
1472.36	308.518
1472.63	315.627
1472.9	312.532
1473.16	308.413
1473.43	312.447
1473.69	318.527
1473.96	304.276
1474.22	311.422
1474.49	308.396
1474.75	309.42
1475.02	305.343
1475.28	312.444
1475.55	305.282
1475.82	306.267
1476.08	323.538
1476.35	303.148
1476.61	313.269
1476.88	309.17
1477.14	307.124
1477.41	318.303
1477.67	309.124
1477.94	308.051
1478.2	312.07
1478.47	308.976
1478.73	315.023
1479	306.838
1479.27	313.885
1479.53	310.773
1479.79	307.628
1480.06	308.551
1480.32	309.501
1480.59	304.394
1480.85	311.449
1481.12	311.462
1481.39	309.479
1481.65	301.416
1481.92	306.552
1482.18	318.786
1482.45	314.734
1482.71	308.673
1482.98	303.62
1483.24	307.688
1483.51	306.665
1483.77	310.624
1484.04	309.45
1484.3	315.236
1484.57	306.726
1484.83	307.549
1485.1	306.29
1485.36	308.886
1485.63	309.07
1485.89	306.161
1486.16	323.105
1486.42	303.948
1486.69	311.111
1486.95	301.921
1487.22	309.951
1487.48	303.829
1487.75	306.82
1488.01	310.807
1488.28	312.757
1488.54	301.564
1488.81	301.528
1489.07	302.514
1489.34	299.457
1489.6	301.476
1489.86	313.616
1490.13	308.526
1490.39	307.457
1490.66	306.384
1490.92	305.34
1491.19	302.291
1491.45	307.342
1491.72	309.38
1491.98	305.329
1492.25	304.303
1492.51	305.301
1492.78	313.392
1493.04	305.283
1493.3	305.27
1493.57	304.26
1493.83	303.267
1494.1	305.32
1494.36	307.338
1494.63	311.341
1494.89	302.162
1495.16	304.073
1495.42	300.951
1495.69	304.932
1495.95	304.889
1496.22	306.874
1496.48	303.796
1496.74	303.793
1497.01	307.832
1497.27	304.785
1497.54	300.739
1497.8	303.769
1498.07	311.849
1498.33	304.795
1498.59	308.845
1498.86	306.844
1499.12	306.871
1499.39	309.929
1499.65	305.905
1499.92	303.887
1500.18	309.933
1500.44	308.917
1500.71	306.876
1500.97	307.818
1501.24	308.805
1501.5	303.751
1501.77	310.805
1502.03	307.758
1502.29	308.705
1502.56	304.6
1502.82	306.592
1503.09	305.519
1503.35	302.483
1503.62	307.557
1503.88	302.531
1504.14	304.554
1504.41	310.595
1504.67	310.566
1504.93	304.475
1505.2	309.447
1505.46	310.322
1505.73	314.328
1505.99	307.267
1506.26	306.258
1506.52	305.306
1506.78	304.309
1507.05	308.356
1507.31	303.32
1507.58	312.37
1507.84	304.287
1508.1	307.314
1508.37	302.289
1508.63	307.334
1508.89	307.331
1509.16	312.364
1509.42	307.349
1509.69	307.395
1509.95	301.29
1510.21	305.266
1510.48	309.226
1510.74	307.133
1511.01	308.029
1511.27	310.889
1511.53	306.703
1511.8	311.582
1512.06	302.395
1512.32	305.328
1512.59	301.241
1512.85	304.193
1513.12	302.149
1513.38	306.206
1513.64	301.318
1513.91	303.377
1514.17	301.339
1514.43	305.298
1514.7	310.231
1514.96	300.122
1515.22	304.046
1515.49	307.968
1515.75	306.89
1516.02	303.85
1516.28	301.821
1516.54	297.789
1516.81	303.795
1517.07	308.811
1517.33	300.807
1517.6	302.863
1517.86	300.882
1518.12	304.915
1518.39	302.928
1518.65	304.959
1518.91	302.978
1519.18	310.018
1519.44	300.986
1519.7	308.99
1519.97	301.945
1520.23	305.967
1520.49	302.986
1520.76	310.037
1521.02	308.045
1521.28	309.042
1521.55	304.001
1521.81	300.96
1522.07	301.929
1522.34	306.912
1522.6	306.866
1522.86	303.776
1523.13	300.656
1523.39	300.57
1523.65	307.516
1523.92	299.449
1524.18	308.413
1524.44	306.428
1524.71	301.44
1524.97	299.449
1525.23	300.488
1525.5	302.545
1525.76	302.62
1526.02	303.689
1526.28	300.714
1526.55	303.722
1526.81	298.674
1527.07	300.656
1527.34	305.643
1527.6	298.605
1527.86	304.583
1528.13	305.552
1528.39	304.522
1528.65	301.5
1528.91	304.499
1529.18	310.493
1529.44	305.44
1529.7	306.421
1529.97	302.435
1530.23	309.502
1530.49	303.555
1530.76	303.606
1531.02	301.617
1531.28	305.608
1531.54	304.614
1531.81	304.577
1532.07	300.591
1532.33	306.675
1532.59	300.765
1532.86	303.874
1533.12	299.913
1533.38	308.97
1533.65	300.948
1533.91	299.931
1534.17	305.928
1534.43	304.894
1534.7	307.877
1534.96	304.825
1535.22	302.678
1535.48	303.578
1535.75	303.512
1536.01	307.419
1536.27	304.305
1536.54	306.198
1536.8	303.153
1537.06	304.078
1537.32	301.08
1537.59	299.031
1537.85	305.933
1538.11	303.898
1538.37	311.852
1538.63	302.916
1538.9	302.072
1539.16	302.294
1539.42	304.46
1539.69	303.585
1539.95	301.72
1540.21	304.817
1540.47	307.892
1540.74	299.74
1541	305.743
1541.26	308.672
1541.52	295.571
1541.79	304.512
1542.05	311.447
1542.31	302.363
1542.57	307.302
1542.83	312.235
1543.1	305.139
1543.36	302.014
1543.62	305.022
1543.88	303.033
1544.14	303.086
1544.41	303.184
1544.67	306.241
1544.93	305.368
1545.19	300.436
1545.46	302.477
1545.72	301.523
1545.98	302.503
1546.24	302.511
1546.51	302.546
1546.77	317.608
1547.03	302.628
1547.29	304.603
1547.55	304.404
1547.82	312.421
1548.08	317.397
1548.34	308.571
1548.6	309.316
1548.86	297.952
1549.13	300.824
1549.39	303.966
1549.65	312.231
1549.91	300.721
1550.17	303.011
1550.44	298.449
1550.7	304.203
1550.96	302.242
1551.22	307.232
1551.48	300.049
1551.74	303.179
1552.01	302.35
1552.27	300.297
1552.53	301.274
1552.79	308.031
1553.05	299.947
1553.32	297.925
1553.58	303.89
1553.84	304.809
1554.1	298.703
1554.36	302.586
1554.63	309.557
1554.89	305.526
1555.15	304.518
1555.41	300.527
1555.67	307.564
1555.93	305.501
1556.2	303.496
1556.46	303.516
1556.72	305.539
1556.98	307.554
1557.24	306.54
1557.5	300.493
1557.77	311.402
1558.03	305.329
1558.29	297.219
1558.55	298.127
1558.81	305.046
1559.07	301.978
1559.33	300.923
1559.6	305.876
1559.86	306.842
1560.12	306.818
1560.38	303.798
1560.64	303.792
1560.9	300.805
1561.17	298.857
1561.43	304.927
1561.69	301.033
1561.95	300.046
1562.21	305.036
1562.47	298.009
1562.74	301.023
1563	297
1563.26	304.969
1563.52	306.055
1563.78	300.176
1564.04	296.226
1564.3	306.232
1564.56	305.118
1564.82	304.662
1565.09	302.943
1565.35	303.339
1565.61	304.43
1565.87	304.971
1566.13	307.898
1566.39	309.652
1566.65	304.836
1566.91	302.137
1567.18	303.133
1567.44	297.914
1567.7	301.916
1567.96	297.96
1568.22	297.988
1568.48	303.976
1568.74	303.871
1569	305.792
1569.27	297.788
1569.53	304.807
1569.79	300.819
1570.05	302.823
1570.31	303.819
1570.57	302.809
1570.83	302.786
1571.09	301.744
1571.35	300.686
1571.62	304.67
1571.88	298.646
1572.14	304.581
1572.4	297.545
1572.66	305.491
1572.92	306.44
1573.18	300.402
1573.44	302.393
1573.7	303.438
1573.96	302.507
1574.22	306.572
1574.48	300.656
1574.74	298.731
1575.01	303.789
1575.27	304.813
1575.53	309.789
1575.79	301.79
1576.05	303.766
1576.31	301.684
1576.57	304.566
1576.83	298.467
1577.09	307.343
1577.35	304.252
1577.61	301.166
1577.87	300.105
1578.14	302.075
1578.4	307.055
1578.66	302.067
1578.92	302.068
1579.18	304.073
1579.44	307.108
1579.7	309.129
1579.96	305.15
1580.22	301.154
1580.48	302.121
1580.74	299.083
1581	303.033
1581.26	305.967
1581.52	302.906
1581.78	299.89
1582.04	308.836
1582.3	298.85
1582.57	292.854
1582.83	301.808
1583.09	303.797
1583.35	303.764
1583.61	301.764
1583.87	304.777
1584.13	297.826
1584.39	299.833
1584.65	302.822
1584.91	305.793
1585.17	301.803
1585.43	300.787
1585.69	303.71
1585.95	301.641
1586.21	305.565
1586.47	307.512
1586.73	298.522
1586.99	302.475
1587.25	300.466
1587.51	300.463
1587.77	308.444
1588.03	296.534
1588.29	307.526
1588.55	302.587
1588.81	301.631
1589.07	301.662
1589.33	306.655
1589.59	302.668
1589.85	300.696
1590.11	307.701
1590.37	304.751
1590.63	308.725
1590.89	305.739
1591.15	308.708
1591.41	302.709
1591.67	305.638
1591.94	302.554
1592.2	300.483
1592.46	299.456
1592.72	302.335
1592.98	300.232
1593.23	300.1
1593.49	302.001
1593.75	303.936
1594.01	300.948
1594.27	299.98
1594.53	306.005
1594.79	295.115
1595.05	300.128
1595.31	305.927
1595.57	296.973
1595.83	300.945
1596.09	302.932
1596.35	305.92
1596.61	295.014
1596.87	301.991
1597.13	305.998
1597.39	306.99
1597.65	301.005
1597.91	303.94
1598.17	302.865
1598.43	297.824
1598.69	297.767
1598.95	299.701
1599.21	295.682
1599.47	300.605
1599.73	302.505
1599.99	300.469
1600.25	302.25
1600.51	298.167
1600.77	303.799
1601.03	295.252
1601.29	300.798
1601.55	306.013
1601.81	297.815
1602.07	298.082
1602.33	304.388
1602.59	299.785
1602.85	302.571
1603.1	299.002
1603.36	302.896
1603.62	298.582
1603.88	300.415
1604.14	296.978
1604.4	299.587
1604.66	303.172
1604.92	303.087
1605.18	302.371
1605.44	303.14
1605.7	307.775
1605.96	296.281
1606.22	301.905
1606.48	303.488
1606.74	302.046
1607	306.209
1607.26	302.084
1607.52	303.858
1607.77	307.55
1608.03	301.277
1608.29	300.803
1608.55	298.837
1608.81	300.261
1609.07	303.63
1609.33	300.474
1609.59	300.241
1609.85	301.424
1610.11	302.645
1610.37	303.386
1610.63	301.422
1610.88	299.042
1611.14	300.714
1611.4	297.784
1611.66	303.243
1611.92	304.629
1612.18	301.992
1612.44	301.323
1612.7	300.248
1612.96	299.595
1613.22	301.276
1613.48	299.738
1613.73	297.041
1613.99	307.895
1614.25	299.077
1614.51	301.83
1614.77	301.654
1615.03	303.525
1615.29	298.255
1615.55	297.761
1615.81	299.855
1616.07	304.33
1616.32	301.949
1616.58	296.604
1616.84	303.621
1617.1	302.952
1617.36	307.675
1617.62	301.91
1617.88	304.477
1618.14	298.982
1618.4	299.079
1618.65	305.031
1618.91	299.504
1619.17	300.51
1619.43	301.013
1619.69	297.74
1619.95	303.264
1620.21	303.568
1620.47	300.581
1620.72	302.95
1620.98	297.817
1621.24	299.624
1621.5	302.478
1621.76	299.749
1622.02	299.744
1622.28	297.745
1622.54	298.948
1622.79	300.601
1623.05	296.37
1623.31	299.033
1623.57	298.066
1623.83	296.897
1624.09	299.478
1624.35	300.348
1624.6	298.491
1624.86	301.814
1625.12	303.236
1625.38	298.606
1625.64	298.333
1625.9	305.8
1626.16	299.992
1626.41	298.972
1626.67	297.946
1626.77	295.609
1627.04	300.536
1627.3	302.511
1627.56	306.461
1627.82	294.65
1628.08	306.492
1628.34	299.612
1628.6	298.604
1628.87	298.567
1629.13	294.602
1629.39	298.526
1629.65	295.557
1629.91	302.437
1630.17	296.499
1630.44	295.483
1630.7	296.476
1630.96	302.419
1631.22	299.519
1631.48	298.59
1631.74	305.511
1632	304.552
1632.27	299.751
1632.53	306.689
1632.79	302.596
1633.05	297.571
1633.31	305.464
1633.57	306.5
1633.83	295.692
1634.1	301.619
1634.36	310.493
1634.62	295.7
1634.88	296.672
1635.14	302.565
1635.4	305.494
1635.66	295.607
1635.92	309.364
1636.18	300.458
1636.45	305.339
1636.71	301.346
1636.97	297.367
1637.23	304.244
1637.49	298.317
1637.75	304.195
1638.01	296.292
1638.27	304.161
1638.53	297.275
1638.8	297.274
1639.06	303.179
1639.32	307.115
1639.58	299.232
1639.84	302.177
1640.1	305.177
1640.36	295.384
1640.62	302.306
1640.88	300.33
1641.15	304.237
1641.41	304.212
1641.67	304.194
1641.93	298.275
1642.19	297.278
1642.45	300.221
1642.71	311.038
1642.97	305.132
1643.23	304.13
1643.49	301.148
1643.75	301.112
1644.02	301.053
1644.28	304.975
1644.54	301.032
1644.8	297.158
1645.06	295.208
1645.32	295.239
1645.58	299.153
1645.84	299.117
1646.1	295.147
1646.36	295.121
1646.62	300.026
1646.88	293.097
1647.15	298.976
1647.41	299.933
1647.67	298.963
1647.93	298.997
1648.19	301.02
1648.45	296.177
1648.71	299.325
1648.97	301.243
1649.23	298.27
1649.49	300.204
1649.75	298.275
1650.01	300.363
1650.27	297.453
1650.53	300.474
1650.79	301.511
1651.05	296.613
1651.31	300.563
1651.57	296.621
1651.83	307.468
1652.1	293.674
1652.36	298.558
1652.62	300.502
1652.88	303.452
1653.14	304.447
1653.4	298.559
1653.66	299.574
1653.92	300.575
1654.18	297.635
1654.44	299.637
1654.7	293.773
1654.96	305.68
1655.22	301.837
1655.48	310.816
1655.74	301.996
1656	301.047
1656.26	295.146
1656.52	297.125
1656.78	304.017
1657.04	301.027
1657.3	303.961
1657.56	300.981
1657.82	302.927
1658.08	302.89
1658.34	297.914
1658.6	294.912
1658.86	298.813
1659.12	301.728
1659.38	305.615
1659.64	298.696
1659.9	298.729
1660.16	299.759
1660.42	303.756
1660.69	299.868
1660.95	301.905
1661.21	296.026
1661.46	297.062
1661.72	304.75
1661.98	308.92
1662.25	297.546
1662.51	295.595
1662.77	303.404
1663.03	303.43
1663.28	301.908
1663.54	297.942
1663.8	304.047
1664.07	297.163
1664.33	300.234
1664.59	304.333
1664.84	304.215
1665.1	299.688
1665.36	300.264
1665.62	299.621
1665.89	294.624
1666.14	296.714
1666.4	308.058
1666.66	295.927
1666.92	298.101
1667.18	300.009
1667.44	302.946
1667.7	298.945
1667.96	295.952
1668.22	304.892
1668.48	298.209
1668.74	296.309
1669	295.331
1669.26	308.183
1669.52	302.27
1669.78	300.213
1670.04	295.378
1670.3	301.511
1670.56	303.473
1670.82	299.485
1671.08	303.427
1671.34	294.518
1671.6	300.491
1671.86	304.458
1672.12	301.501
1672.38	303.47
1672.64	296.558
1672.9	302.501
1673.15	301.529
1673.41	301.556
1673.67	302.584
1673.93	299.662
1674.19	298.708
1674.45	301.723
1674.71	300.797
1674.97	299.843
1675.23	305.799
1675.49	302.827
1675.75	303.816
1676.01	300.866
1676.27	297.911
1676.53	297.915
1676.79	303.843
1677.05	297.883
1677.31	304.777
1677.57	301.758
1677.82	297.738
1678.08	301.632
1678.34	302.573
1678.6	304.512
1678.86	300.526
1679.12	297.535
1679.38	300.469
1679.64	303.407
1679.9	299.43
1680.16	307.303
1680.42	302.334
1680.68	298.362
1680.94	299.34
1681.19	293.41
1681.45	296.373
1681.71	299.339
1681.97	299.344
1682.23	298.355
1682.49	298.344
1682.75	297.351
1683.01	295.374
1683.27	304.261
1683.53	302.272
1683.79	301.252
1684.04	305.167
1684.3	310.084
1684.56	296.247
1684.82	298.214
1685.08	292.287
1685.34	305.125
1685.6	303.155
1685.86	303.169
1686.12	301.242
1686.38	301.29
1686.63	294.396
1686.89	303.279
1687.15	295.347
1687.41	303.214
1687.67	296.27
1687.93	294.266
1688.19	293.243
1688.45	303.058
1688.71	299.054
1688.96	297.029
1689.22	299.936
1689.48	300.856
1689.74	295.863
1690	295.918
1690.26	298.924
1690.52	298.957
1690.78	302.926
1691.03	294.059
1691.29	300.026
1691.55	299.051
1691.81	298.056
1692.07	297.043
1692.33	291.067
1692.59	293.969
1692.84	302.771
1693.1	295.782
1693.36	299.64
1693.62	296.636
1693.88	290.659
1694.14	295.53
1694.4	299.442
1694.66	299.455
1694.91	293.564
1695.17	296.536
1695.43	297.541
1695.69	295.599
1695.95	293.67
1696.21	299.598
1696.47	296.626
1696.72	301.513
1696.98	302.43
1697.24	299.394
1697.5	298.336
1697.76	307.139
1698.02	295.277
1698.27	296.216
1698.53	296.184
1698.79	294.202
1699.05	300.109
1699.31	295.203
1699.57	296.19
1699.82	301.091
1700.08	298.097
1700.34	291.201
1700.6	304.959
1700.86	292.15
1701.12	299.983
1701.37	295.011
1701.63	296.921
1701.89	293.916
1702.15	290.911
1702.41	302.667
1702.66	300.689
1702.92	297.728
1703.18	296.722
1703.44	301.611
1703.7	294.738
1703.96	299.685
1704.21	294.798
1704.47	295.779
1704.73	297.727
1704.99	296.736
1705.25	300.669
1705.5	294.751
1705.76	296.661
1706.02	294.63
1706.28	293.577
1706.54	298.41
1706.79	293.435
1707.05	299.251
1707.31	298.182
1707.57	294.165
1707.83	295.053
1708.08	290.05
1708.34	294.845
1708.6	293.784
1708.86	296.664
1709.12	303.484
1709.37	293.682
1709.63	296.62
1709.89	298.586
1710.15	296.641
1710.41	294.725
1710.66	300.635
1710.92	287.931
1711.18	299.71
1711.44	296.79
1711.7	297.759
1711.95	294.767
1712.21	293.678
1712.47	296.492
1712.73	293.422
1712.98	293.328
1713.24	295.15
1713.5	292.143
1713.76	295.031
1714.01	294.02
1714.27	293.022
1714.53	294.962
1714.79	293.013
1715.04	294.089
1715.3	293.132
1715.56	294.094
1715.82	292.109
1716.08	289.127
1716.33	290.032
1716.59	293.846
1716.85	294.709
1717.11	295.547
1717.36	291.492
1717.62	296.259
1717.88	292.242
1718.14	293.137
1718.39	296.979
1718.65	295.009
1718.91	295.989
1719.16	290.137
1719.42	291.095
1719.68	299.903
1719.94	297.942
1720.2	299.847
1720.45	291.021
1720.71	295.801
1720.97	296.724
1721.23	287.904
1721.48	294.643
1721.74	295.539
1722	293.519
1722.25	294.417
1722.51	295.322
1722.77	302.062
1723.03	290.364
1723.28	295.197
1723.54	292.281
1723.8	292.252
1724.05	292.232
1724.31	293.139
1724.57	294.986
1724.83	292.927
1725.08	299.611
1725.34	292.723
1725.6	288.793
1725.85	297.503
1726.11	287.825
1726.37	289.728
1726.63	297.411
1726.88	291.525
1727.14	291.557
1727.4	288.691
1727.66	292.529
1727.91	296.328
1728.17	291.25
1728.43	285.017
1728.68	294.34
1728.94	292.396
1729.2	296.429
1729.45	290.772
1729.71	294.622
1729.97	299.309
1730.23	289.596
1730.48	298.426
1730.74	291.856
1730.99	285.106
1731.25	287.039
1731.51	291.861
1731.77	287.006
1732.02	287.944
1732.28	285.009
1732.54	295.585
1732.79	291.647
1733.05	291.545
1733.31	294.313
1733.56	289.387
1733.82	286.404
1734.08	298.845
1734.33	294.892
1734.59	290.944
1734.85	290.852
1735.1	286.93
1735.36	288.8
1735.62	294.542
1735.87	288.742
1736.13	294.48
1736.39	297.328
1736.65	284.779
1736.9	285.699
1737.16	285.665
1737.41	288.509
1737.67	289.412
1737.93	290.311
1738.18	287.368
1738.44	290.188
1738.7	292.034
1738.95	289.062
1739.21	283.176
1739.47	289.764
1739.72	284.851
1739.98	294.336
1740.24	293.295
1740.49	288.439
1740.75	291.246
1741.01	287.353
1741.26	290.169
1741.52	284.384
1741.78	287.233
1742.03	284.35
1742.29	287.19
1742.54	290.034
1742.8	289.066
1743.06	283.318
1743.31	287.101
1743.57	287.99
1743.83	287.953
1744.08	285.994
1744.34	285.992
1744.6	294.602
1744.85	288.87
1745.11	285.996
1745.36	289.799
1745.62	285.928
1745.88	290.642
1746.13	290.56
1746.39	287.606
1746.65	284.68
1746.9	291.276
1747.16	286.446
1747.41	288.289
1747.67	285.412
1747.93	288.275
1748.18	288.283
1748.44	291.163
1748.69	283.551
1748.95	289.32
1749.21	286.508
1749.46	290.391
1749.72	286.638
1749.97	293.395
1750.23	291.535
1750.49	288.688
1750.74	291.586
1751	282.016
1751.26	285.783
1751.51	287.606
1751.77	289.436
1752.02	283.643
1752.28	284.536
1752.54	292.108
1752.79	286.32
1753.05	288.177
1753.3	288.13
1753.56	289.031
1753.82	288.966
1754.07	291.77
1754.33	287.914
1754.58	282.158
1754.84	291.656
1755.09	287.802
1755.35	289.654
1755.6	287.683
1755.86	287.609
1756.12	291.333
1756.37	284.577
1756.63	290.198
1756.88	287.281
1757.14	286.295
1757.4	286.282
1757.65	287.283
1757.91	288.296
1758.16	288.315
1758.42	294.982
1758.67	287.374
1758.93	281.675
1759.18	290.246
1759.44	285.477
1759.7	294.018
1759.95	284.478
1760.21	285.401
1760.46	288.216
1760.72	285.311
1760.97	288.109
1761.23	286.163
1761.49	283.283
1761.74	291.816
1762	293.739
1762.25	287.129
1762.51	288.102
1762.76	286.195
1763.02	287.144
1763.27	284.307
1763.53	288.137
1763.78	287.221
1764.04	290.174
1764.3	282.638
1764.55	286.489
1764.81	290.331
1765.06	283.692
1765.32	289.422
1765.57	291.333
1765.83	292.283
1766.08	286.556
1766.34	284.625
1766.59	285.572
1766.85	285.559
1767.1	286.483
1767.36	294.999
1767.61	289.259
1767.87	282.556
1768.13	291.122
1768.38	292.961
1768.64	291.85
1768.89	286.003
1769.15	286.792
1769.4	290.56
1769.66	293.429
1769.91	288.794
1770.17	287.866
1770.42	288.826
1770.68	285.058
1770.93	288.026
1771.19	286.21
1771.44	282.414
1771.7	293.856
1771.95	290.11
1772.21	291.121
1772.46	285.452
1772.72	283.584
1772.97	288.376
1773.23	285.551
1773.48	286.53
1773.74	285.6
1773.99	285.616
1774.25	285.638
1774.5	289.488
1774.76	282.851
1775.01	291.505
1775.27	293.539
1775.52	287.877
1775.78	287.905
1776.03	284.093
1776.29	291.697
1776.54	289.749
1776.8	290.657
1777.05	286.81
1777.31	292.473
1777.56	291.469
1777.82	291.415
1778.07	294.217
1778.32	283.677
1778.58	289.31
1778.83	285.436
1779.09	284.456
1779.34	289.244
1779.6	286.452
1779.85	289.328
1780.11	289.353
1780.36	287.477
1780.62	281.787
1780.87	289.412
1781.13	287.527
1781.38	291.369
1781.64	285.7
1781.89	287.663
1782.15	282.959
1782.4	286.811
1782.65	288.751
1782.91	291.647
1783.16	287.873
1783.42	289.821
1783.67	296.544
1783.93	281.35
1784.18	289.044
1784.44	287.175
1784.69	291.007
1784.94	288.139
1785.2	288.119
1785.45	292.857
1785.71	286.165
1785.96	289.04
1786.22	287.168
1786.47	293.902
1786.73	294.929
1786.98	290.247
1787.23	287.524
1787.49	293.44
1787.74	292.68
1788	288.063
1788.25	293.896
1788.51	292.994
1788.76	290.217
1789.02	290.315
1789.27	293.248
1789.52	297.12
1789.78	287.58
1790.03	291.439
1790.29	287.598
1790.54	291.426
1790.79	291.267
1791.05	292.133
1791.3	287.312
1791.56	287.3
1791.81	289.227
1792.07	286.362
1792.32	296.932
1792.57	292.175
1792.83	291.242
1793.08	289.317
1793.34	295.101
1793.59	289.372
1793.84	283.644
1794.1	292.23
1794.35	293.161
1794.61	287.603
1794.86	291.641
1795.11	287.922
1795.37	293.738
1795.62	285.15
1795.88	292.887
1796.13	296.787
1796.38	294.928
1796.64	289.224
1796.89	292.161
1797.15	291.246
1797.4	295.129
1797.65	288.432
1797.91	287.496
1798.16	290.395
1798.41	288.469
1798.67	286.524
1798.92	287.45
1799.18	291.245
1799.43	289.263
1799.68	289.217
1799.94	289.178
1800.19	294.912
1800.45	294.89
1800.7	291.035
1800.95	292.95
1801.21	295.837
1801.46	287.208
1801.71	291.075
1801.97	289.187
1802.22	293.075
1802.48	293.13
1802.73	296.077
1802.98	291.337
1803.24	291.382
1803.49	291.4
1803.74	286.608
1804	295.318
1804.25	289.605
1804.51	289.66
1804.76	287.808
1805.01	289.808
1805.26	298.547
1805.52	289.94
1805.77	289.99
1806.03	290.036
1806.28	289.11
1806.53	291.058
1806.79	291.065
1807.04	288.176
1807.29	289.143
1807.55	294.932
1807.8	295.903
1808.05	287.237
1808.31	290.14
1808.56	294.972
1808.81	289.201
1809.07	294.033
1809.32	289.227
1809.57	291.168
1809.83	296.963
1810.08	288.284
1810.33	290.196
1810.59	289.222
1810.84	296.932
1811.09	298.855
1811.35	290.178
1811.6	290.186
1811.85	293.102
1812.11	294.103
1812.36	289.329
1812.61	286.489
1812.87	290.375
1813.12	288.474
1813.37	295.28
1813.63	291.495
1813.88	287.71
1814.13	292.638
1814.39	293.682
1814.64	295.672
1814.89	291.844
1815.14	292.833
1815.4	291.881
1815.65	289.966
1815.9	289.979
1816.16	290.014
1816.41	287.109
1816.66	290.971
1816.92	290.88
1817.17	291.701
1817.42	292.626
1817.68	292.657
1817.93	289.824
1818.18	291.847
1818.43	292.813
1818.69	287.986
1818.94	292.846
1819.19	291.92
1819.44	290.983
1819.7	291.98
1819.95	296.855
1820.2	300.765
1820.46	293.055
1820.71	294.056
1820.96	294.103
1821.22	290.281
1821.47	292.257
1821.72	300.032
1821.97	297.155
1822.23	289.43
1822.48	292.353
1822.73	294.302
1822.99	294.284
1823.24	296.195
1823.49	300.035
1823.74	298.112
1824	295.237
1824.25	296.232
1824.5	294.323
1824.75	300.165
1825.01	288.579
1825.26	288.594
1825.51	297.313
1825.76	289.564
1826.02	295.387
1826.27	290.551
1826.52	296.372
1826.77	300.273
1827.03	289.649
1827.28	294.528
1827.53	287.773
1827.78	295.512
1828.04	294.534
1828.29	292.557
1828.54	290.579
1828.8	296.372
1829.05	291.524
1829.3	289.573
1829.55	295.367
1829.81	293.386
1830.06	297.233
1830.31	288.488
1830.56	295.286
1830.81	293.391
1831.07	293.432
1831.32	293.474
1831.57	293.511
1831.82	290.645
1832.08	285.845
1832.33	296.571
1832.58	292.724
1832.83	293.69
1833.09	295.643
1833.34	300.524
1833.59	289.869
1833.84	291.822
1834.09	292.673
1834.35	293.476
1834.6	293.339
1834.85	293.211
1835.1	292.172
1835.36	292.102
1835.61	293.077
1835.86	292.224
1836.11	303.249
1836.36	303.718
1836.62	287.875
1836.87	293.588
1837.12	290.451
1837.37	291.228
1837.62	294.796
1837.88	299.503
1838.13	289.938
1838.38	291.423
1838.63	289.614
1838.88	298.424
1839.14	296.52
1839.39	295.602
1839.64	291.72
1839.89	289.486
1840.14	294.144
1840.4	295.911
1840.65	291.9
1840.9	290.799
1841.15	295.501
1841.4	290.56
1841.66	286.597
1841.91	290.359
1842.16	289.343
1842.41	288.416
1842.66	293.223
1842.92	291.321
1843.17	288.423
1843.42	298.06
1843.67	292.25
1843.92	291.298
1844.17	293.256
1844.43	299.032
1844.68	292.25
1844.93	295.155
1845.18	289.41
1845.43	298.222
1845.69	289.661
1845.94	294.638
1846.19	291.819
1846.44	294.463
1846.69	294.972
1846.94	294.615
1847.19	287.815
1847.45	291.724
1847.7	287.057
1847.95	295.758
1848.2	286.965
1848.45	297.513
1848.7	290.759
1848.96	293.581
1849.21	292.531
1849.46	294.367
1849.71	292.342
1849.96	291.284
1850.21	292.161
1850.46	300.739
1850.72	290.109
1850.97	289.099
1851.22	295.783
1851.47	295.759
1851.72	289.029
1851.97	286.149
1852.23	288.071
1852.48	288.069
1852.73	288.057
1852.98	288.997
1853.23	291.839
1853.48	292.732
1853.73	291.685
1853.98	293.505
1854.24	286.723
1854.49	287.649
1854.74	283.758
1854.99	290.369
1855.24	291.242
1855.49	289.29
1855.74	292.139
1855.99	288.3
1856.25	291.178
1856.5	291.172
1856.75	287.326
1857	291.125
1857.25	292.05
1857.5	292.97
1857.75	287.176
1858	289.029
1858.26	289.918
1858.51	289.852
1858.76	288.823
1859.01	283.012
1859.26	291.582
1859.51	286.81
1859.76	289.673
1860.01	293.533
1860.26	289.773
1860.52	294.598
1860.77	287.949
1861.02	295.664
1861.27	294.746
1861.52	288.052
1861.77	288.029
1862.02	293.717
1862.27	293.65
1862.52	289.754
1862.77	286.819
1863.03	291.533
1863.28	289.561
1863.53	294.284
1863.78	290.41
1864.03	288.45
1864.28	287.443
1864.53	292.154
1864.78	289.21
1865.03	290.075
1865.28	296.651
1865.53	292.718
1865.78	290.689
1866.04	284.846
1866.29	283.778
1866.54	288.416
1866.79	290.204
1867.04	288.195
1867.29	283.366
1867.54	285.231
1867.79	287.103
1868.04	286.138
1868.29	289.005
1868.54	299.479
1868.79	294.715
1869.04	290.896
1869.29	281.372
1869.54	286.11
1869.79	287.047
1870.05	296.537
1870.3	289.875
1870.55	287.969
1870.8	287.964
1871.05	289.838
1871.3	285.051
1871.55	284.05
1871.8	284.972
1872.05	290.64
1872.3	283.932
1872.55	284.827
1872.8	285.746
1873.05	286.687
1873.3	290.455
1873.55	281.868
1873.8	287.505
1874.05	287.439
1874.31	293.056
1874.56	288.239
1874.81	287.211
1875.05	286.179
1875.31	292.693
1875.56	284.958
1875.81	288.653
1876.06	285.731
1876.31	281.887
1876.56	286.56
1876.81	288.283
1877.06	287.132
1877.31	285.01
1877.56	289.27
1877.81	289.159
1878.06	288.625
1878.31	286.685
1878.56	289.561
1878.81	286.996
1879.06	286.113
1879.31	282.219
1879.56	283.099
1879.81	288.771
1880.06	287.825
1880.31	286.919
1880.56	288.75
1880.81	283.981
1881.06	291.419
1881.31	284.653
1881.56	291.124
1881.81	282.462
1882.06	281.345
1882.31	286.839
1882.56	286.727
1882.81	288.048
1883.06	292.934
1883.31	284.149
1883.56	283.645
1883.81	288.443
1884.06	283.808
1884.31	285.613
1884.56	288.567
1884.81	283.025
1885.06	283.064
1885.31	285.021
1885.56	290.805
1885.81	282.368
1886.06	283.335
1886.31	283.278
1886.56	286.009
1886.81	285.944
1887.06	287.764
1887.31	291.465
1887.56	281.959
1887.81	285.64
1888.06	285.53
1888.31	292.03
1888.56	286.284
1888.81	283.383
1889.06	282.411
1889.31	290.868
1889.56	282.396
1889.81	283.378
1890.06	283.45
1890.31	290.094
1890.56	281.629
1890.81	292.91
1891.06	284.419
1891.31	287.235
1891.56	284.39
1891.8	287.207
1892.05	283.419
1892.3	282.434
1892.55	283.308
1892.8	288.826
1893.05	288.667
1893.3	281.964
1893.55	283.877
1893.8	281.03
1894.05	286.586
1894.3	285.603
1894.55	284.653
1894.8	280.909
1895.05	285.632
1895.3	286.603
1895.55	283.819
1895.8	285.739
1896.05	291.432
1896.3	275.505
1896.55	280.252
1896.79	286.871
1897.04	283.132
1897.29	291.608
1897.54	282.196
1897.79	296.284
1898.04	284.959
1898.29	280.204
1898.54	284.836
1898.79	283.826
1899.04	284.723
1899.29	286.573
1899.54	279.955
1899.79	283.688
1900.04	278.986
1900.28	287.458
1900.53	288.432
1900.78	288.49
1901.03	286.668
1901.28	282.967
1901.53	284.904
1901.78	286.865
1902.03	290.671
1902.28	281.255
1902.53	288.756
1902.78	283.08
1903.03	280.229
1903.27	283.968
1903.52	283.952
1903.77	287.702
1904.02	285.814
1904.27	284.863
1904.52	283.907
1904.77	281.081
1905.02	289.537
1905.27	285.755
1905.52	284.701
1905.76	289.33
1906.01	278.962
1906.26	287.382
1906.51	287.356
1906.76	279.827
1907.01	283.599
1907.26	284.551
1907.51	281.79
1907.76	286.531
1908	285.61
1908.25	283.751
1908.5	288.485
1908.75	281.957
1909	282.959
1909.25	281.156
1909.5	290.651
1909.75	275.696
1909.99	290.855
1910.24	284.348
1910.49	286.292
1910.74	284.449
1910.99	286.358
1911.24	292.017
1911.49	285.42
1911.74	287.278
1911.98	289.149
1912.23	290.087
1912.48	288.205
1912.73	284.439
1912.98	281.63
1913.23	288.282
1913.48	288.376
1913.73	290.351
1913.97	284.753
1914.22	287.647
1914.47	287.709
1914.72	281.161
1914.97	292.52
1915.22	284.982
1915.47	283.082
1915.71	287.774
1915.96	282.105
1916.21	286.766
1916.46	286.708
1916.71	283.833
1916.96	287.565
1917.2	284.712
1917.45	280.928
1917.7	283.775
1917.95	282.882
1918.2	289.553
1918.45	286.805
1918.7	285.008
1918.94	293.598
1919.19	290.901
1919.44	288.156
1919.69	286.31
1919.94	279.699
1920.19	287.212
1920.43	280.649
1920.68	284.509
1920.93	286.474
1921.18	287.453
1921.43	295.065
1921.67	282.789
1921.92	287.513
1922.17	285.593
1922.42	295.945
1922.67	289.29
1922.92	286.431
1923.16	282.628
1923.41	287.327
1923.66	279.722
1923.91	283.45
1924.16	285.313
1924.41	285.309
1924.65	287.218
1924.9	284.429
1925.15	286.387
1925.4	286.483
1925.65	289.396
1925.89	290.419
1926.14	289.557
1926.39	286.809
1926.64	286.861
1926.89	285.01
1927.13	287.892
1927.38	282.246
1927.63	284.174
1927.88	286.099
1928.12	286.12
1928.37	284.268
1928.62	287.149
1928.87	279.617
1929.12	281.583
1929.36	293.055
1929.61	289.335
1929.86	292.273
1930.11	291.393
1930.36	290.518
1930.6	284.833
1930.85	285.787
1931.1	280.063
1931.35	285.721
1931.6	287.582
1931.84	288.492
1932.09	287.503
1932.34	285.565
1932.59	284.607
1932.83	284.572
1933.08	287.455
1933.33	284.709
1933.58	285.814
1933.83	288.869
1934.07	291.986
1934.32	288.423
1934.57	284.819
1934.82	289.753
1935.06	288.931
1935.31	287.074
1935.56	284.965
1935.81	289.731
1936.05	293.52
1936.3	287.761
1936.55	292.461
1936.8	290.486
1937.04	286.62
1937.29	292.274
1937.54	286.51
1937.79	283.606
1938.03	289.338
1938.28	295.153
1938.53	286.612
1938.78	288.565
1939.02	284.802
1939.27	283.889
1939.52	288.696
1939.77	286.81
1940.01	294.512
1940.26	282.213
1940.51	291.938
1940.76	289.16
1941	288.191
1941.25	285.278
1941.5	289.928
1941.75	284.081
1941.99	290.922
1942.24	294.056
1942.49	289.321
1942.74	284.533
1942.98	289.179
1943.23	288.101
1943.48	286.151
1943.72	286.332
1943.97	287.339
1944.22	284.538
1944.46	288.426
1944.71	285.633
1944.96	287.616
1945.21	286.731
1945.45	291.574
1945.7	285.89
1945.95	292.626
1946.2	285.005
1946.44	284.061
1946.69	296.485
1946.94	290.72
1947.18	287.828
1947.43	293.561
1947.68	286.867
1947.92	284.949
1948.17	286.846
1948.42	286.871
1948.67	285.97
1948.91	292.727
1949.16	291.836
1949.41	287.127
1949.65	285.3
1949.9	290.214
1950.15	296.092
1950.4	291.407
1950.64	294.401
1950.89	288.766
1951.13	289.832
1951.38	287.994
1951.63	290.929
1951.88	289.055
1952.12	289.089
1952.37	291.974
1952.62	292.035
1952.86	295.918
1953.11	287.183
1953.36	286.096
1953.6	286.878
1953.85	293.432
1954.1	289.45
1954.34	288.382
1954.59	286.434
1954.84	293.142
1955.08	290.315
1955.33	294.24
1955.58	290.554
1955.82	287.852
1956.07	284.098
1956.32	293.782
1956.56	290.958
1956.81	293.908
1957.06	287.245
1957.3	291.141
1957.55	287.338
1957.8	296.016
1958.04	292.193
1958.29	288.355
1958.54	288.325
1958.78	286.355
1959.03	288.253
1959.28	290.157
1959.52	287.231
1959.77	291.99
1960.02	289.064
1960.26	289.015
1960.51	295.682
1960.76	288.914
1961	288.873
1961.25	291.734
1961.5	289.827
1961.74	294.642
1961.99	287.937
1962.23	290.83
1962.48	295.643
1962.73	283.177
1962.97	291.828
1963.22	283.201
1963.47	287.062
1963.71	287.098
1963.96	291.923
1964.2	290.954
1964.45	286.139
1964.7	289.022
1964.94	290.936
1965.19	289.029
1965.44	288.105
1965.68	291.046
1965.93	286.31
1966.18	295.98
1966.42	282.57
1966.67	292.208
1966.91	292.203
1967.16	287.408
1967.41	286.472
1967.65	293.209
1967.9	290.342
1968.14	288.408
1968.39	285.494
1968.64	294.088
1968.88	286.325
1969.13	291.994
1969.37	297.665
1969.62	291.835
1969.87	290.818
1970.11	292.702
1970.36	296.485
1970.61	289.729
1970.85	291.618
1971.1	288.714
1971.34	290.612
1971.59	291.607
1971.84	287.796
1972.08	289.728
1972.33	286.843
1972.57	287.773
1972.82	291.557
1973.06	292.45
1973.31	284.732
1973.56	287.574
1973.8	290.429
1974.05	294.256
1974.29	292.344
1974.54	295.233
1974.78	283.759
1975.03	290.511
1975.28	286.722
1975.52	288.677
1975.77	288.707
1976.01	286.806
1976.26	282.979
1976.51	290.653
1976.75	292.562
1977	291.581
1977.24	292.505
1977.49	286.705
1977.73	287.618
1977.98	290.458
1978.22	292.346
1978.47	293.29
1978.72	288.503
1978.96	282.763
1979.21	288.514
1979.45	290.448
1979.7	287.575
1979.95	287.54
1980.19	287.485
1980.44	287.44
1980.68	287.422
1980.93	284.501
1981.17	289.266
1981.42	287.373
1981.66	284.559
1981.91	292.044
1982.16	287.326
1982.4	290.822
1982.65	287.034
1982.89	287.791
1983.14	292.077
1983.38	294.932
1983.63	288.345
1983.87	286.1
1984.12	288.103
1984.36	291.254
1984.61	289.562
1984.85	289.305
1985.1	286.536
1985.34	290.843
1985.59	290.736
1985.84	289.307
1986.08	286.921
1986.33	287.236
1986.57	293.339
1986.82	290.646
1987.06	287.013
1987.31	289.392
1987.55	287.802
1987.8	293.86
1988.04	290.569
1988.29	291.522
1988.53	285.586
1988.78	289.947
1989.02	287.083
1989.27	286.896
1989.51	284.036
1989.76	285.68
1990	285.227
1990.25	293.541
1990.49	286.931
1990.74	286.38
1990.98	285.525
1991.23	283.617
1991.47	290.304
1991.72	288.028
1991.96	290.5
1992.21	284.633
1992.45	288.682
1992.7	285.597
1992.94	288.212
1993.19	287.246
1993.43	287.591
1993.68	286.922
1993.92	287.159
1994.17	289.441
1994.41	284.878
1994.66	285.797
1994.9	289.155
1995.15	285.206
1995.39	287.78
1995.64	285.431
1995.88	290.607
1996.13	287.276
1996.37	284.639
1996.62	289.498
1996.86	290.006
1997.11	285.076
1997.35	285.744
1997.6	287.026
1997.84	284.227
1998.09	286.091
1998.33	286.971
1998.58	284.016
1998.82	288.729
1999.07	288.741
1999.31	286.066
1999.55	287.478
1999.8	286.967
2000.04	287.817
2000.29	286.034
2000.53	289.548
2000.78	286.149
2001.02	284.734
2001.27	287.792
2001.51	287.505
2001.76	283.798
2002	282.964
2002.25	283.238
2002.49	283.24
2002.73	284.146
2002.98	283.506
2003.22	285.567
2003.47	285.961
2003.71	286.348
2003.96	287.205
2004.2	287.506
2004.45	289.143
2004.69	286.08
2004.94	287.126
2005.1	290.16
2005.34	279.748
2005.59	286.35
2005.84	286.346
2006.08	283.519
2006.33	283.554
2006.58	284.509
2006.83	285.431
2007.08	283.503
2007.32	279.684
2007.57	284.342
2007.82	280.445
2008.06	291.673
2008.31	286.881
2008.56	289.643
2008.81	285.779
2009.05	286.629
2009.3	284.672
2009.55	285.545
2009.8	285.476
2010.04	282.574
2010.29	288.213
2010.54	278.786
2010.79	291.022
2011.03	282.541
2011.28	279.706
2011.53	287.225
2011.77	285.329
2012.02	292.842
2012.27	285.279
2012.52	280.509
2012.76	289.799
2013.01	284.971
2013.26	285.824
2013.51	278.195
2013.75	285.583
2014	287.301
2014.25	282.496
2014.49	281.534
2014.74	287.184
2014.99	280.659
2015.24	285.4
2015.48	286.371
2015.73	287.251
2015.98	278.021
2016.22	280.063
2016.47	281.967
2016.72	287.584
2016.96	282.837
2017.21	279.008
2017.46	281.736
2017.71	290.07
2017.95	284.32
2018.2	277.653
2018.45	284.112
2018.69	286.807
2018.94	283.896
2019.19	280.107
2019.43	282.873
2019.68	281.924
2019.93	281.918
2020.18	278.157
2020.42	281.894
2020.67	278.172
2020.92	283.807
2021.16	284.743
2021.41	281.917
2021.66	287.508
2021.9	281.846
2022.15	280.853
2022.4	297.628
2022.64	285.378
2022.89	280.645
2023.14	287.128
2023.38	283.325
2023.63	285.133
2023.88	280.405
2024.12	280.303
2024.37	287.679
2024.62	281.981
2024.86	282.825
2025.11	285.542
2025.36	282.664
2025.6	288.167
2025.85	277.961
2026.1	282.747
2026.34	282.939
2026.59	281.297
2026.84	284.337
2027.08	291.006
2027.33	282.517
2027.58	282.317
2027.82	282.89
2028.07	279.601
2028.32	281.354
2028.56	283.954
2028.81	280.746
2029.06	280.859
2029.3	282.268
2029.55	283.816
2029.79	277.963
2030.04	287.218
2030.29	280.552
2030.53	278.891
2030.78	285.545
2031.03	281.78
2031.27	278.982
2031.52	283.673
2031.77	279.092
2032.01	286.659
2032.26	286.765
2032.51	282.187
2032.75	278.518
2033	285.125
2033.24	284.282
2033.49	283.34
2033.74	285.064
2033.98	283.895
2034.23	274.306
2034.48	279.888
2034.72	286.531
2034.97	281.972
2035.21	285.892
2035.46	279.547
2035.71	281.551
2035.95	290.835
2036.2	284.167
2036.45	282.339
2036.69	287.063
2036.94	282.384
2037.18	285.173
2037.43	287.948
2037.68	282.303
2037.92	279.458
2038.17	280.348
2038.41	284.975
2038.66	282.127
2038.91	279.275
2039.15	288.567
2039.4	283.828
2039.64	280.013
2039.89	282.736
2040.14	278.931
2040.38	282.595
2040.63	283.471
2040.87	279.694
2041.12	278.746
2041.37	285.251
2041.61	281.48
2041.86	282.382
2042.1	281.381
2042.35	277.648
2042.6	280.44
2042.84	281.406
2043.09	285.222
2043.33	283.48
2043.58	280.799
2043.83	285.492
2044.07	286.404
2044.32	283.526
2044.56	282.454
2044.81	281.243
2045.05	277.074
2045.3	280.797
2045.55	287.84
2045.79	277.061
2046.04	285.107
2046.28	284.848
2046.53	279.989
2046.77	284.691
2047.02	282.713
2047.26	280.62
2047.51	284.314
2047.76	282.467
2048	281.55
2048.25	282.504
2048.49	281.631
2048.74	287.278
2048.98	276.148
2049.23	282.766
2049.48	276.338
2049.72	283.883
2049.97	281.161
2050.21	288.674
2050.46	282.145
2050.7	279.318
2050.95	285.794
2051.2	281.984
2051.44	286.655
2051.69	282.933
2051.93	279.238
2052.18	281.123
2052.42	282.094
2052.67	281.209
2052.91	290.614
2053.16	285.095
2053.4	282.413
2053.65	282.466
2053.89	278.758
2054.14	280.637
2054.39	285.307
2054.63	285.293
2054.88	279.652
2055.12	282.396
2055.37	282.368
2055.61	284.223
2055.86	287.935
2056.1	282.297
2056.35	286.021
2056.59	279.48
2056.84	287.909
2057.08	281.391
2057.33	290.779
2057.57	278.667
2057.82	284.329
2058.07	279.723
2058.31	280.724
2058.56	280.783
2058.8	278.015
2059.04	281.777
2059.29	282.732
2059.54	281.793
2059.78	290.183
2060.03	283.584
2060.27	280.761
2060.52	281.734
2060.76	283.648
2061.01	283.675
2061.25	279.942
2061.5	278.077
2061.74	283.708
2061.99	285.604
2062.23	284.701
2062.48	286.619
2062.72	282.926
2062.97	283.91
2063.21	283.012
2063.46	283.043
2063.7	277.445
2063.95	282.156
2064.19	291.569
2064.44	286.925
2064.68	278.561
2064.93	279.585
2065.17	283.417
2065.42	285.365
2065.66	286.36
2065.91	281.703
2066.15	286.407
2066.39	283.63
2066.64	281.781
2066.88	287.445
2067.13	284.668
2067.37	279.08
2067.62	284.757
2067.86	287.608
2068.11	287.624
2068.35	290.497
2068.6	284.848
2068.84	281.043
2069.09	278.137
2069.33	278.009
2069.58	280.798
2069.82	284.591
2070.07	293.187
2070.31	279.235
2070.56	285.029
2070.8	282.153
2071.04	285.827
2071.29	285.302
2071.53	285.358
2071.78	284.386
2072.02	285.31
2072.27	276.829
2072.51	288.101
2072.76	281.516
2073	285.264
2073.25	285.283
2073.49	283.41
2073.73	282.488
2073.98	285.349
2074.22	286.351
2074.47	283.607
2074.71	291.252
2074.96	282.903
2075.2	287.769
2075.45	285.035
2075.69	283.195
2075.94	284.147
2076.18	282.267
2076.42	285.064
2076.67	284.061
2076.91	288.702
2077.16	287.641
2077.4	286.676
2077.65	283.888
2077.89	281.115
2078.13	283.028
2078.38	283.057
2078.62	286.878
2078.87	286.017
2079.11	290.863
2079.35	283.366
2079.6	287.196
2079.84	281.574
2080.09	292.003
2080.33	283.497
2080.58	287.249
2080.82	291.011
2081.06	286.281
2081.31	285.331
2081.55	282.493
2081.8	283.461
2082.04	282.539
2082.29	289.17
2082.53	284.45
2082.77	280.665
2083.02	283.489
2083.26	287.26
2083.51	290.098
2083.75	282.541
2083.99	284.43
2084.24	289.162
2084.48	281.611
2084.73	287.283
2084.97	284.45
2085.21	286.341
2085.46	289.207
2085.7	283.616
2085.95	290.329
2086.19	290.39
2086.43	287.582
2086.68	280.052
2086.92	289.565
2087.17	282.016
2087.41	286.752
2087.65	285.811
2087.9	288.66
2088.14	286.782
2088.39	282.067
2088.63	285.868
2088.87	285.92
2089.12	290.703
2089.36	284.158
2089.6	287.018
2089.85	288.93
2090.09	283.269
2090.33	289.93
2090.58	289.964
2090.82	288.102
2091.07	290.03
2091.31	287.271
2091.55	287.357
2091.8	289.351
2092.04	287.548
2092.28	285.752
2092.53	289.627
2092.77	283.053
2093.02	285.029
2093.26	281.298
2093.5	287.06
2093.75	289.014
2093.99	282.374
2094.23	282.372
2094.48	283.309
2094.72	288.99
2094.96	286.089
2095.21	286.989
2095.45	293.6
2095.7	286.918
2095.94	282.149
2096.18	289.739
2096.43	289.724
2096.67	285.884
2096.91	289.625
2097.16	286.724
2097.4	290.499
2097.64	290.485
2097.89	289.518
2098.13	288.533
2098.37	287.585
2098.62	287.577
2098.86	291.357
2099.1	292.295
2099.35	286.598
2099.59	286.602
2099.83	291.358
2100.08	290.427
2100.32	287.617
2100.56	292.435
2100.81	284.894
2101.05	287.779
2101.29	286.846
2101.54	293.494
2101.78	284.941
2102.02	285.892
2102.27	287.772
2102.51	289.621
2102.75	291.463
2103	286.69
2103.24	286.68
2103.48	287.617
2103.73	291.422
2103.97	287.655
2104.21	288.651
2104.46	284.896
2104.7	284.938
2104.94	284.992
2105.18	282.209
2105.43	291.764
2105.67	287.996
2105.91	288.025
2106.16	286.138
2106.4	288.055
2106.64	289.035
2106.89	285.236
2107.13	284.251
2107.37	286.095
2107.61	284.119
2107.86	287.841
2108.1	289.662
2108.34	284.858
2108.59	287.688
2108.83	285.807
2109.07	290.642
2109.32	284.039
2109.56	286.893
2109.8	284.995
2110.04	288.794
2110.29	286.895
2110.53	290.697
2110.77	287.844
2111.01	286.872
2111.26	288.73
2111.5	289.654
2111.74	281.091
2111.99	288.691
2112.23	288.724
2112.47	284.954
2112.71	284.992
2112.96	289.82
2113.2	294.629
2113.44	294.656
2113.69	287.979
2113.93	283.204
2114.17	285.102
2114.41	292.721
2114.66	286.075
2114.9	286.057
2115.14	288.883
2115.38	295.513
2115.63	287.888
2115.87	282.125
2116.11	286.822
2116.35	285.849
2116.6	287.735
2116.84	287.724
2117.08	283.942
2117.32	281.058
2117.57	289.558
2117.81	293.307
2118.05	278.991
2118.29	292.189
2118.54	288.331
2118.78	293.012
2119.02	291.054
2119.26	288.151
2119.51	286.204
2119.75	282.374
2119.99	292.785
2120.23	288.061
2120.48	290.007
2120.72	290.036
2120.96	295.794
2121.2	292.074
2121.45	283.604
2121.69	282.715
2121.93	289.411
2122.17	286.609
2122.42	287.598
2122.66	291.428
2122.9	294.3
2123.14	288.613
2123.38	283.843
2123.63	295.2
2123.87	287.555
2124.11	285.578
2124.35	285.462
2124.6	296.701
2124.84	283.307
2125.08	285.104
2125.32	296.38
2125.57	293.454
2125.81	284.862
2126.05	292.371
2126.29	286.633
2126.53	289.408
2126.78	286.514
2127.02	289.327
2127.26	287.423
2127.5	283.622
2127.74	289.264
2127.99	282.632
2128.23	287.361
2128.47	281.691
2128.71	287.349
2128.95	288.272
2129.2	287.309
2129.44	289.186
2129.68	283.503
2129.92	288.21
2130.16	285.353
2130.41	285.325
2130.65	287.179
2130.89	281.469
2131.13	289.924
2131.37	286.108
2131.62	283.249
2131.86	290.767
2132.1	287.876
2132.34	288.769
2132.58	283.083
2132.82	287.8
2133.07	284.982
2133.31	282.162
2133.55	287.827
2133.79	284.069
2134.03	284.075
2134.28	288.787
2134.52	285.004
2134.76	283.109
2135	288.756
2135.24	287.782
2135.48	285.844
2135.73	286.694
2135.97	291.326
2136.21	288.46
2136.45	288.478
2136.69	295.087
2136.94	286.61
2137.18	284.759
2137.42	284.825
2137.66	285.733
2137.9	285.65
2138.14	285.593
2138.39	289.432
2138.63	293.299
2138.87	283.932
2139.11	289.42
2139.35	280.843
2139.59	285.507
2139.83	283.58
2140.08	292.023
2140.32	291.05
2140.56	288.203
2140.8	284.412
2141.04	288.188
2141.28	290.945
2141.53	289.94
2141.77	287.096
2142.01	282.392
2142.25	281.513
2142.49	290.03
2142.73	285.581
2142.97	288.248
2143.21	294.982
2143.46	281.913
2143.7	284.775
2143.94	287.704
2144.18	284.041
2144.42	286.918
2144.66	284.85
2144.9	285.836
2145.15	285.846
2145.39	288.649
2145.63	286.744
2145.87	289.54
2146.11	281.997
2146.35	290.434
2146.59	284.766
2146.83	288.483
2147.08	288.445
2147.32	282.773
2147.56	293.077
2147.8	281.772
2148.04	282.678
2148.28	289.213
2148.52	288.229
2148.76	283.475
2149.01	289.033
2149.25	285.164
2149.49	287.911
2149.73	284.083
2149.97	283.09
2150.21	284.001
2150.45	277.437
2150.69	282.151
2150.93	283.135
2151.18	281.291
2151.42	286.96
2151.66	283.233
2151.9	285.142
2152.14	282.287
2152.38	281.308
2152.62	287.819
2152.86	286.836
2153.1	285.875
2153.34	284.909
2153.59	283.922
2153.83	281.977
2154.07	282.813
2154.31	282.694
2154.55	278.835
2154.79	285.259
2155.03	288.908
2155.27	281.344
2155.51	281.273
2155.75	283.09
2155.99	287.733
2156.23	286.787
2156.47	283.978
2156.72	283.047
2156.96	284.939
2157.2	290.587
2157.44	285.035
2157.68	279.471
2157.92	287.895
2158.16	287.893
2158.4	286.945
2158.64	281.311
2158.88	290.62
2159.12	282.163
2159.36	281.171
2159.6	285.77
2159.84	283.831
2160.09	287.502
2160.33	286.514
2160.57	291.15
2160.81	285.536
2161.05	284.575
2161.29	291.08
2161.53	291.071
2161.77	284.54
2162.01	288.273
2162.25	280.805
2162.49	285.442
2162.73	286.338
2162.97	282.576
2163.21	283.48
2163.45	292.773
2163.69	277.821
2163.93	280.554
2164.17	284.209
2164.41	279.506
2164.66	289.773
2164.9	279.549
2165.14	281.417
2165.38	283.286
2165.62	288.88
2165.86	283.253
2166.1	289.745
2166.34	279.454
2166.58	281.26
2166.82	289.6
2167.06	285.806
2167.3	282.927
2167.54	285.575
2167.78	280.799
2168.02	285.41
2168.26	286.335
2168.5	287.283
2168.74	279.886
2168.98	288.316
2169.22	280.957
2169.46	282.919
2169.7	283.031
2169.94	283.093
2170.18	281.254
2170.42	285.888
2170.66	284.899
2170.9	280.219
2171.14	286.613
2171.38	284.549
2171.62	278.871
2171.86	279.749
2172.1	280.63
2172.34	282.452
2172.58	288.019
2172.82	282.441
2173.06	287.084
2173.3	294.54
2173.54	277.851
2173.78	284.383
2174.02	282.538
2174.26	279.753
2174.5	280.681
2174.74	281.605
2174.98	286.234
2175.22	293.65
2175.46	287.135
2175.7	279.687
2175.94	284.308
2176.18	291.697
2176.42	274.959
2176.66	285.179
2176.9	284.258
2177.14	285.192
2177.38	281.472
2177.62	284.269
2177.86	277.736
2178.1	286.948
2178.34	283.18
2178.58	283.174
2178.82	283.187
2179.06	284.121
2179.3	285.052
2179.54	285.981
2179.78	284.122
2180.02	284.113
2180.26	288.737
2180.5	285.007
2180.74	283.142
2180.98	283.124
2181.22	282.162
2181.46	287.7
2181.7	284.9
2181.94	280.224
2182.18	284.837
2182.42	288.52
2182.66	285.68
2182.9	282.832
2183.14	279.043
2183.38	279.911
2183.62	280.793
2183.85	284.461
2184.09	290.008
2184.33	281.681
2184.57	285.416
2184.81	289.145
2185.05	280.828
2185.29	282.718
2185.53	281.841
2185.77	280.037
2186.01	285.655
2186.25	285.738
2186.49	286.754
2186.73	284.056
2186.97	284.139
2187.21	286.987
2187.45	287.93
2187.69	288.827
2187.93	294.349
2188.16	285.936
2188.41	282.161
2188.64	286.733
2188.88	288.509
2189.12	282.849
2189.36	279.064
2189.6	286.444
2189.84	280.873
2190.08	281.807
2190.32	286.47
2190.56	284.638
2190.8	280.004
2191.04	286.512
2191.28	281.901
2191.51	286.564
2191.76	286.591
2191.99	282.905
2192.23	277.367
2192.47	285.766
2192.71	285.816
2192.95	279.368
2193.19	298.929
2193.43	284.203
2193.67	281.553
2193.91	280.715
2194.15	278.906
2194.39	285.395
2194.62	282.575
2194.86	276.04
2195.1	288.078
2195.34	277.796
2195.58	282.36
2195.82	284.118
2196.06	284.027
2196.3	278.391
2196.54	286.688
2196.77	285.713
2197.01	287.526
2197.25	280.111
2197.49	286.612
2197.73	282.008
2197.97	275.583
2198.21	285.863
2198.45	280.381
2198.69	284.195
2198.93	300.073
2199.17	289.952
2199.4	279.824
2199.64	274.383
2199.88	282.908
2200.12	283.972
2200.36	282.227
2200.6	284.175
2200.84	289.838
2201.08	286.915
2201.31	281.961
2201.55	281.346
2201.79	283.734
2202.03	283.013
2202.27	284.439
2202.51	286.512
2202.75	287.363
2202.98	292.882
2203.22	282.012
2203.46	286.615
2203.7	287.203
2203.94	281.594
2204.18	283.498
2204.42	282.37
2204.66	283.049
2204.89	280.964
2205.13	290.109
2205.37	282.63
2205.61	285.428
2205.85	283.636
2206.09	286.43
2206.33	285.399
2206.56	286.349
2206.8	291.042
2207.04	284.588
2207.28	285.579
2207.52	283.782
2207.76	283.844
2208	283.904
2208.23	294.198
2208.47	283.068
2208.71	288.686
2208.95	281.255
2209.19	287.777
2209.43	288.701
2209.67	287.783
2209.9	285.958
2210.14	280.412
2210.38	280.459
2210.62	284.233
2210.86	280.55
2211.09	282.464
2211.33	279.73
2211.57	287.253
2211.81	280.768
2212.05	289.185
2212.29	288.234
2212.52	285.407
2212.76	283.516
2213	289.065
2213.24	279.694
2213.48	283.441
2213.72	281.635
2213.95	280.823
2214.19	297.731
2214.43	284.696
2214.67	286.59
2214.91	281.942
2215.15	281.956
2215.38	285.699
2215.62	282.901
2215.86	284.766
2216.1	280.091
2216.34	281.947
2216.57	288.472
2216.81	281.005
2217.05	286.619
2217.29	280.098
2217.53	285.7
2217.76	279.162
2218	283.845
2218.24	286.677
2218.48	285.785
2218.72	286.772
2218.95	281.221
2219.19	294.336
2219.43	284.095
2219.67	283.19
2219.91	283.184
2220.14	290.65
2220.38	289.706
2220.62	292.481
2220.86	282.135
2221.09	287.664
2221.33	286.668
2221.57	293.15
2221.81	289.381
2222.05	282.84
2222.29	285.663
2222.52	285.706
2222.76	281.081
2223	288.603
2223.24	287.74
2223.47	281.285
2223.71	291.657
2223.95	286.132
2224.19	287.141
2224.43	290.013
2224.66	283.528
2224.9	287.345
2225.14	282.748
2225.38	280.94
2225.61	281.938
2225.85	282.001
2226.09	284.858
2226.33	289.607
2226.56	284.041
2226.8	279.401
2227.04	291.626
2227.28	288.834
2227.51	284.14
2227.75	285.995
2227.99	278.474
2228.23	290.645
2228.47	297.194
2228.7	287.805
2228.94	294.368
2229.18	285.981
2229.42	286.997
2229.65	294.574
2229.89	291.814
2230.13	293.749
2230.36	287.24
2230.6	287.304
2230.84	291.13
2231.08	282.749
2231.31	287.503
2231.55	279.105
2231.79	287.622
2232.03	286.74
2232.27	286.796
2232.5	286.852
2232.74	289.728
2232.98	288.842
2233.21	287.958
2233.45	293.648
2233.69	283.329
2233.93	287.08
2234.16	282.352
2234.4	287.966
2234.64	289.798
2234.87	284.052
2235.11	285.862
2235.35	286.81
2235.59	283.062
2235.82	284.961
2236.06	291.562
2236.3	284.992
2236.54	285.009
2236.77	289.783
2237.01	287.964
2237.25	287.136
2237.48	291.027
2237.72	285.487
2237.96	287.453
2238.2	281.875
2238.43	283.849
2238.67	289.616
2238.91	290.581
2239.14	285.841
2239.38	297.122
2239.62	285.724
2239.85	284.714
2240.09	279.969
2240.33	288.576
2240.57	287.747
2240.8	290.598
2241.04	289.675
2241.28	289.7
2241.51	289.72
2241.75	290.691
2241.99	288.838
2242.22	286.988
2242.46	289.828
2242.7	288.875
2242.94	290.726
2243.17	288.796
2243.41	289.719
2243.65	288.768
2243.88	290.667
2244.12	286.938
2244.36	288.913
2244.59	286.199
2244.83	286.306
2245.07	296.773
2245.3	291.162
2245.54	292.171
2245.78	287.505
2246.01	290.394
2246.25	287.587
2246.49	293.31
2246.72	289.571
2246.96	292.442
2247.2	288.672
2247.43	288.67
2247.67	283.925
2247.91	290.534
2248.14	284.839
2248.38	291.449
2248.62	286.704
2248.85	288.586
2249.09	295.262
2249.33	292.461
2249.56	290.568
2249.8	285.801
2250.04	290.479
2250.27	291.366
2250.51	293.189
2250.75	291.246
2250.98	289.314
2251.22	286.463
2251.46	297.821
2251.69	286.509
2251.93	290.338
2252.17	284.723
2252.4	284.817
2252.64	287.812
2252.88	290.768
2253.11	291.804
2253.35	286.191
2253.59	289.09
2253.82	291.992
2254.06	282.553
2254.29	288.25
2254.53	288.224
2254.77	291.083
2255	286.347
2255.24	289.204
2255.48	287.322
2255.71	292.114
2255.95	288.377
2256.19	287.481
2256.42	289.428
2256.66	287.581
2256.9	293.326
2257.13	294.323
2257.37	288.661
2257.6	285.831
2257.84	288.694
2258.08	289.665
2258.31	292.545
2258.55	291.638
2258.78	289.784
2259.02	289.815
2259.26	289.841
2259.49	285.125
2259.73	287.058
2259.97	287.089
2260.2	287.118
2260.44	299.525
2260.67	289.159
2260.91	292.078
2261.15	287.338
2261.38	295.921
2261.62	290.239
2261.85	291.217
2262.09	291.261
2262.33	297.036
2262.56	297.105
2262.8	286.708
2263.03	288.704
2263.27	292.621
2263.51	288.925
2263.74	289.991
2263.98	294.866
2264.21	293.046
2264.45	288.346
2264.69	289.363
2264.92	291.328
2265.16	294.207
2265.39	296.131
2265.63	292.29
2265.86	293.184
2266.1	292.161
2266.34	291.137
2266.57	291.073
2266.81	289.118
2267.05	288.122
2267.28	287.125
2267.52	288.016
2267.75	293.69
2267.99	288.905
2268.22	292.729
2268.46	285.142
2268.7	295.697
2268.93	291.007
2269.17	286.321
2269.4	292.137
2269.64	295.107
2269.87	288.516
2270.11	289.531
2270.35	292.436
2270.58	292.502
2270.82	297.338
2271.05	290.685
2271.29	290.728
2271.52	289.83
2271.76	292.733
2271.99	289.871
2272.23	293.714
2272.47	286.077
2272.7	292.794
2272.94	292.812
2273.17	300.486
2273.41	291.891
2273.64	293.823
2273.88	288.096
2274.12	294.813
2274.35	293.875
2274.58	295.812
2274.82	290.087
2275.06	290.109
2275.29	292.015
2275.53	291.102
2275.76	293.089
2276	298.913
2276.23	289.4
2276.47	297.128
2276.7	289.527
2276.94	295.378
2277.17	291.654
2277.41	294.65
2277.65	297.664
2277.88	292.91
2278.12	290.054
2278.35	297.744
2278.59	294.854
2278.82	289.076
2279.06	293.831
2279.29	288.898
2279.53	291.693
2279.76	292.575
2280	286.753
2280.23	295.328
2280.47	286.657
2280.71	289.507
2280.94	289.472
2281.17	293.276
2281.41	289.477
2281.65	291.417
2281.88	292.419
2282.11	289.602
2282.35	291.591
2282.59	290.701
2282.82	300.382
2283.06	294.742
2283.29	294.884
2283.53	292.127
2283.76	294.194
2284	295.24
2284.23	285.657
2284.47	295.345
2284.7	295.418
2284.94	298.33
2285.17	294.495
2285.41	288.664
2285.64	294.321
2285.88	290.464
2286.11	299.145
2286.35	299.191
2286.58	292.597
2286.82	294.644
2287.05	293.73
2287.29	293.76
2287.52	291.922
2287.76	298.648
2287.99	291.862
2288.23	294.709
2288.46	302.363
2288.69	297.461
2288.93	294.462
2289.17	292.442
2289.4	304.816
2289.63	291.314
2289.87	293.206
2290.1	295.132
2290.34	292.254
2290.57	294.221
2290.81	294.299
2291.04	290.554
2291.28	290.624
2291.51	294.527
2291.75	290.73
2291.98	297.527
2292.22	296.637
2292.45	297.67
2292.69	297.726
2292.92	297.773
2293.15	296.845
2293.39	292.049
2293.62	299.74
2293.86	294.888
2294.09	301.59
2294.33	292.863
2294.56	299.565
2294.8	292.783
2295.03	292.743
2295.27	289.815
2295.5	287.857
2295.73	293.573
2295.97	296.332
2296.2	292.466
2296.44	294.416
2296.67	294.459
2296.91	296.44
2297.14	293.621
2297.38	291.778
2297.61	293.81
2297.85	290.025
2298.08	292.959
2298.31	299.765
2298.55	289.24
2298.78	293.164
2299.02	286.467
2299.25	298.077
2299.49	300.002
2299.72	292.291
2299.95	288.423
2300.19	294.246
2300.42	290.44
2300.66	296.27
2300.89	295.342
2301.13	291.504
2301.36	295.375
2301.59	289.577
2301.83	296.31
2302.06	292.428
2302.3	294.368
2302.53	293.399
2302.77	287.593
2303	290.485
2303.23	289.526
2303.47	299.206
2303.7	289.606
2303.94	290.621
2304.17	293.553
2304.4	296.493
2304.64	295.587
2304.87	295.625
2305.11	293.709
2305.34	289.87
2305.58	292.807
2305.81	289.949
2306.04	294.796
2306.28	297.705
2306.51	296.736
2306.75	294.796
2306.98	302.505
2307.21	292.803
2307.45	294.715
2307.68	296.624
2307.92	291.766
2308.15	295.632
2308.38	295.644
2308.62	291.825
2308.85	293.81
2309.09	294.85
2309.32	297.848
2309.55	295.016
2309.79	295.048
2310.02	296.027
2310.26	299.892
2310.49	292.125
2310.72	296.898
2310.96	295.774
2311.19	293.64
2311.42	291.606
2311.66	293.458
2311.89	293.418
2312.13	288.542
2312.36	294.293
2312.59	299.111
2312.83	296.251
2313.06	292.476
2313.29	299.356
2313.53	296.55
2313.76	299.538
2314	291.9
2314.23	291.042
2314.46	292.116
2314.7	291.202
2314.93	292.106
2315.16	297.832
2315.4	290.038
2315.63	291.896
2315.87	294.643
2316.1	302.275
2316.33	296.439
2316.57	291.603
2316.8	296.447
2317.03	290.672
2317.27	292.677
2317.5	293.702
2317.73	293.618
2317.97	293.561
2318.2	287.731
2318.43	293.48
2318.67	286.675
2318.9	288.564
2319.13	287.567
2319.37	286.582
2319.6	297.196
2319.84	298.171
2320.07	295.277
2320.3	296.268
2320.54	294.384
2320.77	297.33
2321	304.146
2321.23	293.591
2321.47	299.471
2321.7	292.802
2321.94	301.582
2322.17	295.819
2322.4	302.578
2322.64	302.589
2322.87	291.012
2323.1	291.032
2323.33	292.987
2323.57	299.768
2323.8	295.891
2324.03	299.746
2324.27	295.814
2324.5	298.622
2324.73	308.178
2324.97	291.683
2325.2	309.008
2325.43	305.086
2325.67	300.198
2325.9	294.344
2326.13	303.929
2326.37	306.758
2326.6	305.728
2326.83	316.266
2327.07	313.325
2327.3	328.698
2327.53	336.369
2327.77	365.296
2328	372.051
2328.23	413.508
2328.46	439.458
2328.7	400.829
2328.93	374.719
2329.16	357.338
2329.4	331.319
2329.63	312.092
2329.86	302.449
2330.09	307.239
2330.33	304.323
2330.56	302.385
2330.79	298.551
2331.03	293.779
2331.26	295.756
2331.49	294.863
2331.73	300.583
2331.96	294.737
2332.19	293.732
2332.42	296.581
2332.66	292.691
2332.89	294.58
2333.12	292.623
2333.36	298.37
2333.59	288.708
2333.82	296.359
2334.05	292.438
2334.29	295.275
2334.52	289.474
2334.75	295.233
2334.99	291.372
2335.22	297.151
2335.45	296.211
2335.68	294.283
2335.92	298.102
2336.15	290.389
2336.38	292.3
2336.61	299.982
2336.85	292.277
2337.08	296.111
2337.31	290.32
2337.54	296.068
2337.78	290.287
2338.01	289.313
2338.24	289.305
2338.47	293.159
2338.71	296.052
2338.94	292.209
2339.17	287.396
2339.41	287.375
2339.64	295.991
2339.87	293.06
2340.1	289.168
2340.34	288.146
2340.57	293.829
2340.8	298.535
2341.03	287.869
2341.27	304.09
2341.5	291.564
2341.73	292.451
2341.96	289.569
2342.2	292.32
2342.43	289.42
2342.66	287.599
2342.89	289.448
2343.13	291.267
2343.36	294.065
2343.59	294.333
2343.82	293.184
2344.05	292.417
2344.29	297.844
2344.52	292.242
2344.75	292.769
2344.98	292.804
2345.22	287.922
2345.45	288.027
2345.68	294.986
2345.91	292.125
2346.14	290.636
2346.38	288.137
2346.61	286.147
2346.84	296.92
2347.07	297.68
2347.31	292.4
2347.54	287.354
2347.77	289.465
2348	291.544
2348.23	295.854
2348.47	288.565
2348.7	292.219
2348.93	290.959
2349.16	290.983
2349.39	290.916
2349.63	285.234
2349.86	287.144
2350.09	289.567
2350.32	288.608
2350.56	290.199
2350.79	288.824
2351.02	291.18
2351.25	289.318
2351.48	291.473
2351.72	286.093
2351.95	294.622
2352.18	294.556
2352.41	290.746
2352.64	290.428
2352.88	293.017
2353.11	287.957
2353.34	296.463
2353.57	296.078
2353.8	289.718
2354.03	285.538
2354.27	291.413
2354.5	286.597
2354.73	292.279
2354.96	286.028
2355.19	288.968
2355.43	287.355
2355.66	291.987
2355.89	290.402
2356.12	293.052
2356.35	284.553
2356.59	286.468
2356.82	286.361
2357.05	290.873
2357.28	288.93
2357.51	289.208
2357.74	288.565
2357.98	292.841
2358.21	287.082
2358.44	284.864
2358.67	284.726
2358.9	287.546
2359.13	286.424
2359.37	287.131
2359.6	283.953
2359.83	288.257
2360.06	290.341
2360.29	285.805
2360.52	286.649
2360.75	287.337
2360.99	284.101
2361.22	289.755
2361.45	287.681
2361.68	285.309
2361.91	287.657
2362.14	289.62
2362.38	286.817
2362.61	285.016
2362.84	282.59
2363.07	284.142
2363.3	284.127
2363.53	283.654
2363.77	285.441
2364	286.172
2364.23	287.769
2364.46	284.989
2364.69	284.102
2364.92	289.757
2365.15	289.646
2365.27	287.132
2365.51	286.957
2365.74	281.207
2365.98	284.958
2366.21	284.946
2366.45	295.402
2366.68	281.396
2366.92	290.086
2367.15	289.171
2367.38	286.312
2367.62	285.35
2367.85	287.152
2368.09	288.039
2368.32	287.051
2368.56	287.949
2368.79	286.953
2369.02	285.949
2369.26	283.999
2369.49	285.816
2369.73	289.515
2369.96	283.785
2370.2	280.896
2370.43	290.272
2370.66	283.616
2370.9	288.277
2371.13	293.892
2371.37	285.386
2371.6	283.471
2371.83	290.947
2372.07	284.313
2372.3	285.205
2372.54	280.458
2372.77	286.08
2373	285.125
2373.24	283.225
2373.47	283.174
2373.71	286.871
2373.94	284.938
2374.17	282.07
2374.41	290.482
2374.64	281.028
2374.88	284.726
2375.11	282.794
2375.34	286.522
2375.58	280.865
2375.81	288.36
2376.05	284.573
2376.28	284.518
2376.51	291.045
2376.75	286.324
2376.98	281.608
2377.22	286.269
2377.45	284.341
2377.68	277.716
2377.92	282.362
2378.15	281.368
2378.39	286
2378.62	282.188
2378.85	285.859
2379.09	279.199
2379.32	286.602
2379.56	280.926
2379.79	286.513
2380.02	288.362
2380.26	283.658
2380.49	293.937
2380.72	281.756
2380.96	280.816
2381.19	281.758
2381.42	286.451
2381.66	287.377
2381.89	284.549
2382.13	286.413
2382.36	282.652
2382.59	286.369
2382.83	285.415
2383.06	278.855
2383.29	288.202
2383.53	279.772
2383.76	289.128
2384	281.645
2384.23	283.502
2384.46	286.291
2384.7	288.141
2384.93	282.48
2385.16	277.76
2385.4	281.442
2385.63	286.036
2385.86	281.288
2386.1	281.226
2386.33	284.866
2386.56	286.646
2386.8	282.832
2387.03	285.528
2387.26	279.863
2387.5	284.515
2387.73	281.723
2387.97	277.06
2388.2	277.985
2388.43	283.563
2388.67	283.536
2388.9	288.166
2389.13	285.369
2389.36	283.488
2389.6	285.34
2389.83	282.539
2390.06	279.742
2390.3	279.753
2390.53	284.434
2390.77	287.253
2391	281.669
2391.23	277.946
2391.47	287.262
2391.7	284.444
2391.93	279.756
2392.16	280.661
2392.4	281.545
2392.63	279.582
2392.86	278.544
2393.1	277.513
2393.33	284.84
2393.56	280.122
2393.8	281.93
2394.03	287.496
2394.26	286.478
2394.5	284.544
2394.73	285.512
2394.96	279.054
2395.2	281.026
2395.43	285.396
2395.66	284.405
2395.9	286.27
2396.13	281.847
2396.36	289.419
2396.59	284.505
2396.83	282.604
2397.06	287.249
2397.29	281.655
2397.53	277.932
2397.76	285.394
2397.99	280.717
2398.23	284.438
2398.46	284.436
2398.69	286.297
2398.92	284.429
2399.16	283.51
2399.39	276.986
2399.62	282.585
2399.86	282.582
2400.09	281.64
2400.32	284.422
2400.56	286.262
2400.79	285.303
2401.02	280.62
2401.25	281.532
2401.49	284.309
2401.72	285.215
2401.95	284.241
2402.18	277.652
2402.42	281.284
2402.65	286.742
2402.88	281.946
2403.12	278.021
2403.35	285.097
2403.58	279.498
2403.81	282.065
2404.05	285.093
2404.28	285.975
2404.51	286.908
2404.74	279.626
2404.98	279.694
2405.21	284.335
2405.44	278.758
2405.68	285.294
2405.91	284.382
2406.14	280.678
2406.37	290.957
2406.61	286.299
2406.84	290.961
2407.07	282.564
2407.3	283.492
2407.54	287.216
2407.77	283.479
2408	278.811
2408.23	286.268
2408.47	283.464
2408.7	289.042
2408.93	286.219
2409.16	284.335
2409.4	284.344
2409.63	284.362
2409.86	278.774
2410.09	282.502
2410.33	280.635
2410.56	285.307
2410.79	282.526
2411.02	285.32
2411.26	283.449
2411.49	280.673
2411.72	287.251
2411.95	283.565
2412.19	282.661
2412.42	284.548
2412.65	280.86
2412.88	289.287
2413.11	288.364
2413.35	289.295
2413.58	281.807
2413.81	289.259
2414.04	278.995
2414.28	281.783
2414.51	285.482
2414.74	280.764
2414.97	282.585
2415.21	286.279
2415.44	285.315
2415.67	284.331
2415.9	275.902
2416.13	280.55
2416.37	278.697
2416.6	282.455
2416.83	288.098
2417.06	283.484
2417.29	287.297
2417.53	281.725
2417.76	282.671
2417.99	281.797
2418.22	283.706
2418.45	281.944
2418.69	283.914
2418.92	283.99
2419.15	284.052
2419.38	284.101
2419.61	281.341
2419.85	281.368
2420.08	291.649
2420.31	287.919
2420.54	286.075
2420.78	284.266
2421.01	287.109
2421.24	282.275
2421.47	278.386
2421.7	283.952
2421.94	280.211
2422.17	286.773
2422.4	280.289
2422.63	280.379
2422.86	281.438
2423.09	285.344
2423.33	285.487
2423.56	284.5
2423.79	283.423
2424.02	285.383
2424.25	288.246
2424.48	277.076
2424.72	283.692
2424.95	281.881
2425.18	283.814
2425.41	285.747
2425.64	281.116
2425.88	283.041
2426.11	280.283
2426.34	280.341
2426.57	284.136
2426.8	284.166
2427.03	286.072
2427.27	284.225
2427.5	282.371
2427.73	282.375
2427.96	287.989
2428.19	290.775
2428.43	287.93
2428.66	282.291
2428.89	280.409
2429.12	283.21
2429.35	285.076
2429.58	282.26
2429.81	286.945
2430.05	281.315
2430.28	280.375
2430.51	283.209
2430.74	287.906
2430.97	283.25
2431.2	298.313
2431.44	275.885
2431.67	281.614
2431.9	287.338
2432.13	280.85
2432.36	292.2
2432.59	286.635
2432.82	289.521
2433.05	291.454
2433.29	287.729
2433.52	283.023
2433.75	287.739
2433.98	286.832
2434.21	291.546
2434.44	281.209
2434.68	290.671
2434.91	286.025
2435.14	293.604
2435.37	279.539
2435.6	290.904
2435.83	284.387
2436.06	289.173
2436.29	287.355
2436.53	283.595
2436.76	286.432
2436.99	283.622
2437.22	287.408
2437.45	287.41
2437.68	288.294
2437.91	280.749
2438.14	286.418
2438.38	290.238
2438.61	287.469
2438.84	287.526
2439.07	285.723
2439.3	287.676
2439.53	294.351
2439.76	279.324
2439.99	283.169
2440.23	296.468
2440.46	288.035
2440.69	285.239
2440.92	286.201
2441.15	288.082
2441.38	281.433
2441.61	288.996
2441.84	283.37
2442.07	285.317
2442.3	283.485
2442.53	292.993
2442.77	289.266
2443	285.531
2443.23	293.124
2443.46	292.226
2443.69	286.611
2443.92	286.661
2444.15	285.751
2444.38	285.786
2444.61	288.665
2444.84	288.713
2445.08	290.659
2445.31	283.134
2445.54	290.749
2445.77	291.721
2446	284.183
2446.23	286.147
2446.46	287.166
2446.69	286.285
2446.92	285.399
2447.15	286.409
2447.38	286.461
2447.61	286.491
2447.85	287.45
2448.08	291.226
2448.31	287.39
2448.54	284.518
2448.77	282.622
2449	290.222
2449.23	292.138
2449.46	282.705
2449.69	285.613
2449.92	282.814
2450.15	289.515
2450.38	287.702
2450.61	286.86
2450.85	294.6
2451.08	289.929
2451.31	289.959
2451.54	287.129
2451.77	294.771
2452	288.156
2452.23	290.085
2452.46	283.432
2452.69	288.153
2452.92	291.913
2453.15	289.027
2453.38	285.208
2453.61	290.914
2453.84	283.324
2454.07	289.064
2454.3	291.016
2454.53	287.274
2454.76	290.197
2455	289.325
2455.22	291.316
2455.46	286.619
2455.69	288.561
2455.92	289.571
2456.15	293.471
2456.38	293.548
2456.61	290.751
2456.84	297.472
2457.07	287.958
2457.3	289.871
2457.53	284.163
2457.76	287.037
2457.99	288.953
2458.22	295.633
2458.45	291.809
2458.68	287.054
2458.91	287.082
2459.14	295.709
2459.37	285.261
2459.6	291.03
2459.83	285.348
2460.06	291.114
2460.29	289.247
2460.52	286.414
2460.75	295.024
2460.98	291.215
2461.21	291.214
2461.44	291.2
2461.67	289.262
2461.9	287.36
2462.14	290.253
2462.36	293.119
2462.59	288.386
2462.83	291.215
2463.05	293.096
2463.29	291.324
2463.52	289.819
2463.74	289.474
2463.98	290.207
2464.21	295.87
2464.43	287.233
2464.67	290.109
2464.9	290.133
2465.12	289.193
2465.36	288.246
2465.59	293.005
2465.81	287.217
2466.05	295.812
2466.28	289.083
2466.5	290.036
2466.74	288.13
2466.97	284.356
2467.19	290.184
2467.43	283.451
2467.65	289.105
2467.88	292.841
2468.12	289.891
2468.34	289.852
2468.57	292.709
2468.8	289.841
2469.03	299.429
2469.26	296.596
2469.49	287.06
2469.72	291.873
2469.95	289.994
2470.18	290.028
2470.41	292.889
2470.64	293.86
2470.87	293.91
2471.1	298.743
2471.33	286.356
2471.56	292.195
2471.79	298.991
2472.02	288.519
2472.25	286.645
2472.48	290.5
2472.71	290.523
2472.94	295.367
2473.17	295.396
2473.4	290.405
2473.63	293.382
2473.86	290.684
2474.09	288.293
2474.32	294.369
2474.55	292.653
2474.78	288.826
2475.01	291.949
2475.24	292.908
2475.47	286.321
2475.7	287.411
2475.92	289.409
2476.15	293.312
2476.38	295.302
2476.61	291.491
2476.84	287.681
2477.07	297.213
2477.3	291.409
2477.53	291.254
2477.76	288.273
2477.99	293.758
2478.22	293.143
2478.45	285.788
2478.68	291.626
2478.91	296.366
2479.14	293.192
2479.37	294.728
2479.6	286.034
2479.83	292.982
2480.05	288.101
2480.28	293.252
2480.51	285.782
2480.74	287.503
2480.97	292.904
2481.2	293.22
2481.43	290.393
2481.66	286.477
2481.89	285.532
2482.12	288.418
2482.35	290.332
2482.58	289.353
2482.81	289.328
2483.04	288.359
2483.27	295.054
2483.49	291.21
2483.72	289.277
2483.95	286.374
2484.18	292.101
2484.41	293.062
2484.64	291.154
2484.87	291.156
2485.1	289.232
2485.33	291.164
2485.56	297.908
2485.78	286.437
2486.02	292.184
2486.24	291.217
2486.47	295.03
2486.7	293.082
2486.93	292.074
2487.16	292.965
2487.39	286.215
2487.62	288.104
2487.85	289.052
2488.08	292.863
2488.31	291.867
2488.53	288.92
2488.76	290.749
2488.99	286.909
2489.22	286.898
2489.45	283.076
2489.68	293.611
2489.91	286.933
2490.14	290.77
2490.37	289.816
2490.59	289.817
2490.82	286.945
2491.05	284.062
2491.28	290.726
2491.51	289.729
2491.74	288.724
2491.97	288.66
2492.2	289.511
2492.43	290.337
2492.65	289.266
2492.88	291.994
2493.11	288.966
2493.34	293.651
2493.57	284.124
2493.8	289.853
2494.03	290.074
2494.25	295.382
2494.48	287.79
2494.71	291.489
2494.94	292.484
2495.17	283.89
2495.4	292.334
2495.63	289.983
2495.86	293.709
2496.08	286.069
2496.31	282.116
2496.54	287.736
2496.77	292.441
2497	290.468
2497.23	287.511
2497.46	282.615
2497.69	288.293
2497.91	286.43
2498.14	289.336
2498.37	285.579
2498.6	291.345
2498.83	288.547
2499.06	287.639
2499.28	288.623
2499.51	293.387
2499.74	289.532
2499.97	289.453
2500.2	295.001
2500.43	290.141
2500.66	290.054
2500.88	288.071
2501.11	296.542
2501.34	291.714
2501.57	293.553
2501.8	288.751
2502.03	293.456
2502.25	284.876
2502.48	282.955
2502.71	290.508
2502.94	294.281
2503.17	291.462
2503.4	285.743
2503.62	293.299
2503.85	285.658
2504.08	289.401
2504.31	286.511
2504.54	285.515
2504.77	287.322
2504.99	287.238
2505.22	284.368
2505.45	292.008
2505.68	289.273
2505.91	291.344
2506.14	297.259
2506.36	286.969
2506.59	288.73
2506.82	288.539
2507.05	285.679
2507.28	284.731
2507.5	288.543
2507.73	295.211
2507.96	283.844
2508.19	287.659
2508.42	294.313
2508.64	285.766
2508.87	292.397
2509.1	289.525
2509.33	286.642
2509.56	287.523
2509.79	298.831
2510.01	290.21
2510.24	286.315
2510.47	286.192
2510.7	289.841
2510.92	288.737
2511.15	288.608
2511.38	292.295
2511.61	289.385
2511.84	292.178
2512.06	288.374
2512.29	294.038
2512.52	291.2
2512.75	289.311
2512.98	291.207
2513.2	284.634
2513.43	285.642
2513.66	283.812
2513.89	291.404
2514.11	287.585
2514.34	296.067
2514.57	291.306
2514.8	292.197
2515.03	290.209
2515.26	292
2515.48	286.232
2515.71	285.186
2515.94	287.908
2516.17	290.615
2516.39	287.659
2516.62	293.232
2516.85	288.439
2517.08	286.472
2517.3	287.337
2517.53	291.982
2517.76	281.573
2517.99	287.169
2518.21	297.467
2518.44	286.099
2518.67	292.662
2518.9	285.131
2519.13	293.612
2519.35	282.339
2519.58	292.721
2519.81	283.37
2520.04	291.911
2520.26	291.029
2520.49	287.322
2520.72	286.448
2520.95	286.467
2521.17	283.649
2521.4	289.294
2521.63	288.34
2521.86	284.499
2522.08	286.254
2522.31	284.326
2522.54	287.104
2522.77	291.789
2522.99	282.356
2523.22	288.926
2523.45	288.916
2523.68	292.691
2523.9	286.081
2524.13	285.1
2524.36	283.196
2524.58	289.759
2524.81	286.915
2525.04	291.56
2525.27	282.992
2525.49	291.324
2525.72	287.426
2525.95	291.087
2526.18	289.12
2526.4	287.155
2526.63	290.84
2526.86	292.705
2527.09	290.808
2527.31	286.103
2527.54	286.099
2527.77	288.924
2527.99	288.01
2528.22	288.983
2528.45	289.009
2528.68	289.045
2528.9	292.843
2529.13	283.501
2529.36	287.274
2529.58	282.58
2529.81	287.267
2530.04	295.711
2530.27	288.194
2530.49	286.294
2530.72	291.883
2530.95	284.323
2531.18	287.108
2531.4	278.624
2531.63	287.017
2531.86	285.096
2532.08	289.753
2532.31	287.815
2532.54	286.795
2532.76	287.69
2532.99	285.79
2533.22	284.855
2533.45	285.815
2533.67	281.161
2533.9	286.835
2534.13	286.857
2534.35	281.227
2534.58	283.98
2534.81	282.995
2535.03	289.514
2535.26	296.048
2535.49	291.356
2535.71	281.049
2535.94	286.668
2536.17	288.536
2536.4	288.516
2536.62	291.284
2536.85	292.171
2537.08	288.395
2537.3	289.297
2537.53	289.251
2537.76	289.202
2537.98	285.406
2538.21	281.594
2538.44	284.333
2538.66	284.269
2538.89	294.486
2539.12	294.4
2539.34	280.359
2539.57	290.589
2539.8	289.614
2540.02	281.174
2540.25	283.956
2540.48	284.88
2540.7	280.212
2540.93	290.503
2541.16	280.274
2541.38	287.845
2541.61	286.033
2541.84	285.122
2542.06	283.277
2542.29	310.419
2542.52	288.941
2542.74	287.089
2542.97	283.37
2543.2	287.102
2543.42	290.811
2543.65	287.966
2543.88	286.977
2544.1	289.729
2544.33	288.759
2544.55	287.803
2544.78	280.342
2545.01	285.021
2545.23	285.027
2545.46	284.099
2545.69	287.845
2545.91	288.783
2546.14	286.881
2546.37	288.647
2546.59	279.294
2546.82	280.221
2547.05	281.157
2547.27	292.372
2547.5	280.241
2547.73	291.471
2547.95	286.821
2548.18	283.098
2548.4	287.786
2548.63	287.825
2548.86	285.07
2549.08	286.044
2549.31	287.953
2549.54	290.803
2549.76	288.054
2549.99	284.381
2550.21	287.264
2550.44	288.258
2550.67	286.434
2550.89	282.722
2551.12	282.757
2551.34	288.431
2551.57	283.799
2551.8	289.456
2552.02	286.672
2552.25	296.053
2552.48	286.674
2552.7	281.023
2552.93	290.355
2553.15	289.392
2553.38	289.371
2553.61	285.611
2553.83	290.282
2554.06	279.977
2554.28	292.152
2554.51	282.802
2554.74	282.822
2554.96	296.897
2555.19	285.701
2555.42	282.955
2555.64	289.601
2555.87	288.763
2556.09	289.796
2556.32	288.947
2556.55	290.912
2556.77	290.046
2557	284.463
2557.22	291.049
2557.45	281.66
2557.67	278.86
2557.9	290.162
2558.13	290.189
2558.35	284.563
2558.58	292.081
2558.8	291.14
2559.03	289.252
2559.26	287.361
2559.48	295.796
2559.71	288.264
2559.93	289.179
2560.16	281.649
2560.39	289.151
2560.61	289.159
2560.84	293.862
2561.06	291.993
2561.29	291.066
2561.51	289.211
2561.74	287.363
2561.96	293.031
2562.19	285.551
2562.42	294.994
2562.64	282.863
2562.87	282.963
2563.09	290.583
2563.32	287.856
2563.55	293.596
2563.77	286.161
2564	286.284
2564.22	287.345
2564.45	291.205
2564.67	288.444
2564.9	286.601
2565.12	288.506
2565.35	290.396
2565.58	288.488
2565.8	284.701
2566.03	290.354
2566.25	286.58
2566.48	284.696
2566.7	286.6
2566.93	287.569
2567.15	291.35
2567.38	286.634
2567.61	287.568
2567.83	287.556
2568.06	295.088
2568.28	284.721
2568.51	296.047
2568.73	293.237
2568.96	290.429
2569.18	288.554
2569.41	287.628
2569.63	287.676
2569.86	283.03
2570.08	282.142
2570.31	293.523
2570.53	295.483
2570.76	289.906
2570.99	289.073
2571.21	294.882
2571.44	291.232
2571.66	285.675
2571.89	287.672
2572.11	286.822
2572.34	292.586
2572.56	286.981
2572.79	288.937
2573.01	289.937
2573.24	286.208
2573.46	290.061
2573.69	287.243
2573.91	289.197
2574.14	287.219
2574.36	286.219
2574.59	293.741
2574.81	292.745
2575.04	289.896
2575.26	286.127
2575.49	287.193
2575.71	291.095
2575.94	302.524
2576.16	287.376
2576.39	284.56
2576.61	288.395
2576.84	292.247
2577.06	287.575
2577.29	292.404
2577.52	291.545
2577.74	289.737
2577.96	293.631
2578.19	288.018
2578.42	293.799
2578.64	288.15
2578.86	289.175
2579.09	295.931
2579.31	293.182
2579.54	293.268
2579.77	288.564
2579.99	289.561
2580.21	293.418
2580.44	294.385
2580.66	291.549
2580.89	286.805
2581.11	303.028
2581.34	292.575
2581.56	296.43
2581.79	288.867
2582.01	291.748
2582.24	293.654
2582.46	294.607
2582.69	290.802
2582.91	302.278
2583.14	294.66
2583.36	299.452
2583.59	291.838
2583.81	288.027
2584.04	289.926
2584.26	288.982
2584.49	299.529
2584.71	291.952
2584.94	285.336
2585.16	298.792
2585.38	301.755
2585.61	288.474
2585.83	297.178
2586.06	290.588
2586.28	299.269
2586.51	290.742
2586.73	293.6
2586.96	296.606
2587.18	289.091
2587.41	295.95
2587.63	293.269
2587.86	300.096
2588.08	286.769
2588.3	294.514
2588.53	299.344
2588.75	296.227
2588.98	286.644
2589.2	290.773
2589.43	296.542
2589.65	291.752
2589.88	290.791
2590.1	291.749
2590.32	295.583
2590.55	291.739
2590.77	294.614
2591	291.729
2591.22	290.771
2591.45	286.943
2591.67	298.499
2591.9	287.978
2592.12	286.097
2592.34	289.034
2592.57	297.736
2592.79	301.647
2593.02	295.963
2593.24	297.031
2593.47	291.309
2593.69	299.059
2593.91	292.397
2594.14	294.412
2594.36	293.53
2594.59	290.687
2594.81	297.451
2595.04	293.605
2595.26	294.589
2595.48	291.721
2595.71	294.631
2595.93	288.879
2596.16	295.659
2596.38	295.837
2596.6	292.224
2596.83	288.589
2597.05	299.434
2597.28	295.248
2597.5	296.391
2597.73	294.428
2597.95	301.045
2598.17	297.085
2598.4	304.73
2598.62	298.023
2598.85	286.52
2599.07	302.07
2599.29	303.123
2599.52	294.507
2599.74	300.377
2599.97	290.762
2600.19	296.459
2600.41	286.697
2600.64	291.699
2600.86	293.756
2601.09	299.776
2601.31	301.799
2601.53	297.028
2601.76	290.296
2601.98	296.122
2602.21	298.054
2602.43	298.038
2602.65	297.055
2602.88	297.043
2603.1	297.037
2603.33	296.085
2603.55	289.35
2603.77	296.13
2604	298.049
2604.22	303.84
2604.45	289.339
2604.67	290.335
2604.89	293.278
2605.12	292.346
2605.34	298.181
2605.56	301.103
2605.79	303.05
2606.01	301.112
2606.24	298.201
2606.46	298.201
2606.68	290.46
2606.91	294.358
2607.13	296.349
2607.35	301.267
2607.58	292.634
2607.8	295.637
2608.02	294.765
2608.25	293.905
2608.47	298.827
2608.7	296.95
2608.92	296.028
2609.14	296.06
2609.37	295.112
2609.59	296.097
2609.81	293.207
2610.04	300.042
2610.26	296.188
2610.48	299.105
2610.71	301.065
2610.93	293.304
2611.15	296.213
2611.38	296.194
2611.6	301.024
2611.83	294.182
2612.05	297.029
2612.27	298.924
2612.5	298.904
2612.72	292.115
2612.94	298.906
2613.17	295.968
2613.39	297.908
2613.61	293.09
2613.84	293.157
2614.06	298.114
2614.28	299.194
2614.51	293.472
2614.73	298.45
2614.95	297.602
2615.18	299.629
2615.4	296.771
2615.62	292.915
2615.85	290.011
2616.07	302.707
2616.29	296.902
2616.52	295.959
2616.74	295.987
2616.96	296.014
2617.19	297.99
2617.41	301.906
2617.63	298.014
2617.86	294.154
2618.08	301.074
2618.3	292.293
2618.53	296.156
2618.75	296.103
2618.97	301.862
2619.19	295.926
2619.42	291.941
2619.64	305.454
2619.87	291.682
2620.09	297.383
2620.31	297.319
2620.53	298.256
2620.76	297.286
2620.98	292.521
2621.2	301.459
2621.43	295.7
2621.65	300.646
2621.87	300.741
2622.1	298.88
2622.32	297.955
2622.54	293.13
2622.76	297.995
2622.99	300.862
2623.21	295.992
2623.43	295.046
2623.66	297.026
2623.88	299.97
2624.1	293.164
2624.32	297.059
2624.55	298.997
2624.77	298.025
2624.99	296.105
2625.22	300.991
2625.44	301.014
2625.66	297.153
2625.89	293.292
2626.11	299.175
2626.33	299.212
2626.55	292.428
2626.78	301.241
2627	298.353
2627.22	296.414
2627.45	300.316
2627.67	298.384
2627.89	295.468
2628.11	295.463
2628.34	293.494
2628.56	296.383
2628.78	298.279
2629	298.23
2629.23	292.361
2629.45	300.156
2629.67	299.19
2629.9	292.385
2630.12	302.152
2630.34	311.92
2630.56	300.246
2630.79	294.423
2631.01	295.441
2631.23	298.42
2631.45	293.561
2631.68	298.439
2631.9	297.471
2632.12	299.408
2632.34	296.457
2632.57	294.506
2632.79	299.382
2633.01	293.533
2633.23	298.403
2633.46	297.415
2633.68	304.214
2633.9	293.429
2634.12	301.156
2634.35	302.03
2634.57	298.998
2634.79	298.892
2635.01	293.925
2635.24	293.831
2635.46	297.707
2635.68	302.723
2635.9	301.934
2636.13	298.156
2636.35	298.254
2636.57	297.359
2636.79	295.338
2637.02	291.296
2637.24	299.023
2637.46	295.91
2637.68	293.815
2637.91	296.78
2638.13	297.797
2638.35	297.814
2638.57	300.756
2638.79	295.916
2639.02	292.054
2639.24	293.058
2639.46	294.071
2639.68	292.146
2639.91	294.132
2640.13	295.184
2640.35	303.064
2640.57	295.363
2640.8	305.147
2641.02	294.375
2641.24	294.097
2641.46	297.518
2641.68	296.043
2641.91	294.785
2642.13	298.615
2642.35	294.718
2642.57	291.857
2642.79	290.046
2643.02	292.196
2643.24	298.012
2643.46	293.036
2643.68	295.934
2643.9	292.955
2644.13	297.716
2644.35	295.686
2644.57	292.717
2644.79	291.715
2645.01	301.376
2645.24	296.498
2645.46	300.337
2645.68	295.453
2645.9	297.347
2646.13	294.415
2646.35	299.247
2646.57	298.262
2646.79	296.303
2647.01	291.44
2647.23	295.279
2647.46	293.29
2647.68	301.924
2647.9	291.162
2648.12	300.696
2648.34	292.853
2648.57	295.67
2648.79	292.715
2649.01	291.72
2649.23	291.688
2649.45	291.651
2649.67	290.656
2649.9	296.406
2650.12	292.501
2650.34	296.351
2650.56	290.575
2650.78	301.219
2651	287.711
2651.23	291.49
2651.45	293.304
2651.67	292.287
2651.89	299.013
2652.11	300.91
2652.34	295.089
2652.56	286.385
2652.78	296.985
2653	293.126
2653.22	296.002
2653.44	287.296
2653.66	303.636
2653.89	292.027
2654.11	293.925
2654.33	293.884
2654.55	296.714
2654.77	294.698
2655	294.614
2655.22	287.826
2655.44	297.424
2655.66	295.481
2655.88	288.729
2656.1	291.624
2656.32	291.672
2656.55	295.582
2656.77	290.807
2656.99	288.903
2657.21	293.73
2657.43	296.622
2657.65	292.778
2657.87	296.629
2658.1	286.96
2658.32	292.666
2658.54	287.76
2658.76	291.512
2658.98	296.217
2659.2	293.236
2659.42	289.268
2659.65	293.012
2659.87	288.159
2660.09	287.184
2660.31	291.05
2660.53	292.993
2660.75	291.058
2660.97	296.785
2661.19	288.103
2661.42	294.771
2661.64	295.633
2661.86	291.663
2662.08	291.524
2662.3	288.506
2662.52	285.489
2662.74	289.174
2662.96	290.936
2663.19	288.923
2663.41	294.6
2663.63	297.449
2663.85	294.567
2664.07	287.841
2664.29	290.677
2664.51	297.341
2664.73	292.536
2664.95	290.61
2665.18	291.561
2665.4	291.557
2665.62	292.501
2665.84	289.612
2666.06	285.762
2666.28	293.378
2666.5	287.612
2666.72	293.317
2666.94	293.296
2667.16	287.524
2667.39	287.467
2667.61	295.044
2667.83	286.382
2668.05	287.265
2668.27	290.987
2668.49	294.717
2668.71	298.46
2668.93	288.892
2669.15	287.936
2669.38	301.292
2669.6	298.442
2669.82	287.01
2670.04	296.561
2670.26	291.816
2670.48	293.745
2670.7	294.693
2670.92	297.517
2671.14	285.066
2671.36	285.966
2671.58	290.684
2671.8	295.414
2672.02	289.634
2672.25	290.505
2672.47	290.421
2672.69	287.477
2672.91	292.142
2673.13	285.384
2673.35	295.759
2673.57	291.877
2673.79	286.128
2674.01	288.09
2674.23	284.32
2674.45	286.21
2674.67	290.96
2674.89	292.901
2675.11	288.317
2675.34	293.293
2675.56	294.279
2675.78	290.148
2676	287.867
2676.22	287.788
2676.44	291.517
2676.66	297.156
2676.88	290.465
2677.1	282.834
2677.32	286.597
2677.54	285.613
2677.76	291.266
2677.98	287.429
2678.2	281.693
2678.42	292.077
2678.65	300.563
2678.87	292.928
2679.09	289.083
2679.31	289.049
2679.53	286.207
2679.75	291.906
2679.97	282.416
2680.19	288.047
2680.41	289.897
2680.63	287.05
2680.85	287.077
2681.07	290.911
2681.29	284.3
2681.51	288.093
2681.73	293.773
2681.95	288.075
2682.17	293.703
2682.39	288.854
2682.61	285.95
2682.83	283.035
2683.05	290.213
2683.27	292.888
2683.49	286.706
2683.71	286.57
2683.93	290.659
2684.15	288.67
2684.37	290.226
2684.59	282.532
2684.81	291.688
2685.03	284.01
2685.25	288.868
2685.48	292.144
2685.7	285.958
2685.92	287.44
2686.14	290.728
2686.36	293.305
2686.58	289.947
2686.8	293.848
2687.02	285.38
2687.24	286.654
2687.46	289.07
2687.68	288.978
2687.9	290.799
2688.12	285.604
2688.34	282.359
2688.56	285.943
2688.78	291.814
2689	282.357
2689.22	286.034
2689.44	290.603
2689.66	283.609
2689.88	285.226
2690.1	285.499
2690.32	288.257
2690.54	289.366
2690.76	286.571
2690.98	289.194
2691.2	289.251
2691.42	282.236
2691.64	288.169
2691.86	288.585
2692.08	288.17
2692.3	287.314
2692.52	292.354
2692.74	285.139
2692.96	287.509
2693.18	283.186
2693.4	290.755
2693.62	285.35
2693.84	284.742
2694.06	285.549
2694.28	289.17
2694.49	284.086
2694.71	286.203
2694.93	287.512
2695.15	286.428
2695.37	287.507
2695.59	287.057
2695.81	286.978
2696.03	286.818
2696.25	284.775
2696.47	284.758
2696.69	285.244
2696.91	287.029
2697.13	288.007
2697.35	289.116
2697.57	287.013
2697.79	287.399
2698.01	286.654
2698.23	285.067
2698.45	286.919
2698.67	288.561
2698.89	286.566
2699.11	283.871
2699.33	286.481
2699.55	287.772
2699.77	287.687
2699.99	289.303
2700.21	285.656
2700.43	282.958
2700.64	285.15
2700.86	283.435
2701.08	283.416
2701.3	283.176
2701.52	279.433
2701.74	281.757
2701.96	286.088
2702.18	284.259
2702.4	284.162
2702.62	284.897
2702.84	288.578
2703.06	286.723
2703.28	285.083
2703.5	290.324
2703.72	282.1
2703.94	281.711
2704.15	287.395
2704.37	287.039
2704.59	284.023
2704.81	290.687
2705.03	297.352
2705.25	287.819
2705.45	290.345
2705.67	284.692
2705.9	284.697
2706.12	298.786
2706.34	283.737
2706.56	288.425
2706.78	284.679
2707.01	292.213
2707.23	279.992
2707.45	287.475
2707.67	294.938
2707.9	287.364
2708.12	291.053
2708.34	284.467
2708.56	280.747
2708.78	287.35
2709.01	288.318
2709.23	283.651
2709.45	286.495
2709.67	288.398
2709.89	283.722
2710.12	291.255
2710.34	288.445
2710.56	279.055
2710.78	283.755
2711	281.851
2711.23	285.556
2711.45	289.247
2711.67	289.14
2711.89	287.193
2712.11	277.741
2712.34	281.426
2712.56	284.133
2712.78	288.752
2713	286.888
2713.22	283.174
2713.45	283.232
2713.67	283.3
2713.89	292.775
2714.11	289.154
2714.33	281.747
2714.56	283.713
2714.78	286.599
2715	284.765
2715.22	292.305
2715.44	290.43
2715.66	288.548
2715.89	281.913
2716.11	283.715
2716.33	286.482
2716.55	289.261
2716.77	283.598
2716.99	284.508
2717.22	285.424
2717.44	286.35
2717.66	282.602
2717.88	278.869
2718.1	280.771
2718.33	286.441
2718.55	288.365
2718.77	289.358
2718.99	298.819
2719.21	283.855
2719.43	285.817
2719.66	285.91
2719.88	285.068
2720.1	285.158
2720.32	290.867
2720.54	284.322
2720.76	282.478
2720.98	286.274
2721.21	293.824
2721.43	288.157
2721.65	289.049
2721.87	282.417
2722.09	291.806
2722.32	289.876
2722.54	295.472
2722.76	284.142
2722.98	285.056
2723.2	284.105
2723.42	289.75
2723.64	289.792
2723.86	286.094
2724.09	282.397
2724.31	284.342
2724.53	289.117
2724.75	290.101
2724.97	285.396
2725.19	290.107
2725.42	287.273
2725.64	287.227
2725.86	296.591
2726.08	289.969
2726.3	296.541
2726.52	283.355
2726.74	286.185
2726.96	289.968
2727.19	289.991
2727.41	288.135
2727.63	282.514
2727.85	288.195
2728.07	280.693
2728.29	288.26
2728.51	291.119
2728.74	282.665
2728.96	290.228
2729.18	287.371
2729.4	294.933
2729.62	278.957
2729.84	285.599
2730.06	287.542
2730.28	291.397
2730.51	289.603
2730.73	287.796
2730.95	285.976
2731.17	291.705
2731.39	282.293
2731.61	291.748
2731.83	285.135
2732.05	287.009
2732.27	286.99
2732.49	284.132
2732.72	287.872
2732.94	283.111
2733.16	292.479
2733.38	287.711
2733.6	284.843
2733.82	283.873
2734.04	283.856
2734.26	287.627
2734.48	281.995
2734.71	285.826
2734.93	285.915
2735.15	289.78
2735.37	291.752
2735.59	290.891
2735.81	287.189
2736.03	286.297
2736.25	288.223
2736.47	283.513
2736.69	283.526
2736.91	288.279
2737.14	294.915
2737.36	287.364
2737.58	293.035
2737.8	285.462
2738.02	286.378
2738.24	286.359
2738.46	286.377
2738.68	290.197
2738.9	291.206
2739.12	290.31
2739.34	289.358
2739.56	283.651
2739.79	284.567
2740.01	286.468
2740.23	295.865
2740.45	293.843
2740.67	292.72
2740.89	287.051
2741.11	288.971
2741.33	291.955
2741.55	295.836
2741.77	288.332
2741.99	288.429
2742.21	285.666
2742.43	287.612
2742.65	295.24
2742.88	287.734
2743.1	289.703
2743.32	288.841
2743.54	287.034
2743.76	294.699
2743.98	293.851
2744.2	293.948
2744.42	285.482
2744.64	285.528
2744.86	295.041
2745.08	299.79
2745.3	288.413
2745.52	295.998
2745.74	290.233
2745.96	291.141
2746.18	291.086
2746.4	291.996
2746.62	289.085
2746.84	294.748
2747.06	287.114
2747.29	288.996
2747.51	288.059
2747.73	297.6
2747.95	280.574
2748.17	288.187
2748.39	282.515
2748.61	293.9
2748.83	284.432
2749.05	286.337
2749.27	290.118
2749.49	287.245
2749.71	288.174
2749.93	289.12
2750.15	290.132
2750.37	287.345
2750.59	289.273
2750.81	291.216
2751.03	286.533
2751.25	294.189
2751.47	290.464
2751.69	288.645
2751.91	289.679
2752.13	289.775
2752.35	285.103
2752.57	289.922
2752.79	295.675
2753.01	291.899
2753.23	291.891
2753.45	284.27
2753.67	285.2
2753.9	293.73
2754.11	283.246
2754.33	296.523
2754.55	290.793
2754.77	287.909
2755	293.574
2755.22	294.502
2755.44	294.482
2755.66	293.522
2755.88	284.973
2756.1	290.7
2756.32	287.911
2756.54	297.497
2756.76	284.238
2756.98	289.058
2757.2	285.29
2757.42	291.972
2757.64	290.08
2757.86	287.235
2758.08	282.491
2758.3	291.078
2758.51	281.557
2758.74	295.786
2758.96	291.962
2759.18	291.008
2759.4	286.282
2759.61	292.07
2759.83	297.685
2760.05	286.225
2760.28	290.955
2760.5	287.16
2760.71	292.184
2760.93	284.695
2761.15	293.241
2761.37	286.445
2761.59	284.419
2761.81	288.102
2762.03	288.079
2762.25	291.855
2762.47	285.246
2762.69	287.251
2762.91	293.977
2763.13	285.462
2763.35	286.383
2763.57	292.093
2763.79	287.418
2764.01	291.403
2764.23	286.807
2764.45	289.502
2764.67	291.322
2764.89	294.174
2765.11	284.709
2765.33	283.751
2765.55	289.434
2765.77	294.163
2765.99	296.049
2766.21	291.263
2766.43	288.355
2766.65	293.048
2766.87	287.275
2767.09	291.031
2767.31	285.288
2767.53	291.911
2767.75	295.675
2767.96	289.938
2768.18	287.068
2768.4	288.017
2768.62	293.742
2768.84	292.809
2769.06	289.96
2769.28	289.02
2769.5	292.855
2769.72	291.954
2769.94	304.393
2770.16	297.746
2770.38	293.001
2770.6	289.204
2770.82	287.334
2771.04	285.467
2771.26	291.245
2771.48	289.425
2771.7	289.535
2771.92	293.554
2772.13	288.926
2772.35	299.529
2772.57	287.157
2772.79	286.164
2773.01	284.307
2773.23	282.3
2773.45	292.508
2773.67	294.334
2773.89	293.279
2774.11	292.187
2774.33	292.381
2774.55	289.612
2774.77	290.566
2774.98	285.787
2775.2	296.173
2775.42	290.388
2775.64	281.748
2775.86	286.441
2776.08	293.072
2776.3	293.051
2776.52	291.132
2776.74	289.219
2776.96	294.917
2777.18	287.295
2777.4	293.943
2777.61	291.1
2777.83	284.453
2778.05	291.119
2778.27	288.267
2778.49	291.126
2778.71	293.05
2778.93	290.187
2779.15	285.413
2779.37	291.041
2779.59	301.385
2779.81	290.867
2780.02	287.978
2780.24	293.662
2780.46	291.777
2780.68	288.917
2780.9	284.166
2781.12	286.099
2781.34	295.631
2781.56	288.991
2781.78	286.143
2782	291.842
2782.21	288.991
2782.43	288.994
2782.65	290.857
2782.87	284.062
2783.09	295.424
2783.31	287.748
2783.53	280.043
2783.75	286.649
2783.97	288.535
2784.18	288.538
2784.4	295.171
2784.62	283.797
2784.84	292.391
2785.06	293.41
2785.28	289.677
2785.5	297.341
2785.72	288.85
2785.93	289.853
2786.15	291.776
2786.37	290.818
2786.59	292.737
2786.81	290.816
2787.03	292.656
2787.25	290.673
2787.47	292.484
2787.68	290.471
2787.9	286.55
2788.12	286.463
2788.34	293.062
2788.56	291.128
2788.78	290.144
2789	301.502
2789.21	287.254
2789.43	296.69
2789.65	286.225
2789.87	288.087
2790.09	291.85
2790.31	287.092
2790.52	291.818
2790.74	286.118
2790.96	287.979
2791.18	289.805
2791.4	291.642
2791.62	289.707
2791.84	288.729
2792.06	288.72
2792.27	290.632
2792.49	285.017
2792.71	290.748
2792.93	289.827
2793.15	285.095
2793.37	286.033
2793.58	298.318
2793.8	293.542
2794.02	289.714
2794.24	287.779
2794.46	290.37
2794.68	291.329
2794.89	288.815
2795.11	287.879
2795.33	297.265
2795.55	289.653
2795.77	286.785
2795.99	288.652
2796.2	293.354
2796.42	293.323
2796.64	284.777
2796.86	286.644
2797.08	297.032
2797.3	290.394
2797.51	285.67
2797.73	290.384
2797.95	293.182
2798.17	288.381
2798.39	284.562
2798.6	295.92
2798.82	285.548
2799.04	287.473
2799.26	290.347
2799.48	292.284
2799.7	291.419
2799.91	286.748
2800.13	286.696
2800.35	290.38
2800.57	291.244
2800.79	289.223
2801	282.57
2801.22	289.648
2801.44	291.349
2801.66	280.764
2801.88	287.367
2802.1	282.649
2802.31	286.592
2802.53	285.691
2802.75	296.032
2802.97	294.107
2803.19	295.931
2803.4	281.693
2803.62	284.455
2803.84	290.997
2804.06	287.156
2804.27	284.266
2804.49	292.708
2804.71	286.043
2804.93	286.002
2805.15	287.862
2805.36	287.86
2805.58	295.433
2805.8	292.633
2806.02	289.853
2806.24	285.13
2806.45	296.444
2806.67	286.998
2806.89	279.441
2807.11	284.145
2807.33	286.019
2807.54	292.615
2807.76	284.107
2807.98	292.589
2808.2	288.802
2808.41	284.072
2808.63	293.493
2808.85	285.928
2809.07	291.574
2809.28	288.726
2809.5	284.933
2809.72	282.084
2809.94	287.726
2810.16	293.365
2810.37	294.283
2810.59	281.972
2810.81	296.993
2811.03	288.453
2811.24	286.503
2811.46	283.598
2811.68	288.243
2811.9	287.27
2812.11	282.528
2812.33	294.705
2812.55	289.945
2812.77	288.992
2812.98	283.345
2813.2	287.126
2813.42	284.333
2813.64	284.438
2813.86	288.241
2814.07	291.924
2814.29	290.882
2814.51	289.914
2814.73	289.007
2814.94	288.096
2815.16	286.173
2815.38	287.979
2815.59	286.924
2815.81	293.522
2816.03	294.502
2816.25	283.183
2816.46	285.965
2816.68	287.803
2816.9	287.764
2817.12	290.538
2817.34	293.309
2817.55	293.191
2817.77	289.364
2817.99	285.527
2818.2	284.52
2818.42	291.044
2818.64	283.499
2818.86	285.336
2819.07	280.633
2819.29	288.159
2819.51	291.242
2819.72	285.73
2819.94	287.612
2820.16	286.664
2820.38	290.346
2820.59	286.574
2820.81	288.271
2821.03	286.04
2821.25	284.313
2821.46	286.109
2821.68	283.492
2821.9	294.767
2822.11	284.337
2822.33	291.704
2822.55	287.584
2822.77	283.404
2822.98	290.775
2823.2	288.802
2823.42	282.144
2823.63	282.01
2823.85	290.443
2824.07	285.883
2824.28	292.571
2824.5	280.367
2824.72	284.055
2824.94	297.11
2825.15	284.995
2825.37	283.107
2825.59	285.879
2825.81	290.564
2826.02	283.975
2826.24	284.031
2826.46	288.817
2826.67	287.954
2826.89	286.058
2827.11	287.877
2827.32	291.988
2827.54	288.288
2827.76	299.398
2827.97	278.603
2828.19	281.31
2828.41	288.78
2828.62	285.955
2828.84	297.153
2829.06	289.617
2829.27	285.835
2829.49	288.631
2829.71	291.457
2829.93	283.045
2830.14	283.992
2830.36	289.634
2830.58	279.363
2830.79	288.761
2831.01	285.96
2831.23	283.144
2831.44	284.061
2831.66	281.207
2831.88	284.859
2832.09	285.749
2832.31	287.581
2832.53	291.273
2832.74	294.044
2832.96	283.716
2833.18	291.186
2833.39	287.43
2833.61	282.753
2833.83	285.584
2834.04	283.735
2834.26	286.547
2834.48	279.982
2834.69	290.329
2834.91	284.767
2835.13	294.203
2835.34	287.694
2835.56	285.854
2835.78	292.441
2835.99	291.531
2836.21	290.627
2836.43	293.478
2836.64	292.57
2836.86	285.08
2837.07	287.9
2837.29	295.385
2837.51	284.081
2837.72	287.789
2837.94	288.716
2838.16	297.142
2838.37	284.95
2838.59	293.383
2838.81	283.072
2839.02	290.574
2839.24	287.793
2839.46	292.528
2839.67	292.617
2839.89	288.04
2840.11	286.291
2840.32	284.514
2840.54	288.431
2840.75	288.442
2840.97	289.059
2841.19	283
2841.4	290.185
2841.62	291.995
2841.84	289.299
2842.05	282.041
2842.27	287
2842.49	291.883
2842.7	285.333
2842.92	280.645
2843.13	288.1
2843.35	287.07
2843.57	287.99
2843.78	289.879
2844	298.301
2844.22	295.467
2844.43	287.949
2844.65	284.192
2844.86	292.584
2845.08	289.754
2845.3	292.592
2845.51	289.809
2845.73	292.678
2845.95	288.073
2846.16	287.246
2846.38	293.97
2846.59	287.49
2846.81	294.096
2847.03	289.391
2847.24	287.475
2847.46	289.288
2847.67	290.166
2847.89	289.102
2848.11	293.734
2848.32	287.138
2848.54	286.185
2848.75	289.001
2848.97	289.991
2849.19	291.903
2849.4	283.483
2849.62	286.333
2849.83	288.248
2850.05	295.792
2850.27	284.571
2850.48	286.508
2850.7	293.129
2850.91	280.004
2851.13	282.838
2851.34	283.799
2851.56	287.559
2851.78	288.47
2851.99	285.609
2852.21	290.295
2852.42	291.235
2852.64	287.473
2852.85	289.373
2853.07	287.52
2853.29	281.894
2853.5	295.052
2853.72	289.437
2853.93	285.697
2854.15	295.113
2854.36	288.558
2854.58	287.642
2854.8	285.757
2855.01	282.927
2855.23	287.62
2855.44	292.335
2855.66	291.404
2855.87	291.411
2856.09	293.29
2856.31	288.578
2856.52	298.904
2856.74	285.744
2856.95	287.632
2857.17	293.289
2857.38	288.614
2857.6	291.459
2857.82	289.586
2858.03	291.481
2858.25	286.791
2858.46	292.437
2858.68	288.673
2858.89	285.845
2859.11	290.522
2859.33	288.62
2859.54	283.921
2859.76	286.741
2859.97	288.635
2860.19	292.417
2860.4	290.596
2860.62	284.099
2860.83	294.56
2861.05	292.793
2861.26	297.595
2861.48	292.025
2861.7	285.517
2861.91	292.192
2862.13	291.311
2862.34	292.299
2862.56	288.538
2862.77	295.11
2862.99	288.457
2863.2	290.27
2863.42	285.494
2863.63	294.853
2863.85	289.151
2864.06	285.359
2864.28	294.756
2864.49	292.857
2864.71	294.742
2864.93	287.229
2865.14	290.104
2865.36	293.916
2865.57	293.003
2865.79	298.691
2866	289.309
2866.22	296.891
2866.43	283.751
2866.65	295.111
2866.86	291.365
2867.08	295.146
2867.29	290.433
2867.51	285.731
2867.72	289.519
2867.94	291.455
2868.15	286.795
2868.37	293.487
2868.58	294.519
2868.8	291.802
2869.01	289.102
2869.23	294.783
2869.44	289.077
2869.66	290.788
2869.87	291.714
2870.09	281.35
2870.3	295.509
2870.52	293.619
2870.73	289.842
2870.95	298.333
2871.17	289.825
2871.38	291.692
2871.59	293.545
2871.81	290.669
2872.02	292.524
2872.24	295.351
2872.45	300.079
2872.67	284.04
2872.88	288.768
2873.1	286.923
2873.31	290.761
2873.53	297.441
2873.74	290.909
2873.96	287.215
2874.17	306.205
2874.39	284.536
2874.6	297.851
2874.82	294.132
2875.03	286.652
2875.25	294.249
2875.46	296.141
2875.68	292.329
2875.89	299.881
2876.11	293.237
2876.32	290.404
2876.54	287.571
2876.75	286.628
2876.97	293.253
2877.18	288.531
2877.4	283.812
2877.61	292.344
2877.83	291.424
2878.04	293.355
2878.25	297.159
2878.47	294.379
2878.68	291.544
2878.9	297.185
2879.11	293.315
2879.33	288.561
2879.54	293.273
2879.76	292.284
2879.97	287.534
2880.19	287.524
2880.4	285.649
2880.62	288.542
2880.83	291.435
2881.04	297.164
2881.26	294.375
2881.47	288.752
2881.69	293.572
2881.9	291.762
2882.12	306.926
2882.33	287.999
2882.55	287.066
2882.76	290.851
2882.98	295.563
2883.19	293.563
2883.4	295.321
2883.62	294.329
2883.83	295.26
2884.05	290.525
2884.26	291.538
2884.48	292.511
2884.69	284.979
2884.9	293.632
2885.12	294.71
2885.33	290.992
2885.55	295.767
2885.76	290.081
2885.98	292.902
2886.19	303.319
2886.41	293.86
2886.62	304.302
2886.83	297.694
2887.05	296.796
2887.26	294.976
2887.48	291.308
2887.69	292.414
2887.91	291.436
2888.12	291.433
2888.33	296.213
2888.55	293.392
2888.76	288.699
2888.98	290.619
2889.19	291.573
2889.41	292.523
2889.62	292.517
2889.83	293.454
2890.05	294.387
2890.26	297.218
2890.48	289.605
2890.69	292.444
2890.91	298.137
2891.12	290.542
2891.33	299.071
2891.55	293.395
2891.76	293.441
2891.97	305.814
2892.19	293.5
2892.4	291.588
2892.62	294.441
2892.83	289.547
2893.05	291.571
2893.26	297.533
2893.47	292.788
2893.69	298.408
2893.9	290.74
2894.11	293.495
2894.33	291.545
2894.54	293.389
2894.76	295.232
2894.97	287.605
2895.19	299.188
2895.4	292.738
2895.61	294.864
2895.83	286.277
2896.04	292.868
2896.25	293.729
2896.47	294.734
2896.68	291.888
2896.9	293.795
2897.11	287.147
2897.32	286.206
2897.54	290.02
2897.75	293.839
2897.97	294.807
2898.18	291.976
2898.39	296.719
2898.61	289.114
2898.82	289.145
2899.04	289.189
2899.25	291.144
2899.46	295.004
2899.68	292.192
2899.89	291.275
2900.1	297.972
2900.32	298.968
2900.53	290.405
2900.75	290.387
2900.96	296.091
2901.17	298.937
2901.39	286.553
2901.6	300.83
2901.81	291.291
2902.03	290.307
2902.24	296.937
2902.45	297.908
2902.67	294.12
2902.88	298.904
2903.09	294.179
2903.31	289.467
2903.52	298.108
2903.74	290.54
2903.95	291.532
2904.16	292.515
2904.38	296.351
2904.59	286.843
2904.8	289.723
2905.02	300.241
2905.23	299.304
2905.44	287.835
2905.66	298.271
2905.87	290.578
2906.08	295.275
2906.3	298.081
2906.51	296.137
2906.72	290.397
2906.94	294.189
2907.15	293.221
2907.36	291.29
2907.58	298.914
2907.79	297.038
2908	297.07
2908.22	291.424
2908.43	292.416
2908.65	296.193
2908.86	297.07
2909.07	296.106
2909.29	298.977
2909.5	289.476
2909.71	292.352
2909.92	299.995
2910.14	298.113
2910.35	290.511
2910.57	289.57
2910.78	283.861
2910.99	299.107
2911.2	286.743
2911.42	301.065
2911.63	308.715
2911.84	300.149
2912.06	300.157
2912.27	287.796
2912.48	285.925
2912.7	295.477
2912.91	292.621
2913.12	296.428
2913.34	296.383
2913.55	292.527
2913.76	297.291
2913.97	291.567
2914.19	295.363
2914.4	300.09
2914.62	296.221
2914.83	293.314
2915.04	300.884
2915.25	292.272
2915.47	298.013
2915.68	301.899
2915.89	294.274
2916.11	295.231
2916.32	295.25
2916.53	298.12
2916.74	297.166
2916.96	298.12
2917.17	298.132
2917.38	288.62
2917.6	292.445
2917.81	296.253
2918.02	291.463
2918.24	301.906
2918.45	300.923
2918.66	292.35
2918.88	298.071
2919.09	290.448
2919.3	301.857
2919.51	287.541
2919.73	299.873
2919.94	292.202
2920.15	290.246
2920.36	294.013
2920.58	288.265
2920.79	295.815
2921	299.572
2921.22	290.996
2921.43	301.428
2921.64	289.988
2921.85	294.704
2922.07	289.903
2922.28	291.764
2922.49	300.288
2922.71	297.421
2922.92	290.775
2923.13	297.432
2923.34	297.436
2923.56	302.203
2923.77	297.458
2923.98	295.554
2924.19	294.594
2924.41	290.779
2924.62	291.716
2924.83	290.754
2925.05	287.9
2925.26	290.753
2925.47	294.554
2925.68	296.447
2925.9	294.538
2926.11	304.978
2926.32	295.459
2926.53	294.489
2926.74	285.015
2926.96	298.316
2927.17	290.699
2927.38	299.216
2927.6	296.322
2927.81	291.549
2928.02	288.707
2928.23	300.081
2928.45	290.523
2928.66	292.394
2928.87	298.07
2929.08	296.212
2929.3	290.576
2929.51	295.477
2929.72	294.783
2929.93	304.491
2930.14	297.926
2930.36	293.789
2930.57	292.334
2930.78	297.35
2930.99	290.79
2931.21	296.609
2931.42	295.617
2931.63	292.81
2931.84	294.637
2932.06	300.281
2932.27	288.784
2932.48	288.665
2932.69	293.407
2932.91	293.429
2933.12	288.706
2933.33	287.781
2933.54	294.453
2933.75	286.879
2933.97	291.663
2934.18	288.793
2934.39	303.005
2934.6	291.57
2934.82	286.791
2935.03	295.26
2935.24	288.549
2935.45	297.035
2935.66	298.895
2935.88	292.238
2936.09	299.849
2936.3	291.309
2936.51	287.524
2936.72	297.026
2936.94	289.481
2937.15	292.363
2937.36	296.18
2937.57	288.574
2937.79	291.417
2938	289.499
2938.21	290.414
2938.42	306.504
2938.63	290.317
2938.85	294.023
2939.06	302.507
2939.27	296.77
2939.48	283.484
2939.69	290.124
2939.91	294.891
2940.12	293.947
2940.33	294.968
2940.54	292.221
2940.75	290.455
2940.97	290.62
2941.18	288.79
2941.39	291.735
2941.6	297.511
2941.81	291.852
2942.02	296.541
2942.24	295.419
2942.45	290.06
2942.66	288.987
2942.87	290.642
2943.08	295.539
2943.29	290.808
2943.51	297.789
2943.72	290.884
2943.93	284.048
2944.14	299.087
2944.35	295.233
2944.57	291.403
2944.78	286.589
2944.99	296.844
2945.2	293.643
2945.41	291.345
2945.63	289.882
2945.84	293.618
2946.05	296.224
2946.26	290.435
2946.47	290.433
2946.68	296.089
2946.89	293.251
2947.11	297.047
2947.32	290.454
2947.53	298.07
2947.74	301.917
2947.95	296.233
2948.17	291.521
2948.38	291.522
2948.59	290.565
2948.8	294.323
2949.01	293.338
2949.22	293.302
2949.43	288.532
2949.65	292.276
2949.86	298.856
2950.07	294.125
2950.28	293.192
2950.49	294.146
2950.7	296.062
2950.92	287.589
2951.13	291.432
2951.34	297.176
2951.55	288.687
2951.76	291.516
2951.97	291.479
2952.18	286.714
2952.4	291.447
2952.61	291.436
2952.82	281.952
2953.03	299.886
2953.24	296.048
2953.45	299.763
2953.66	290.228
2953.87	289.222
2954.09	290.108
2954.3	299.498
2954.51	295.662
2954.72	299.388
2954.93	285.176
2955.14	297.398
2955.35	289.807
2955.56	300.182
2955.78	300.177
2955.99	303.009
2956.2	292.663
2956.41	291.773
2956.62	294.641
2956.83	287.1
2957.04	294.661
2957.25	289.942
2957.47	292.779
2957.68	295.62
2957.89	286.184
2958.1	296.584
2958.31	292.816
2958.52	291.882
2958.73	285.281
2958.94	290.965
2959.16	294.734
2959.37	293.767
2959.58	294.653
2959.79	298.315
2960	289.784
2960.21	293.613
2960.42	287.038
2960.63	286.072
2960.84	290.645
2961.05	287.616
2961.27	299.986
2961.48	298.245
2961.69	294.51
2961.9	293.379
2962.11	294.117
2962.32	292.208
2962.53	284.664
2962.74	295.974
2962.95	290.339
2963.16	291.324
2963.38	295.155
2963.59	292.393
2963.8	289.624
2964.01	287.789
2964.22	288.78
2964.43	289.768
2964.64	294.522
2964.85	290.77
2965.06	291.715
2965.27	290.753
2965.48	294.445
2965.7	286.81
2965.91	299.006
2966.12	292.335
2966.33	287.559
2966.54	297.883
2966.75	297.842
2966.96	291.191
2967.17	292.091
2967.38	291.104
2967.59	290.112
2967.8	295.729
2968.01	287.23
2968.23	293.818
2968.43	289.13
2968.65	289.167
2968.86	297.686
2969.07	291.124
2969.28	290.186
2969.49	287.356
2969.7	284.535
2969.91	291.141
2970.12	296.806
2970.33	298.699
2970.54	293.068
2970.75	291.206
2970.96	294.035
2971.17	285.541
2971.38	291.193
2971.59	291.201
2971.81	299.698
2972.02	293.119
2972.23	291.25
2972.44	296.919
2972.65	295.983
2972.86	292.212
2973.07	300.673
2973.28	289.339
2973.49	288.369
2973.7	300.618
2973.91	291.202
2974.12	287.412
2974.33	294.931
2974.54	287.373
2974.75	292.059
2974.96	287.319
2975.17	289.167
2975.38	281.609
2975.59	290.062
2975.8	293.831
2976.01	289.144
2976.22	287.294
2976.44	292.999
2976.65	291.14
2976.86	292.058
2977.07	299.611
2977.28	294.928
2977.49	289.342
2977.7	290.372
2977.91	291.396
2978.12	294.263
2978.33	295.149
2978.54	291.045
2978.75	288.9
2978.96	292.674
2979.17	298.381
2979.38	286.773
2979.59	292.735
2979.8	290.51
2980.01	290.831
2980.22	294.453
2980.43	285.704
2980.64	290.303
2980.85	292.144
2981.06	285.535
2981.27	288.404
2981.48	287.485
2981.69	293.163
2981.9	285.499
2982.11	289.157
2982.32	287.262
2982.53	290.125
2982.74	306.157
2982.95	286.369
2983.16	284.475
2983.37	296.692
2983.58	290.897
2983.79	292.709
2984	288.928
2984.21	284.206
2984.42	293.594
2984.63	296.395
2984.84	301.081
2985.05	292.602
2985.26	290.717
2985.47	287.902
2985.68	286.989
2985.89	288.914
2986.1	288.95
2986.31	304.983
2986.52	291.834
2986.73	297.512
2986.94	292.834
2987.15	291.904
2987.36	288.134
2987.57	291.912
2987.78	286.288
2987.99	291.979
2988.2	292.961
2988.41	298.645
2988.62	297.709
2988.83	295.836
2989.04	290.198
2989.25	287.371
2989.46	298.67
2989.67	295.835
2989.88	292.063
2990.09	290.171
2990.3	288.276
2990.51	292.978
2990.72	293.928
2990.93	290.194
2991.14	298.711
2991.35	291.203
2991.56	299.714
2991.76	290.32
2991.98	295.998
2992.18	293.172
2992.39	289.391
2992.6	288.431
2992.81	295.947
2993.02	292.15
2993.23	292.12
2993.44	295.862
2993.65	290.193
2993.86	288.311
2994.07	296.794
2994.28	300.581
2994.49	285.539
2994.7	296.901
2994.91	296.967
2995.12	296.099
2995.33	295.234
2995.54	295.314
2995.75	298.221
2995.96	286.969
2996.17	290.789
2996.38	292.703
2996.59	295.553
2996.79	299.347
2997	287.091
2997.21	294.664
2997.42	290.924
2997.63	296.63
2997.84	298.551
2998.05	291.022
2998.26	286.338
2998.47	298.669
2998.68	293.96
2998.89	296.799
2999.1	292.069
2999.31	294.882
2999.52	294.852
2999.73	307.111
2999.94	292.91
