#Acq. time (s)=	40
#Accumulations=	2
#Range (cm-¹)=	1200...2365
#Windows=	3
#Auto scanning=	Off
#Autofocus=	Off
#Macrospot=	Off
#AutoExposure=	Off
#Spike filter=	Multiple accum.
#Delay time (s)=	2
#Binning=	1
#Readout mode=	Signal
#DeNoise=	Off
#ICS correction=	On
#Dark correction=	Off
#Inst. Process=	Off
#Detector Gain=	Best Dynamic
#Detector ADC=	50 kHz EM
#Detector EM gain=	400
#Detector temperature (°C)=	-60.09
#Instrument=	LabRAM HR Evol
#Detector=	SIN-EM FIVIS
#Objective=	x100_VIS_LWD
#Grating=	1800 (450-850nm)
#ND Filter=	100%
#Laser=	532nm_Edge
#Hole=	30.0125
#Temperature=	0
#Range=	Visible
#StageXY=	75x50mm Scan+
#StageZ=	Z motor
#X (µm)=	0
#Y (µm)=	0
#Z (µm)=	14.6
#Full time(mm:ss)=	4:22
#Project=	21_11_26
#Sample=	BU32
#Site=	
#Title=	BU32-A-incC-FI05-V_1800 (450-850nm)_532nm_Edge_100%_x100_VIS_LWD_H30um_40sX2
#Remark=	
#Date=	26.11.2021 18:16
#Acquired=	26.11.2021 18:16:44
1202.72	510.824
1203	521.25
1203.28	548.351
1203.56	515.717
1203.84	551.897
1204.11	493.557
1204.39	511.632
1204.67	498.75
1204.95	542.883
1205.23	554.596
1205.5	490.983
1205.78	525.146
1206.06	552.807
1206.34	513.907
1206.61	580.158
1206.89	518.773
1207.17	539.953
1207.45	577.226
1207.73	528.885
1208	541.599
1208.28	535.083
1208.56	549.95
1208.84	519.823
1209.11	542.137
1209.39	561.237
1209.67	555.818
1209.95	527.992
1210.23	540.767
1210.5	566.303
1210.78	566.061
1211.06	544.47
1211.34	522.937
1211.61	522.733
1211.89	528.972
1212.17	559.682
1212.45	562.659
1212.72	561.434
1213	542.087
1213.28	547.244
1213.56	504.532
1213.83	531.082
1214.11	571.417
1214.39	539.499
1214.67	505.444
1214.94	554.419
1215.22	497.982
1215.5	583.125
1215.78	505.377
1216.05	508.523
1216.33	531.799
1216.61	518.838
1216.89	524.988
1217.16	558.787
1217.44	515.042
1217.72	537.196
1218	555.089
1218.27	522.04
1218.55	526.163
1218.83	521.802
1219.1	533.407
1219.38	559.891
1219.66	526.941
1219.94	534.295
1220.21	537.377
1220.49	512.959
1220.77	528.864
1221.04	555.343
1221.32	538.314
1221.6	524.427
1221.88	512.666
1222.15	535.827
1222.43	528.196
1222.71	534.302
1222.98	544.612
1223.26	544.347
1223.54	495.453
1223.81	535.405
1224.09	499.288
1224.37	532.904
1224.65	535.935
1224.92	556.941
1225.2	538.914
1225.48	492.448
1225.76	524.173
1226.03	507.329
1226.31	507.389
1226.59	521.081
1226.86	532.651
1227.14	486.097
1227.42	506.06
1227.69	526.891
1227.97	473.684
1228.25	514.468
1228.52	546.8
1228.8	516.828
1229.08	565.817
1229.35	515.329
1229.63	486.051
1229.91	537.748
1230.18	537.234
1230.46	543.042
1230.74	508.086
1231.01	461.789
1231.29	455.194
1231.57	504.724
1231.84	487.997
1232.12	487.981
1232.4	521.583
1232.67	528.869
1232.95	555.116
1233.23	502.55
1233.5	525.605
1233.78	508.778
1234.06	570.779
1234.33	516.194
1234.61	537.253
1234.89	513.156
1235.16	514.286
1235.44	497.503
1235.71	516.465
1235.99	512.317
1236.27	529.176
1236.54	488.155
1236.82	539.601
1237.1	502.721
1237.37	517.317
1237.65	489.822
1237.93	484.39
1238.2	559.795
1238.48	538.598
1238.76	511.123
1239.03	526.706
1239.31	540.24
1239.58	507.659
1239.86	513.89
1240.14	524.332
1240.41	520.116
1240.69	508.577
1240.97	483.428
1241.24	515.943
1241.52	518.053
1241.79	553.639
1242.07	510.563
1242.35	487.445
1242.62	529.365
1242.9	502.143
1243.18	554.615
1243.45	503.318
1243.73	526.366
1244	495.965
1244.28	487.605
1244.56	510.656
1244.83	531.582
1245.11	512.656
1245.39	528.258
1245.66	506.118
1245.94	570.869
1246.21	538.217
1246.49	554.883
1246.76	485.749
1247.04	538.082
1247.32	525.505
1247.59	520.221
1247.87	525.437
1248.14	503.398
1248.42	540.864
1248.7	536.569
1248.97	503.07
1249.25	501.003
1249.52	519.862
1249.8	540.739
1250.08	496.788
1250.35	534.44
1250.63	520.728
1250.9	522.677
1251.18	478.657
1251.45	513.04
1251.73	496.228
1252.01	493.002
1252.28	513.794
1252.56	521.002
1252.83	539.691
1253.11	532.264
1253.39	540.505
1253.66	539.402
1253.94	484.092
1254.21	488.339
1254.49	516.61
1254.76	497.922
1255.04	517.798
1255.31	502.129
1255.59	494.853
1255.87	537.661
1256.14	484.374
1256.42	482.301
1256.69	504.265
1256.97	489.709
1257.24	488.682
1257.52	523.119
1257.79	495.885
1258.07	518.808
1258.35	508.321
1258.62	515.581
1258.9	525.956
1259.17	512.257
1259.45	484.059
1259.72	518.555
1260	533.241
1260.27	474.969
1260.55	538.532
1260.82	554.054
1261.1	500.629
1261.37	522.409
1261.65	513.973
1261.92	532.817
1262.2	532.242
1262.48	524.57
1262.75	498.74
1263.02	540.739
1263.3	515.045
1263.58	523.144
1263.85	549.745
1264.13	515.69
1264.4	586.221
1264.68	578.141
1264.95	598.68
1265.23	571.352
1265.5	524.314
1265.78	488.73
1266.05	529.385
1266.33	541.915
1266.6	482.386
1266.88	492.896
1267.15	524.34
1267.43	516.092
1267.7	513.087
1267.98	518.461
1268.25	539.555
1268.53	542.93
1268.8	478.19
1269.08	474.088
1269.35	560.068
1269.63	481.547
1269.9	489.894
1270.18	499.208
1270.45	506.379
1270.73	496.843
1271	531.258
1271.28	479.88
1271.55	466.238
1271.83	506.976
1272.1	525.844
1272.38	542.707
1272.65	481.085
1272.93	501.163
1273.2	491.859
1273.47	504.558
1273.75	499.447
1274.03	515.299
1274.3	497.602
1274.57	538.586
1274.85	531.262
1275.12	525.99
1275.4	513.4
1275.67	471.489
1275.95	517.726
1276.22	506.268
1276.5	494.838
1276.77	527.468
1277.05	504.463
1277.32	475.123
1277.6	522.505
1277.87	547.843
1278.14	462.842
1278.42	499.719
1278.69	497.705
1278.97	498.893
1279.24	557.871
1279.52	511.669
1279.79	465.349
1280.07	498.966
1280.34	518.883
1280.61	532.53
1280.89	523.1
1281.16	507.366
1281.44	495.914
1281.71	515.008
1281.99	535.073
1282.26	531.898
1282.53	506.678
1282.81	529.892
1283.08	504.534
1283.36	530.583
1283.63	492.269
1283.91	537.268
1284.18	632.873
1284.45	630.05
1284.73	883.146
1285	1268.96
1285.28	1285.8
1285.55	932.344
1285.83	703.552
1286.1	540.367
1286.37	574.178
1286.65	540.469
1286.92	527.728
1287.2	499.288
1287.47	511.885
1287.75	523.384
1288.02	508.551
1288.29	470.606
1288.57	491.643
1288.84	520.065
1289.12	517.992
1289.39	497.012
1289.66	511.835
1289.94	514.031
1290.21	474.11
1290.49	508.95
1290.76	467.859
1291.03	524.681
1291.31	490.942
1291.58	487.77
1291.86	493.025
1292.13	508.799
1292.4	481.415
1292.68	484.601
1292.95	487.727
1293.22	536.127
1293.5	456.108
1293.77	483.644
1294.05	496.486
1294.32	504.073
1294.59	505.181
1294.87	480.923
1295.14	529.39
1295.42	493.622
1295.69	526.534
1295.96	531.04
1296.24	518.738
1296.51	507.323
1296.79	485.174
1297.06	541.204
1297.33	512.604
1297.61	499.829
1297.88	500.779
1298.15	516.504
1298.43	489.963
1298.7	494.24
1298.97	473.075
1299.25	524.729
1299.52	511.983
1299.79	484.451
1300.07	523.497
1300.34	433.846
1300.62	494.069
1300.89	487.742
1301.16	482.435
1301.44	487.691
1301.71	483.487
1301.98	485.676
1302.25	504.759
1302.53	492.122
1302.8	501.638
1303.08	455.148
1303.35	499.476
1303.62	512.09
1303.9	490.874
1304.17	484.516
1304.44	510.92
1304.72	508.805
1304.99	480.283
1305.26	487.61
1305.54	487.519
1305.81	519.065
1306.08	508.392
1306.35	487.165
1306.63	501.829
1306.9	487.015
1307.18	503.882
1307.45	480.718
1307.72	512.37
1308	473.333
1308.27	518.677
1308.54	470.18
1308.81	531.321
1309.09	521.852
1309.36	518.764
1309.63	504.062
1309.91	503.075
1310.18	492.564
1310.45	484.103
1310.73	532.609
1311	537.881
1311.27	453.474
1311.55	519.982
1311.82	488.338
1312.09	516.872
1312.37	476.84
1312.64	499.078
1312.91	510.723
1313.18	501.192
1313.46	501.108
1313.73	494.752
1314	503.146
1314.28	502.049
1314.55	497.821
1314.82	479.901
1315.09	507.392
1315.37	492.669
1315.64	521.233
1315.91	481.166
1316.18	546.71
1316.46	512.884
1316.73	493.836
1317	468.464
1317.28	492.735
1317.55	481.113
1317.82	490.683
1318.09	503.402
1318.37	472.794
1318.64	506.614
1318.91	520.355
1319.18	501.335
1319.46	473.848
1319.73	485.444
1320	523.451
1320.28	501.296
1320.55	504.467
1320.82	434.712
1321.09	505.412
1321.37	506.35
1321.64	496.7
1321.91	487.039
1322.18	490.112
1322.46	463.595
1322.73	470.91
1323	521.462
1323.27	489.745
1323.55	462.234
1323.82	532.927
1324.09	493.931
1324.36	491.825
1324.64	540.309
1324.91	460.174
1325.18	516.04
1325.45	484.433
1325.73	484.303
1326	506.209
1326.27	470.105
1326.54	480.289
1326.81	518.019
1327.09	461.165
1327.36	506.566
1327.63	525.851
1327.9	456.504
1328.18	469.306
1328.45	508.489
1328.72	521.338
1328.99	514.114
1329.27	462.459
1329.54	498.264
1329.81	505.698
1330.08	502.506
1330.35	522.503
1330.63	508.718
1330.9	461.162
1331.17	462.101
1331.44	511.498
1331.71	488.114
1331.99	506.852
1332.26	505.619
1332.53	460.213
1332.8	493.739
1333.07	485.149
1333.35	525.979
1333.62	504.778
1333.89	475.196
1334.16	465.6
1334.43	488.57
1334.71	457.987
1334.98	517.703
1335.25	491.352
1335.52	504.892
1335.79	491.153
1336.07	458.545
1336.34	488.876
1336.61	480.409
1336.88	507.598
1337.15	498.099
1337.43	484.419
1337.7	462.362
1337.97	485.362
1338.24	496.762
1338.51	441.122
1338.78	515.417
1339.06	475.531
1339.33	466.05
1339.6	518.385
1339.87	483.844
1340.14	513.187
1340.42	474.445
1340.69	489.12
1340.96	522.643
1341.23	478.642
1341.5	480.71
1341.77	496.377
1342.04	499.458
1342.32	477.388
1342.59	504.492
1342.86	498.074
1343.13	463.417
1343.4	468.577
1343.67	463.306
1343.95	478.973
1344.22	504.063
1344.49	501.976
1344.76	468.503
1345.03	498.781
1345.3	511.241
1345.58	512.166
1345.85	492.143
1346.12	477.386
1346.39	498.107
1346.66	467.58
1346.93	499.775
1347.2	479.797
1347.47	510.93
1347.75	511.825
1348.02	503.386
1348.29	472.046
1348.56	524.111
1348.83	518.857
1349.1	487.509
1349.37	481.162
1349.65	478.979
1349.92	511.169
1350.19	500.659
1350.46	533.879
1350.73	496.304
1351	461.836
1351.27	488.763
1351.54	506.36
1351.81	468.787
1352.09	509.3
1352.36	521.763
1352.63	436.543
1352.9	463.676
1353.17	488.784
1353.44	451.393
1353.71	475.726
1353.98	453.23
1354.25	487.167
1354.53	494.751
1354.8	477.614
1355.07	489.091
1355.34	454.836
1355.61	472.329
1355.88	498.202
1356.15	503.56
1356.42	511.907
1356.69	465.045
1356.96	470.187
1357.24	462.871
1357.51	507.475
1357.78	512.595
1358.05	501.089
1358.32	457.4
1358.59	463.538
1358.86	505.998
1359.13	487.215
1359.4	462.221
1359.67	469.409
1359.94	469.343
1360.22	510.685
1360.49	487.726
1360.76	467.898
1361.03	501.99
1361.3	501.944
1361.57	484.321
1361.84	464.617
1362.11	518.443
1362.38	448.989
1362.65	516.244
1362.92	488.232
1363.19	493.386
1363.46	457.171
1363.73	509.025
1364	457.296
1364.28	470.814
1364.55	496.7
1364.82	489.411
1365.09	483.139
1365.36	496.508
1365.63	516.062
1365.9	486.953
1366.17	488.906
1366.44	498.102
1366.71	489.704
1366.98	457.501
1367.25	448.034
1367.52	477.93
1367.79	462.376
1368.06	485.17
1368.33	475.899
1368.6	507.968
1368.87	466.643
1369.15	492.511
1369.41	494.614
1369.68	511.187
1369.95	532.831
1370.23	517.259
1370.5	462.411
1370.77	476.752
1371.04	502.515
1371.31	488.987
1371.58	474.386
1371.85	487.644
1372.12	486.413
1372.39	507.886
1372.66	475.733
1372.93	492.097
1373.2	514.686
1373.47	500.182
1373.74	497.022
1374.01	461.929
1374.28	485.583
1374.55	492.755
1374.82	457.689
1375.09	505.035
1375.36	488.485
1375.63	457.597
1375.9	481.344
1376.17	456.602
1376.44	485.469
1376.71	479.159
1376.98	468.739
1377.25	525.194
1377.52	531.144
1377.79	473.576
1378.06	487.074
1378.33	480.053
1378.6	481.316
1378.87	491.886
1379.14	532.173
1379.41	500.187
1379.68	486.715
1379.95	494.885
1380.22	460.77
1380.49	455.416
1380.76	531.205
1381.03	472.314
1381.3	466.99
1381.57	489.69
1381.84	495.727
1382.11	473.906
1382.38	434.626
1382.65	502.212
1382.92	490.732
1383.19	514.138
1383.46	480.135
1383.73	482.04
1384	508.608
1384.27	502.379
1384.54	513.668
1384.81	514.733
1385.08	502.515
1385.34	512.907
1385.61	503.867
1385.88	489.625
1386.15	526.689
1386.42	527.781
1386.69	545.344
1386.96	531.01
1387.23	596.734
1387.5	663.99
1387.77	987.421
1388.04	1686.24
1388.31	1865.14
1388.58	1232.91
1388.85	702.942
1389.12	634.022
1389.39	542.012
1389.66	555.398
1389.93	500.006
1390.2	500.858
1390.46	493.281
1390.73	519.755
1391	526.909
1391.27	502.09
1391.54	511.265
1391.81	489.692
1392.08	479.329
1392.35	475.103
1392.62	491.376
1392.89	523.027
1393.16	486.095
1393.43	468.632
1393.7	534.086
1393.97	474.672
1394.23	476.674
1394.5	507.334
1394.77	489.903
1395.04	489.878
1395.31	502.206
1395.58	504.332
1395.85	461.396
1396.12	484.957
1396.39	470.606
1396.66	478.75
1396.93	467.43
1397.2	503.18
1397.46	491.826
1397.73	479.454
1398	473.267
1398.27	471.211
1398.54	496.81
1398.81	485.611
1399.08	490.756
1399.35	512.263
1399.62	489.832
1399.89	445.874
1400.16	452.053
1400.42	509.36
1400.69	504.309
1400.96	483.953
1401.23	476.838
1401.5	470.671
1401.77	486.085
1402.04	473.787
1402.31	503.653
1402.58	470.108
1402.84	453.981
1403.11	490.093
1403.38	481.007
1403.65	488.263
1403.92	515.982
1404.19	474.814
1404.46	467.36
1404.73	493.075
1404.99	466.353
1405.26	451.931
1405.53	499.026
1405.8	503.03
1406.07	490.633
1406.34	439.294
1406.61	448.468
1406.87	470.976
1407.14	496.618
1407.41	481.273
1407.68	533.593
1407.95	534.646
1408.22	525.446
1408.49	547.004
1408.76	543.956
1409.02	593.215
1409.29	584.035
1409.56	667.159
1409.83	592.328
1410.1	551.325
1410.37	511.315
1410.63	464.031
1410.9	496.71
1411.17	466.825
1411.44	515.902
1411.71	503.513
1411.98	462.463
1412.25	495.225
1412.51	469.676
1412.78	511.828
1413.05	480.354
1413.32	461.417
1413.59	456.559
1413.86	457.23
1414.12	495.582
1414.39	479.28
1414.66	485.755
1414.93	510.619
1415.2	491.075
1415.47	469.529
1415.73	492.115
1416	479.805
1416.27	488.055
1416.54	511.715
1416.81	461.439
1417.07	447.104
1417.34	467.698
1417.61	424.601
1417.88	492.457
1418.15	464.738
1418.42	481.184
1418.68	478.118
1418.95	507.94
1419.22	508.971
1419.49	452.453
1419.76	471.925
1420.02	494.437
1420.29	477.898
1420.56	471.643
1420.83	494.134
1421.1	498.13
1421.36	517.536
1421.63	441.536
1421.9	500.064
1422.17	482.74
1422.44	533.225
1422.7	473.813
1422.97	507.988
1423.24	479.614
1423.51	512.988
1423.77	470.676
1424.04	470.71
1424.31	474.936
1424.58	500.086
1424.85	485.743
1425.11	505.351
1425.38	473.908
1425.65	512.941
1425.92	460.563
1426.19	512.014
1426.45	483.25
1426.72	493.417
1426.99	474.829
1427.26	524.925
1427.52	466.353
1427.79	481.525
1428.06	496.724
1428.33	486.401
1428.59	495.581
1428.86	501.729
1429.13	471.036
1429.4	460.832
1429.67	489.559
1429.93	476.315
1430.2	484.611
1430.47	464.241
1430.74	499.189
1431	469.602
1431.27	470.832
1431.54	479.201
1431.81	480.307
1432.07	453.619
1432.34	501.763
1432.61	460.603
1432.87	474.891
1433.14	511.661
1433.41	468.41
1433.68	468.208
1433.95	488.505
1434.21	498.622
1434.48	483.209
1434.75	489.578
1435.01	480.456
1435.28	450.756
1435.55	437.433
1435.82	460.988
1436.08	480.432
1436.35	464.005
1436.62	504.952
1436.89	465.972
1437.15	473.093
1437.42	475.098
1437.69	525.27
1437.95	459.662
1438.22	485.238
1438.49	473.994
1438.76	502.745
1439.02	476.153
1439.29	492.556
1439.56	462.868
1439.82	484.456
1440.09	474.314
1440.36	500.075
1440.63	506.287
1440.89	504.264
1441.16	464.276
1441.43	498.141
1441.69	508.355
1441.96	455.977
1442.23	516.421
1442.49	472.431
1442.76	506.28
1443.03	474.583
1443.3	488.877
1443.56	469.307
1443.83	479.489
1444.1	519.417
1444.36	482.491
1444.63	498.921
1444.9	478.552
1445.16	528.926
1445.43	478.816
1445.7	498.266
1445.97	500.268
1446.23	517.66
1446.5	491.97
1446.77	466.288
1447.03	467.274
1447.3	504.152
1447.57	507.174
1447.83	497.879
1448.1	502.951
1448.37	498.843
1448.63	487.648
1448.9	504.165
1449.17	444.704
1449.43	490.848
1449.7	526.698
1449.97	487.659
1450.23	490.652
1450.5	502.869
1450.77	485.397
1451.03	508.929
1451.3	487.362
1451.57	469.895
1451.83	469.844
1452.1	484.139
1452.37	489.221
1452.63	410.309
1452.9	506.617
1453.17	497.416
1453.43	448.284
1453.7	473.943
1453.97	464.72
1454.23	484.154
1454.5	481.05
1454.77	464.65
1455.03	469.771
1455.3	518.939
1455.56	474.842
1455.83	471.774
1456.1	504.647
1456.36	459.594
1456.63	475.989
1456.9	447.248
1457.16	470.736
1457.43	467.583
1457.7	481.886
1457.96	477.753
1458.23	494.12
1458.49	522.802
1458.76	481.834
1459.03	486.98
1459.29	477.779
1459.56	493.16
1459.82	456.282
1460.09	436.794
1460.36	449.055
1460.62	494.094
1460.89	488.927
1461.16	516.524
1461.42	478.561
1461.69	442.655
1461.95	483.541
1462.22	512.119
1462.49	491.551
1462.75	458.702
1463.02	480.082
1463.28	492.241
1463.55	501.323
1463.82	478.719
1464.08	488.922
1464.35	461.458
1464.61	501.572
1464.88	484.347
1465.15	416.986
1465.41	470.892
1465.68	471.051
1465.94	478.825
1466.21	521.633
1466.48	488.104
1466.74	456.411
1467.01	468.449
1467.27	461.24
1467.54	448.018
1467.8	472.469
1468.07	449.988
1468.34	477.505
1468.6	482.592
1468.87	476.457
1469.13	438.685
1469.4	458.015
1469.67	451.835
1469.93	475.194
1470.2	460.806
1470.46	461.733
1470.73	458.608
1470.99	479.946
1471.26	444.247
1471.53	500.209
1471.79	459.366
1472.06	446.059
1472.32	496.937
1472.59	488.767
1472.85	448.019
1473.12	534.549
1473.39	475.452
1473.65	449.928
1473.92	483.444
1474.18	483.381
1474.45	429.406
1474.71	491.476
1474.98	435.54
1475.24	463.045
1475.51	438.618
1475.78	485.419
1476.04	491.476
1476.31	478.176
1476.57	469.985
1476.84	463.834
1477.1	484.1
1477.37	481.981
1477.63	495.157
1477.9	497.168
1478.16	469.693
1478.43	436.078
1478.69	489.869
1478.96	501.99
1479.22	475.486
1479.49	489.626
1479.76	506.801
1480.02	474.181
1480.29	494.387
1480.55	448.52
1480.82	462.594
1481.08	449.306
1481.35	492.889
1481.61	464.395
1481.88	444.141
1482.14	467.546
1482.41	437.179
1482.67	469.748
1482.94	447.481
1483.2	459.658
1483.47	460.725
1483.73	441.457
1484	456.685
1484.26	454.633
1484.53	479.82
1484.79	477.517
1485.06	455.719
1485.32	457.12
1485.59	470.043
1485.85	475.738
1486.12	492.036
1486.38	457.714
1486.65	464.98
1486.91	466.506
1487.18	509.296
1487.44	456.672
1487.71	457.545
1487.97	475.665
1488.24	468.504
1488.5	480.574
1488.77	475.401
1489.03	420.626
1489.3	500.484
1489.56	449.832
1489.83	494.304
1490.09	433.565
1490.36	450.755
1490.62	501.325
1490.89	499.236
1491.15	501.154
1491.42	445.437
1491.68	485.831
1491.95	456.484
1492.21	501.972
1492.48	453.459
1492.74	458.494
1493	463.519
1493.27	504.946
1493.53	421.032
1493.8	441.214
1494.06	449.279
1494.33	458.377
1494.59	444.249
1494.86	465.512
1495.12	481.664
1495.39	480.57
1495.65	468.297
1495.92	442.869
1496.18	482.119
1496.45	459.813
1496.71	496.088
1496.97	470.785
1497.24	459.613
1497.5	474.742
1497.77	453.538
1498.03	511.032
1498.3	432.297
1498.56	484.774
1498.82	465.604
1499.09	451.485
1499.35	474.713
1499.62	493.917
1499.88	448.53
1500.15	473.801
1500.41	474.823
1500.68	457.651
1500.94	485.897
1501.2	475.781
1501.47	479.762
1501.73	449.387
1502	486.692
1502.26	469.517
1502.52	464.448
1502.79	475.497
1503.05	449.161
1503.32	453.101
1503.58	470.186
1503.85	473.12
1504.11	458.997
1504.37	433.826
1504.64	485.27
1504.9	485.269
1505.17	499.359
1505.43	454.936
1505.7	504.26
1505.96	472.868
1506.22	458.589
1506.49	464.596
1506.75	471.628
1507.02	495.822
1507.28	467.676
1507.54	492.88
1507.81	483.828
1508.07	449.556
1508.34	474.711
1508.6	457.55
1508.86	443.447
1509.13	445.474
1509.39	451.521
1509.66	430.348
1509.92	468.631
1510.18	445.5
1510.45	458.625
1510.71	486.745
1510.98	471.533
1511.24	470.411
1511.5	456.176
1511.77	485.175
1512.03	456.746
1512.29	461.528
1512.56	447.224
1512.82	499.267
1513.08	458.958
1513.35	469.892
1513.61	443.694
1513.88	452.686
1514.14	453.791
1514.4	459.989
1514.67	480.12
1514.93	459.971
1515.2	474.923
1515.46	452.703
1515.72	489.718
1515.99	472.506
1516.25	467.343
1516.51	468.242
1516.78	450.139
1517.04	450.098
1517.3	457.081
1517.57	482.128
1517.83	476.116
1518.09	463.11
1518.36	464.192
1518.62	476.247
1518.88	421.11
1519.15	482.317
1519.41	449.25
1519.67	447.273
1519.94	462.34
1520.2	439.248
1520.47	487.356
1520.73	448.194
1520.99	464.266
1521.26	489.389
1521.52	477.387
1521.78	451.31
1522.05	466.337
1522.31	424.151
1522.57	430.117
1522.84	449.118
1523.1	456.086
1523.36	482.078
1523.62	465.887
1523.89	494.757
1524.15	471.577
1524.41	430.404
1524.68	447.348
1524.94	463.292
1525.2	431.294
1525.47	465.36
1525.73	485.402
1525.99	475.451
1526.26	503.587
1526.52	476.659
1526.78	437.662
1527.05	465.759
1527.31	502.831
1527.57	456.65
1527.84	466.637
1528.1	456.571
1528.36	430.476
1528.63	455.466
1528.89	488.47
1529.15	478.403
1529.41	505.418
1529.68	467.341
1529.94	460.294
1530.2	423.162
1530.47	510.257
1530.73	453.215
1530.99	498.378
1531.25	472.426
1531.52	438.425
1531.78	483.521
1532.04	467.452
1532.31	484.494
1532.57	483.421
1532.83	442.391
1533.09	464.555
1533.36	453.688
1533.62	421.731
1533.88	486.986
1534.15	474.982
1534.41	463.938
1534.67	470.928
1534.94	449.822
1535.2	474.842
1535.46	444.709
1535.72	470.687
1535.99	473.452
1536.25	468.292
1536.51	462.171
1536.77	425.959
1537.04	444.811
1537.3	466.671
1537.56	453.594
1537.82	454.484
1538.09	423.475
1538.35	421.382
1538.61	463.233
1538.87	462.18
1539.14	457.132
1539.4	476.249
1539.66	496.525
1539.92	441.823
1540.19	526.178
1540.45	460.262
1540.71	473.491
1540.97	462.586
1541.24	456.616
1541.5	451.407
1541.76	419.303
1542.02	420.184
1542.29	457.143
1542.55	497.087
1542.81	457.903
1543.07	501.841
1543.34	479.701
1543.6	474.573
1543.86	457.406
1544.12	464.245
1544.39	427.257
1544.65	461.282
1544.91	471.377
1545.17	462.51
1545.43	458.603
1545.7	462.787
1545.96	483.913
1546.22	463.939
1546.48	504.054
1546.74	495.004
1547.01	457.959
1547.27	477.041
1547.53	488.114
1547.79	477.139
1548.06	487.047
1548.32	462.754
1548.58	453.736
1548.84	458.762
1549.1	463.901
1549.37	497.49
1549.63	492.968
1549.89	461.868
1550.15	497.125
1550.42	448.587
1550.68	477.338
1550.94	451.765
1551.2	474.306
1551.46	470.966
1551.73	435.864
1551.99	456.852
1552.25	468.745
1552.51	505.096
1552.77	466.126
1553.03	462.042
1553.3	460.899
1553.56	456.541
1553.82	471.51
1554.08	491.526
1554.34	464.342
1554.61	469.216
1554.87	490.099
1555.13	451.846
1555.39	473.822
1555.65	465.771
1555.91	461.755
1556.18	455.768
1556.44	448.755
1556.7	459.698
1556.96	473.722
1557.22	482.762
1557.48	474.771
1557.75	444.72
1558.01	481.754
1558.27	471.643
1558.53	437.445
1558.79	454.346
1559.06	466.193
1559.32	416.025
1559.58	499.916
1559.84	496.8
1560.1	475.713
1560.36	462.644
1560.63	438.602
1560.89	452.552
1561.15	472.506
1561.41	478.491
1561.67	479.519
1561.93	439.619
1562.19	454.732
1562.46	465.865
1562.72	453.862
1562.98	448.833
1563.24	473.791
1563.5	430.805
1563.76	485.756
1564.02	502.719
1564.29	442.876
1564.55	496.078
1564.81	457.104
1565.07	505.1
1565.33	414.794
1565.59	459.98
1565.85	477.774
1566.11	481.139
1566.38	469.148
1566.64	474.712
1566.9	480.458
1567.16	436.183
1567.42	444.533
1567.68	455.932
1567.94	457.82
1568.2	476.484
1568.47	443.544
1568.73	470.598
1568.99	488.625
1569.25	453.577
1569.51	461.399
1569.77	477.281
1570.03	457.293
1570.29	459.323
1570.55	448.334
1570.82	467.323
1571.08	456.315
1571.34	471.278
1571.6	458.239
1571.86	448.169
1572.12	459.071
1572.38	466.043
1572.64	477.962
1572.9	441.914
1573.17	446.834
1573.43	456.747
1573.69	398.773
1573.95	456.594
1574.21	461.588
1574.47	441.702
1574.73	460.769
1574.99	475.855
1575.25	450.997
1575.51	436.114
1575.78	467.168
1576.04	485.173
1576.3	455.152
1576.56	466.13
1576.82	465.071
1577.08	461.921
1577.34	454.746
1577.6	461.561
1577.86	447.424
1578.12	456.252
1578.38	464.086
1578.64	442.059
1578.9	438.039
1579.17	471.924
1579.43	454.966
1579.69	453.967
1579.95	482.9
1580.21	449.062
1580.47	473.022
1580.73	473.025
1580.99	451.061
1581.25	466.955
1581.51	476.843
1581.77	426.935
1582.03	491.619
1582.29	446.671
1582.55	478.513
1582.81	479.469
1583.07	444.559
1583.33	441.539
1583.59	466.421
1583.85	453.454
1584.11	462.365
1584.38	458.374
1584.64	468.368
1584.9	486.323
1585.16	446.492
1585.42	473.376
1585.68	443.462
1585.94	445.436
1586.2	466.301
1586.46	483.112
1586.72	483.981
1586.98	444.076
1587.24	444.01
1587.5	424.055
1587.76	431.971
1588.02	451.842
1588.28	470.742
1588.54	464.805
1588.8	474.803
1589.06	462.924
1589.32	438.09
1589.58	464.024
1589.84	485.964
1590.1	483.984
1590.36	449.129
1590.62	462.104
1590.88	482.068
1591.14	443.267
1591.4	499.017
1591.66	469.131
1591.92	455.151
1592.18	469.037
1592.44	477.885
1592.7	447.87
1592.96	455.718
1593.22	452.656
1593.48	486.293
1593.74	473.169
1594	454.086
1594.26	438.067
1594.52	457.866
1594.78	456.866
1595.04	474.795
1595.3	451.04
1595.56	450.101
1595.82	475.931
1596.08	452.862
1596.34	455.825
1596.6	452.839
1596.86	435.951
1597.12	447.881
1597.38	460.819
1597.64	454.893
1597.9	443.004
1598.16	473.785
1598.42	467.772
1598.68	442.851
1598.94	450.667
1599.2	459.484
1599.46	470.308
1599.72	465.259
1599.98	474.103
1600.24	474.015
1600.5	446.158
1600.76	442.098
1601.02	447.93
1601.28	489.409
1601.54	477.35
1601.8	460.349
1602.06	477.05
1602.32	418.534
1602.58	447.149
1602.84	450.014
1603.1	454.844
1603.36	471.551
1603.62	447.721
1603.88	458.534
1604.14	459.478
1604.4	468.359
1604.66	481.214
1604.92	484.188
1605.17	472.321
1605.43	450.572
1605.69	449.593
1605.95	471.38
1606.21	476.374
1606.47	431.919
1606.73	447.798
1606.99	425.083
1607.25	464.737
1607.51	466.782
1607.77	472.683
1608.03	452.291
1608.29	446.837
1608.55	447.654
1608.81	476.533
1609.07	441.956
1609.32	443.781
1609.58	477.575
1609.84	469.876
1610.1	435.136
1610.36	432.572
1610.62	420.872
1610.88	445.598
1611.14	412.192
1611.4	454.84
1611.66	473.166
1611.92	430.768
1612.18	422.503
1612.44	466.5
1612.69	448.797
1612.95	457.625
1613.21	438.794
1613.47	468.01
1613.73	467.742
1613.99	439.309
1614.25	473.179
1614.51	442.476
1614.77	443.125
1615.03	441.238
1615.29	462.714
1615.54	451.556
1615.8	443.941
1616.06	431.841
1616.32	462.083
1616.58	452.125
1616.84	450.746
1617.1	447.458
1617.36	450.363
1617.62	471.464
1617.88	466.275
1618.13	432.088
1618.39	444.512
1618.65	455.757
1618.91	445.653
1619.17	456.254
1619.43	456.775
1619.69	448.449
1619.95	455.38
1620.2	452.997
1620.46	459.094
1620.72	453.293
1620.98	452.558
1621.24	438.736
1621.5	448.929
1621.76	455.974
1622.02	453.581
1622.27	447.996
1622.53	433.505
1622.79	439.921
1623.05	440.172
1623.31	439.673
1623.57	454.529
1623.83	458.031
1624.09	467.015
1624.34	462.507
1624.6	444.986
1624.86	439.298
1625.12	442.384
1625.38	446.459
1625.64	441.56
1625.9	437.972
1626.15	448.658
1626.41	450.756
1626.67	438.324
1626.93	456.351
1627.19	458.681
1627.45	456.367
1627.7	462.474
1627.96	473.509
1628.22	461.411
1628.48	437.291
1628.74	431.447
1629	451.146
1629.26	455.954
1629.51	433.94
1629.77	445.516
1630.03	453.079
1630.29	439.535
1630.55	419.309
1630.81	434.409
1631.06	461.156
1631.32	430.832
1631.53	460.859
1631.79	455.011
1632.05	457.059
1632.31	433.478
1632.57	429.507
1632.84	465.106
1633.1	433.773
1633.36	463.188
1633.62	469.84
1633.88	439.236
1634.14	440.276
1634.4	430.483
1634.66	458.097
1634.93	413.745
1635.19	461.045
1635.45	436.378
1635.71	458.028
1635.97	445.171
1636.23	467.783
1636.49	480.527
1636.75	449.919
1637.02	468.567
1637.28	408.406
1637.54	463.468
1637.8	433.879
1638.06	478.163
1638.32	469.252
1638.58	426.867
1638.84	433.718
1639.1	439.621
1639.37	458.318
1639.63	494.727
1639.89	410.063
1640.15	401.19
1640.41	433.649
1640.67	460.232
1640.93	459.328
1641.19	427.874
1641.46	449.547
1641.72	408.153
1641.98	431.73
1642.24	447.444
1642.5	424.771
1642.76	475.933
1643.02	444.406
1643.28	432.571
1643.54	435.507
1643.8	458.126
1644.06	440.366
1644.33	440.31
1644.59	470.735
1644.85	463.779
1645.11	455.886
1645.37	428.366
1645.63	427.432
1645.89	459.931
1646.15	452.058
1646.41	443.149
1646.67	436.201
1646.93	451.888
1647.19	463.656
1647.46	456.715
1647.72	464.526
1647.98	471.36
1648.24	475.276
1648.5	438.9
1648.76	422.247
1649.02	466.594
1649.28	441.228
1649.54	447.215
1649.8	436.33
1650.06	445.132
1650.32	467.761
1650.58	449.185
1650.85	441.407
1651.11	409.96
1651.37	424.81
1651.63	442.595
1651.89	466.263
1652.15	442.607
1652.41	459.353
1652.67	450.495
1652.93	420.881
1653.19	445.454
1653.45	455.275
1653.71	416.845
1653.97	453.312
1654.23	417.876
1654.49	453.373
1654.75	469.152
1655.01	431.725
1655.27	432.758
1655.53	424.95
1655.8	463.529
1656.06	421.265
1656.32	467.74
1656.57	458.923
1656.84	437.241
1657.1	449.1
1657.36	424.402
1657.62	447.059
1657.88	439.107
1658.14	493.348
1658.4	441.991
1658.66	450.816
1658.92	446.799
1659.18	467.44
1659.44	437.776
1659.7	451.509
1659.96	441.575
1660.22	450.343
1660.48	450.373
1660.74	476.059
1661	435.694
1661.26	442.669
1661.52	430.906
1661.78	466.509
1662.04	416.215
1662.3	448.806
1662.56	435.572
1662.82	420.582
1663.08	425.957
1663.34	458.331
1663.6	477.049
1663.86	443.328
1664.12	440.436
1664.38	456.686
1664.64	429.147
1664.9	414.368
1665.16	436.3
1665.42	462.07
1665.68	459.59
1665.94	396.046
1666.2	433.635
1666.46	467.342
1666.72	434.657
1666.98	459.713
1667.24	458.278
1667.5	418.16
1667.76	437.801
1668.02	428.84
1668.28	458.39
1668.54	459.292
1668.8	422.792
1669.06	429.884
1669.32	439.996
1669.58	443
1669.84	464.733
1670.1	486.474
1670.36	443.946
1670.62	477.52
1670.88	433.291
1671.14	418.6
1671.4	445.238
1671.66	443.218
1671.92	439.238
1672.18	422.447
1672.44	436.315
1672.69	437.311
1672.95	454.106
1673.21	472.878
1673.47	425.434
1673.73	460.045
1673.99	451.171
1674.25	414.626
1674.51	447.309
1674.77	438.456
1675.03	412.786
1675.29	456.389
1675.55	428.745
1675.81	416.9
1676.07	445.598
1676.33	419.853
1676.59	467.363
1676.85	453.524
1677.11	430.765
1677.37	455.495
1677.63	463.379
1677.89	447.495
1678.14	430.603
1678.4	429.523
1678.66	473.929
1678.92	449.114
1679.18	438.168
1679.44	448.981
1679.7	421.257
1679.96	426.148
1680.22	458.712
1680.48	447.798
1680.74	426.005
1681	454.607
1681.26	451.595
1681.52	458.481
1681.78	426.851
1682.03	445.61
1682.29	461.408
1682.55	440.658
1682.81	458.442
1683.07	414.947
1683.33	457.406
1683.59	432.696
1683.85	436.639
1684.11	465.266
1684.37	466.217
1684.63	439.471
1684.89	473.99
1685.14	444.333
1685.4	423.573
1685.66	468.98
1685.92	410.71
1686.18	431.441
1686.44	446.256
1686.7	446.284
1686.96	464.147
1687.22	450.357
1687.48	453.323
1687.73	434.511
1687.99	421.612
1688.25	429.457
1688.51	444.221
1688.77	444.164
1689.03	440.142
1689.29	445.963
1689.55	450.814
1689.81	471.447
1690.06	464.441
1690.32	458.411
1690.58	439.635
1690.84	450.58
1691.1	470.362
1691.36	448.689
1691.62	433.903
1691.88	490.192
1692.13	447.789
1692.39	422.121
1692.65	475.382
1692.91	475.304
1693.17	476.191
1693.43	450.431
1693.69	455.231
1693.95	423.542
1694.2	435.275
1694.46	476.568
1694.72	439.023
1694.98	435.011
1695.24	452.727
1695.5	450.775
1695.76	424.193
1696.01	449.825
1696.27	441.966
1696.53	423.296
1696.79	449.936
1697.05	464.706
1697.31	487.319
1697.57	455.693
1697.82	472.313
1698.08	461.348
1698.34	441.552
1698.6	413.906
1698.86	434.497
1699.12	440.334
1699.38	417.662
1699.63	426.499
1699.89	459.97
1700.15	454.062
1700.41	443.237
1700.67	413.632
1700.92	447.055
1701.18	424.4
1701.44	425.351
1701.7	440.059
1701.96	464.566
1702.22	428.084
1702.47	445.695
1702.73	435.769
1702.99	428.802
1703.25	444.491
1703.51	436.609
1703.77	466.05
1704.02	413.926
1704.28	448.277
1704.54	434.554
1704.8	428.708
1705.06	444.436
1705.32	447.354
1705.57	410.963
1705.83	420.78
1706.09	441.405
1706.35	446.24
1706.61	437.297
1706.86	417.546
1707.12	456.702
1707.38	473.266
1707.64	454.511
1707.9	429.856
1708.16	436.576
1708.41	431.528
1708.67	422.562
1708.93	443.953
1709.19	450.657
1709.44	403.545
1709.7	422.078
1709.96	428.893
1710.22	473.908
1710.48	466.077
1710.73	456.293
1710.99	432.825
1711.25	455.403
1711.51	419.203
1711.77	445.676
1712.02	433.947
1712.28	418.273
1712.54	444.662
1712.8	426.905
1713.06	446.295
1713.31	422.616
1713.57	447.865
1713.83	445.739
1714.09	438.722
1714.34	440.587
1714.6	424.893
1714.86	439.497
1715.12	448.253
1715.38	441.4
1715.63	439.513
1715.89	452.304
1716.15	443.498
1716.41	450.292
1716.66	464.871
1716.92	449.137
1717.18	425.569
1717.44	449.811
1717.69	453.516
1717.95	415.252
1718.21	434.556
1718.47	448.022
1718.72	425.464
1718.98	460.417
1719.24	431.142
1719.5	465.202
1719.75	433.058
1720.01	412.58
1720.27	414.549
1720.53	443.768
1720.78	449.557
1721.04	439.733
1721.3	438.632
1721.56	439.503
1721.81	436.488
1722.07	433.463
1722.33	429.458
1722.59	444.891
1722.84	434.08
1723.1	418.423
1723.36	408.612
1723.62	442.524
1723.87	414.303
1724.13	423.029
1724.39	460.853
1724.64	435.577
1724.9	429.673
1725.16	430.522
1725.42	442.956
1725.67	428.243
1725.93	405.776
1726.19	456.065
1726.45	439.527
1726.7	421.138
1726.96	426.912
1727.22	440.404
1727.47	435.397
1727.73	446.999
1727.99	425.785
1728.24	447.061
1728.5	432.449
1728.76	470.036
1729.02	425.87
1729.27	449.339
1729.53	456.795
1729.79	428.088
1730.05	411.883
1730.3	444.888
1730.56	417.57
1730.82	424.205
1731.07	439.6
1731.33	426.559
1731.59	425.613
1731.84	442.043
1732.1	422.695
1732.36	400.435
1732.61	447.736
1732.87	456.374
1733.13	445.67
1733.39	456.191
1733.64	455.078
1733.9	452.959
1734.16	432.501
1734.41	431.397
1734.67	414.863
1734.93	435.925
1735.18	464.68
1735.44	414.436
1735.7	436.459
1735.95	422.881
1736.21	448.798
1736.47	428.535
1736.72	427.52
1736.98	432.266
1737.24	411.032
1737.49	418.66
1737.75	439.756
1738.01	470.468
1738.26	458.838
1738.52	414.509
1738.78	424.986
1739.03	430.654
1739.29	451.679
1739.55	449.619
1739.8	462.883
1740.06	440.593
1740.32	430.805
1740.57	443.099
1740.83	428.572
1741.09	423.667
1741.34	449.433
1741.6	419.629
1741.86	449.225
1742.11	440.524
1742.37	428.979
1742.63	417.457
1742.88	408.799
1743.14	458.525
1743.4	442.215
1743.65	424.966
1743.91	416.302
1744.16	423.863
1744.42	459.179
1744.68	426.579
1744.93	410.28
1745.19	446.617
1745.45	412.182
1745.7	442.783
1745.96	450.403
1746.22	429.298
1746.47	440.677
1746.73	420.481
1746.98	414.612
1747.24	423.106
1747.5	408.65
1747.75	438.15
1748.01	412.262
1748.27	447.526
1748.52	430.325
1748.78	417.913
1749.03	440.833
1749.29	416.033
1749.55	423.711
1749.8	423.772
1750.06	434.354
1750.32	421.07
1750.57	413.516
1750.83	432.712
1751.08	442.298
1751.34	411.75
1751.6	394.545
1751.85	408.824
1752.11	445.013
1752.36	437.226
1752.62	401.778
1752.88	417.917
1753.13	435.953
1753.39	443.483
1753.64	428.122
1753.9	426.132
1754.15	423.194
1754.41	401.155
1754.67	406.779
1754.92	426.73
1755.18	415.222
1755.43	418.979
1755.69	433.213
1755.95	452.19
1756.2	415.883
1756.46	431.964
1756.71	433.744
1756.97	413.606
1757.23	418.223
1757.48	430.46
1757.74	443.716
1757.99	417.974
1758.25	441.771
1758.5	437.138
1758.76	436.219
1759.02	422.9
1759.27	423.849
1759.53	425.75
1759.78	434.329
1760.04	442.878
1760.3	446.643
1760.55	437.082
1760.81	456.06
1761.06	431.266
1761.32	395.046
1761.57	448.211
1761.83	434.812
1762.08	440.454
1762.34	436.61
1762.6	411.871
1762.85	450.912
1763.11	434.791
1763.36	426.235
1763.62	430.963
1763.87	444.281
1764.13	384.398
1764.38	404.402
1764.64	436.82
1764.89	415.09
1765.15	421.81
1765.4	425.666
1765.66	419.987
1765.92	445.713
1766.17	437.153
1766.43	429.53
1766.68	440.932
1766.94	423.754
1767.19	424.669
1767.45	421.799
1767.7	418.901
1767.96	421.69
1768.21	407.345
1768.47	400.63
1768.73	412.954
1768.98	423.381
1769.24	440.314
1769.49	434.359
1769.75	417.978
1770	442.514
1770.26	423.528
1770.51	467.312
1770.77	409.469
1771.02	387.618
1771.28	449.397
1771.53	426.702
1771.79	406.883
1772.04	441.159
1772.3	420.256
1772.55	426.025
1772.81	425.154
1773.06	411.892
1773.32	445.24
1773.57	411.976
1773.83	421.53
1774.08	447.264
1774.34	432.061
1774.59	451.119
1774.85	428.283
1775.1	435.002
1775.36	454.076
1775.61	445.577
1775.87	413.375
1776.12	444.93
1776.38	440.214
1776.63	433.55
1776.89	454.495
1777.14	435.366
1777.4	413.364
1777.65	427.605
1777.91	435.143
1778.16	432.199
1778.42	449.254
1778.67	398.697
1778.93	431.925
1779.18	427.044
1779.44	420.256
1779.69	420.179
1779.95	397.332
1780.2	446.925
1780.46	456.467
1780.71	437.457
1780.97	449.863
1781.22	416.583
1781.47	401.352
1781.73	419.451
1781.98	402.343
1782.24	402.392
1782.49	416.736
1782.75	430.165
1783	422.602
1783.26	416.927
1783.51	416.966
1783.77	449.421
1784.02	435.174
1784.28	438.091
1784.53	427.674
1784.79	420.146
1785.04	437.377
1785.29	443.131
1785.55	434.537
1785.8	395.39
1786.06	423.96
1786.31	413.415
1786.57	402.921
1786.82	441.108
1787.08	445.944
1787.33	423.128
1787.58	399.373
1787.84	435.807
1788.09	430.331
1788.35	427.734
1788.6	386.857
1788.86	461.681
1789.11	442.606
1789.37	415.89
1789.62	437.117
1789.87	429.555
1790.13	430.563
1790.38	433.488
1790.64	416.282
1790.89	395.188
1791.15	435.426
1791.4	435.319
1791.65	433.128
1791.91	436.914
1792.16	434.949
1792.42	433.989
1792.67	423.466
1792.93	412.946
1793.18	434.067
1793.43	425.475
1793.69	420.689
1793.94	423.56
1794.2	414.027
1794.45	417.87
1794.7	430.311
1794.96	416.825
1795.21	404.478
1795.47	448.907
1795.72	430.901
1795.97	432.928
1796.23	428.19
1796.48	400.416
1796.74	438.902
1796.99	438.983
1797.25	416.006
1797.5	425.688
1797.75	431.517
1798.01	415.226
1798.26	421.035
1798.51	420.106
1798.77	405.701
1799.02	444.16
1799.28	412.398
1799.53	430.612
1799.78	417.079
1800.04	415.067
1800.29	410.179
1800.55	429.328
1800.8	370.669
1801.05	415.775
1801.31	413.821
1801.56	419.564
1801.81	413.793
1802.07	428.209
1802.32	409.019
1802.58	456.126
1802.83	436.002
1803.08	445.679
1803.34	419.809
1803.59	425.661
1803.84	394.958
1804.1	448.843
1804.35	461.363
1804.61	440.254
1804.86	415.317
1805.11	432.708
1805.37	414.512
1805.62	438.677
1805.87	455.149
1806.13	405.155
1806.38	436.048
1806.64	445.746
1806.89	450.619
1807.14	414.029
1807.4	413.073
1807.65	398.613
1807.9	426.557
1808.16	443.904
1808.41	461.254
1808.66	439.089
1808.92	421.745
1809.17	423.682
1809.42	421.763
1809.68	412.13
1809.93	444.919
1810.18	430.469
1810.44	438.19
1810.69	414.083
1810.94	424.661
1811.2	436.201
1811.45	425.582
1811.7	428.458
1811.96	430.373
1812.21	412.053
1812.46	423.635
1812.72	442.959
1812.97	436.264
1813.22	430.548
1813.48	418.063
1813.73	450.882
1813.98	433.572
1814.24	415.325
1814.49	431.841
1814.74	436.784
1815	429.195
1815.25	406.083
1815.5	430.299
1815.76	405.201
1816.01	433.243
1816.26	433.257
1816.52	414.907
1816.77	409.128
1817.02	439.119
1817.27	430.386
1817.53	452.546
1817.78	446.529
1818.03	428.987
1818.29	414.514
1818.54	430.037
1818.79	403.092
1819.05	417.645
1819.3	437.91
1819.55	395.411
1819.8	441.847
1820.06	428.359
1820.31	436.125
1820.56	412.964
1820.82	429.453
1821.07	393.708
1821.32	414.05
1821.58	422.806
1821.83	416.094
1822.08	445.178
1822.33	407.479
1822.59	433.643
1822.84	429.794
1823.09	435.619
1823.34	424.016
1823.6	406.575
1823.85	411.373
1824.1	417.131
1824.36	440.341
1824.61	431.657
1824.86	436.529
1825.11	419.134
1825.37	427.882
1825.62	441.478
1825.87	430.851
1826.12	438.6
1826.38	440.527
1826.63	436.654
1826.88	421.163
1827.14	402.764
1827.39	464.772
1827.64	443.498
1827.89	444.509
1828.15	401.915
1828.4	460.045
1828.65	422.232
1828.9	427.027
1829.16	405.648
1829.41	443.376
1829.66	393.956
1829.91	413.303
1830.17	415.208
1830.42	415.152
1830.67	459.634
1830.92	429.566
1831.18	426.656
1831.43	418.95
1831.68	416.095
1831.93	422.925
1832.19	406.504
1832.44	432.706
1832.69	430.822
1832.94	428.964
1833.2	403.818
1833.45	437.743
1833.7	442.592
1833.95	421.299
1834.2	448.456
1834.46	451.388
1834.71	421.216
1834.96	444.235
1835.21	420.768
1835.47	424.436
1835.72	433.01
1835.97	405.799
1836.22	428.033
1836.48	431.794
1836.73	443.259
1836.98	431.545
1837.23	420.288
1837.48	435.585
1837.74	435.266
1837.99	461.116
1838.24	424.864
1838.49	413
1838.74	426.466
1839	446.533
1839.25	446.852
1839.5	426.667
1839.75	441.255
1840	449.061
1840.26	423.962
1840.51	450.68
1840.76	406.805
1841.01	428.8
1841.27	411.173
1841.52	438.025
1841.77	415.606
1842.02	422.188
1842.27	446.152
1842.53	418.978
1842.78	440.049
1843.03	417.932
1843.28	452.605
1843.53	453.614
1843.78	423.696
1844.04	451.663
1844.29	439.068
1844.54	436.164
1844.79	438.14
1845.04	414.024
1845.3	427.45
1845.55	433.247
1845.8	422.632
1846.05	444.03
1846.3	428.772
1846.55	416.379
1846.81	422.465
1847.06	421.255
1847.31	416.78
1847.56	413.177
1847.81	407.256
1848.07	428.434
1848.32	402.64
1848.57	427.873
1848.82	428.608
1849.07	427.522
1849.32	405.382
1849.57	403.368
1849.83	381.109
1850.08	428.122
1850.33	418.369
1850.58	423.011
1850.83	432.489
1851.09	417.953
1851.34	474.536
1851.59	417.767
1851.84	422.5
1852.09	425.329
1852.34	430.102
1852.59	413.766
1852.84	418.56
1853.1	423.352
1853.35	434.854
1853.6	425.217
1853.85	415.561
1854.1	407.792
1854.35	411.508
1854.6	430.551
1854.86	424.666
1855.11	425.55
1855.36	400.55
1855.61	437.803
1855.86	411.781
1856.11	427.023
1856.36	418.355
1856.61	405.874
1856.87	414.486
1857.12	436.505
1857.37	381.885
1857.62	417.277
1857.87	424.88
1858.12	420.032
1858.37	383.58
1858.63	414.122
1858.88	434.114
1859.13	412.957
1859.38	409.022
1859.63	431.857
1859.88	434.641
1860.13	424.106
1860.38	414.54
1860.63	399.26
1860.89	432.798
1861.14	402.26
1861.39	413.791
1861.64	414.818
1861.89	430.188
1862.14	409.149
1862.39	444.527
1862.64	410.007
1862.9	418.52
1863.15	442.321
1863.4	427.865
1863.65	433.493
1863.9	408.542
1864.15	385.521
1864.4	407.415
1864.65	401.604
1864.9	413.939
1865.15	403.341
1865.4	409.911
1865.66	444.134
1865.91	441.114
1866.16	420.911
1866.41	424.538
1866.66	423.393
1866.91	428.921
1867.16	423.02
1867.41	424.741
1867.66	408.399
1867.91	426.339
1868.16	409.141
1868.41	401.481
1868.67	401.445
1868.92	399.542
1869.17	397.654
1869.42	401.445
1869.67	420.429
1869.92	411.839
1870.17	418.461
1870.42	414.629
1870.67	414.6
1870.92	412.674
1871.17	433.565
1871.42	421.195
1871.67	411.653
1871.92	396.395
1872.17	411.519
1872.42	417.16
1872.68	416.16
1872.93	408.478
1873.18	444.466
1873.43	407.372
1873.68	425.382
1873.93	414.898
1874.18	425.271
1874.43	421.387
1874.68	407.053
1874.93	433.5
1875.18	422.001
1875.43	390.593
1875.68	410.376
1875.93	443.378
1876.18	429.867
1876.43	411.715
1876.68	420.096
1876.93	422.824
1877.18	411.405
1877.43	399.845
1877.68	412.819
1877.93	429.323
1878.18	395.666
1878.44	400.9
1878.69	423.994
1878.93	402.978
1879.19	421.839
1879.44	432.652
1879.69	412.949
1879.94	396.713
1880.19	429.723
1880.44	448.629
1880.69	415.455
1880.94	427.852
1881.19	432.481
1881.44	440.971
1881.69	419.013
1881.94	408.392
1882.19	402.505
1882.44	404.169
1882.69	432.254
1882.94	412.125
1883.19	407.282
1883.44	424.885
1883.69	435.311
1883.94	398.443
1884.19	452.986
1884.44	404.949
1884.69	409.899
1884.94	404.958
1885.19	432.447
1885.44	422.287
1885.69	398.752
1885.94	425.218
1886.19	426.365
1886.44	382.075
1886.69	414.239
1886.94	445.354
1887.19	438.549
1887.44	409.185
1887.69	418.516
1887.94	413.688
1888.19	434.321
1888.44	427.589
1888.69	394.425
1888.94	422.542
1889.19	410.155
1889.44	393.071
1889.69	432.534
1889.94	407.094
1890.19	410.831
1890.44	411.804
1890.69	401.533
1890.94	426.106
1891.19	426.128
1891.43	417.628
1891.68	402.512
1891.94	444.877
1892.18	428.83
1892.43	427.857
1892.68	427.834
1892.93	443.769
1893.18	422.959
1893.43	427.503
1893.68	398.101
1893.93	392.257
1894.18	415.697
1894.43	419.517
1894.68	421.234
1894.93	439.94
1895.18	378.834
1895.43	411.719
1895.68	399.528
1895.93	404.26
1896.18	403.361
1896.43	414.685
1896.68	401.585
1896.93	403.536
1897.18	378.208
1897.42	415.871
1897.68	451.647
1897.92	410.271
1898.17	385.804
1898.42	410.228
1898.67	395.123
1898.92	417.614
1899.17	366.743
1899.42	437.132
1899.67	431.402
1899.92	409.737
1900.17	420.01
1900.42	389.888
1900.67	424.622
1900.92	415.235
1901.16	411.512
1901.41	418.151
1901.66	456.765
1901.91	386.345
1902.16	388.298
1902.41	410.013
1902.66	418.561
1902.91	431.728
1903.16	435.445
1903.41	409.998
1903.66	403.358
1903.91	425.882
1904.16	419.264
1904.41	414.536
1904.65	413.575
1904.9	406.031
1905.15	407.881
1905.4	395.636
1905.65	410.663
1905.9	413.452
1906.15	419.905
1906.4	411.296
1906.65	413.11
1906.9	407.417
1907.14	410.185
1907.39	394.184
1907.64	404.51
1907.89	399.831
1908.14	424.296
1908.39	411.217
1908.64	409.365
1908.89	411.261
1909.14	397.202
1909.39	415.114
1909.63	420.832
1909.88	404.007
1910.13	383.43
1910.38	402.368
1910.63	409.091
1910.88	384.733
1911.13	398.939
1911.38	398.053
1911.62	415.982
1911.87	425.411
1912.12	408.445
1912.37	424.422
1912.62	429.094
1912.87	382.926
1913.12	392.336
1913.37	390.446
1913.61	427.186
1913.86	401.81
1914.11	429.246
1914.36	402.04
1914.61	444.555
1914.86	420.122
1915.11	402.285
1915.36	375.941
1915.6	382.593
1915.85	407.143
1916.1	396.746
1916.35	406.141
1916.6	418.377
1916.85	418.309
1917.1	434.246
1917.34	405.871
1917.59	403.917
1917.84	390.668
1918.09	400.064
1918.34	411.38
1918.59	402.002
1918.83	413.402
1919.08	397.469
1919.33	443.822
1919.58	383.545
1919.83	412.03
1920.08	402.723
1920.33	408.463
1920.57	399.97
1920.82	391.412
1921.07	391.431
1921.32	413.263
1921.57	391.622
1921.81	412.477
1922.06	408.745
1922.31	396.48
1922.56	420.117
1922.81	402.108
1923.06	432.296
1923.31	425.608
1923.55	391.527
1923.8	420.79
1924.05	393.333
1924.3	410.28
1924.55	390.355
1924.79	414.863
1925.04	426.176
1925.29	424.297
1925.54	426.235
1925.79	413.087
1926.04	441.57
1926.28	391.566
1926.53	407.741
1926.78	440.017
1927.03	383.361
1927.28	422.248
1927.52	400.529
1927.77	427.093
1928.02	401.569
1928.27	385.506
1928.52	389.33
1928.76	438.615
1929.01	446.246
1929.26	411.234
1929.51	408.45
1929.76	389.573
1930	439.001
1930.25	400.216
1930.5	406.025
1930.75	409.914
1931	434.701
1931.24	448.969
1931.49	453.721
1931.74	405.26
1931.99	411.844
1932.24	398.493
1932.48	426.899
1932.73	400.263
1932.98	414.424
1933.23	387.834
1933.47	430.46
1933.72	397.277
1933.97	415.415
1934.22	407.067
1934.46	402.579
1934.71	381.062
1934.96	399.466
1935.21	403.568
1935.46	435.26
1935.7	403.051
1935.95	425.118
1936.2	419.107
1936.45	386.653
1936.69	428.552
1936.94	428.49
1937.19	425.535
1937.44	426.375
1937.68	415.803
1937.93	429.989
1938.18	406.104
1938.43	417.433
1938.68	426.939
1938.92	390.904
1939.17	390.944
1939.42	431.947
1939.67	408.2
1939.91	398.72
1940.16	406.402
1940.41	422.609
1940.66	412.222
1940.9	398.017
1941.15	393.506
1941.4	386.017
1941.64	380.284
1941.89	416.485
1942.14	406.79
1942.39	453.246
1942.63	414.306
1942.88	418.547
1943.13	413.865
1943.38	420.559
1943.62	402.244
1943.87	405.869
1944.12	407.628
1944.37	412.654
1944.61	422.282
1944.86	389.902
1945.11	393.805
1945.35	396.762
1945.6	399.72
1945.85	414.148
1946.1	395.115
1946.34	429.603
1946.59	411.492
1946.84	428.746
1947.09	407.723
1947.33	433.531
1947.58	443.049
1947.83	436.302
1948.07	412.378
1948.32	421.929
1948.57	406.619
1948.82	434.307
1949.06	419.978
1949.31	440.131
1949.56	398.125
1949.8	413.511
1950.05	404.996
1950.3	425.2
1950.54	436.866
1950.79	407.359
1951.04	401.748
1951.29	415.323
1951.53	429.878
1951.78	418.521
1952.03	397.524
1952.27	402.397
1952.52	412.054
1952.77	403.47
1953.01	427.457
1953.26	422.726
1953.51	423.788
1953.76	389.081
1954	389.885
1954.25	414.573
1954.49	402.822
1954.74	410.267
1954.99	417.735
1955.24	403.297
1955.48	401.36
1955.73	416.73
1955.98	437.92
1956.22	415.094
1956.47	425.938
1956.72	427.012
1956.96	427.145
1957.21	428.173
1957.46	402.336
1957.7	424.51
1957.95	394.799
1958.2	401.575
1958.44	406.415
1958.69	395.865
1958.94	423.753
1959.18	431.4
1959.43	420.738
1959.68	409.158
1959.92	418.743
1960.17	406.182
1960.42	393.622
1960.66	401.237
1960.91	400.201
1961.16	383.796
1961.4	418.275
1961.65	415.323
1961.9	429.668
1962.14	429.675
1962.39	430.652
1962.63	416.265
1962.88	414.357
1963.13	398.049
1963.37	402.858
1963.62	404.785
1963.87	403.832
1964.11	410.566
1964.36	397.167
1964.61	424.092
1964.85	424.077
1965.1	432.678
1965.35	422.117
1965.59	374.084
1965.84	417.294
1966.08	411.567
1966.33	430.85
1966.58	397.316
1966.82	411.813
1967.07	407.065
1967.32	408.072
1967.56	406.129
1967.81	388.824
1968.05	406.154
1968.3	379.246
1968.55	403.29
1968.79	435
1969.04	435.913
1969.29	383.928
1969.53	385.746
1969.78	397.141
1970.02	432.536
1970.27	424.735
1970.52	402.562
1970.76	441.844
1971.01	415.851
1971.25	405.227
1971.5	411.887
1971.75	396.491
1971.99	405.085
1972.24	417.577
1972.48	416.651
1972.73	431.056
1972.98	423.369
1973.22	411.813
1973.47	381.044
1973.71	398.211
1973.96	407.716
1974.21	417.24
1974.45	425.823
1974.7	415.255
1974.94	410.457
1975.19	381.709
1975.44	437.333
1975.68	407.662
1975.93	431.69
1976.17	404.889
1976.42	411.637
1976.66	443.311
1976.91	451.953
1977.16	403.986
1977.4	419.314
1977.65	397.217
1977.89	406.754
1978.14	416.272
1978.39	418.113
1978.63	402.709
1978.88	405.533
1979.12	392.081
1979.37	384.404
1979.61	403.579
1979.86	431.371
1980.1	401.666
1980.35	429.464
1980.6	397.784
1980.84	409.205
1981.09	415.834
1981.33	404.293
1981.58	404.227
1981.82	412.795
1982.07	420.421
1982.31	410.821
1982.56	427.078
1982.81	410.723
1983.05	402.987
1983.3	416.284
1983.54	455.386
1983.79	402.658
1984.03	394.001
1984.28	413.095
1984.52	458.001
1984.77	394.825
1985.02	424.428
1985.26	409.05
1985.51	433.787
1985.75	422.255
1986	373.505
1986.24	414.622
1986.49	402.244
1986.73	385.095
1986.98	387.989
1987.22	389.878
1987.47	386.075
1987.71	397.473
1987.96	394.48
1988.21	444.026
1988.45	397.046
1988.7	430.277
1988.94	409.872
1989.19	401.268
1989.43	385.575
1989.68	413.647
1989.92	432.739
1990.17	391.685
1990.41	429.267
1990.66	417.238
1990.9	403.218
1991.15	401.3
1991.39	391.986
1991.64	391.713
1991.88	410.788
1992.13	397.993
1992.37	396.096
1992.62	421.79
1992.86	423.737
1993.11	397.237
1993.35	413.356
1993.6	411.466
1993.84	401.667
1994.09	407.808
1994.33	403.828
1994.58	403.98
1994.82	414.797
1995.07	411.095
1995.31	402.161
1995.56	409.26
1995.8	420.984
1996.05	401.906
1996.29	416.541
1996.54	409.726
1996.78	390.413
1997.03	397.044
1997.27	389.072
1997.52	403.714
1997.76	411.521
1998.01	406.045
1998.25	429.771
1998.5	424.494
1998.74	406.331
1998.99	398.217
1999.23	392.776
1999.48	420.563
1999.72	426.752
1999.97	395.419
2000.21	401.186
2000.46	392.128
2000.7	402.999
2000.95	402.149
2001.19	398.972
2001.43	401.283
2001.68	409.46
2001.92	402.619
2002.17	403.104
2002.41	396.282
2002.66	410.799
2002.9	398.026
2003.15	402.911
2003.39	414.176
2003.64	408.646
2003.88	417.03
2004.13	422.294
2004.37	414.131
2004.61	407.035
2004.86	404.269
2005.1	390.589
2005.35	404.442
2005.59	393.915
2005.84	402.975
2006.08	413.726
2006.33	407.497
2006.57	411.245
2006.81	414.829
2007.06	395.346
2007.3	421.928
2007.55	429.771
2007.79	420.03
2008.04	413.826
2008.28	396.874
2008.53	405.654
2008.77	409.672
2009.01	405.315
2009.26	397.137
2009.5	406.095
2009.75	405.167
2009.99	399.315
2010.24	407.173
2010.48	378.749
2010.73	405.471
2010.97	390.745
2011.21	422.726
2011.46	394.995
2011.7	387.255
2011.95	410.237
2012.19	396.026
2012.43	438.033
2012.68	397.504
2012.92	388.055
2013.17	396.444
2013.42	414.182
2013.67	406.448
2013.91	391.284
2014.16	404.296
2014.41	430.421
2014.66	400.142
2014.9	399.014
2015.15	404.59
2015.4	406.482
2015.64	429.061
2015.89	383.131
2016.14	417.914
2016.39	401.906
2016.63	439.567
2016.88	412.636
2017.13	392.955
2017.37	386.35
2017.62	404.142
2017.87	435.047
2018.11	405.796
2018.36	434.74
2018.61	407.342
2018.86	403.437
2019.1	404.224
2019.35	433.118
2019.6	430.146
2019.84	388.84
2020.09	387.845
2020.34	378.446
2020.58	414.025
2020.83	387.779
2021.08	393.38
2021.33	386.843
2021.57	402.787
2021.82	393.419
2022.07	391.525
2022.31	399.914
2022.56	423.264
2022.81	394.158
2023.05	427.754
2023.3	410.787
2023.55	424.729
2023.8	408.732
2024.04	405.834
2024.29	379.565
2024.54	379.489
2024.78	384.968
2025.03	410.986
2025.27	408.978
2025.52	385.509
2025.77	370.461
2026.02	425.4
2026.26	400.067
2026.51	393.575
2026.76	398.384
2027	410.771
2027.25	416.688
2027.5	384.312
2027.74	394.806
2027.99	410.656
2028.23	410.392
2028.48	388.525
2028.73	406.094
2028.98	406.24
2029.22	395.539
2029.47	375.096
2029.72	434.443
2029.96	394.417
2030.21	398.652
2030.45	400.061
2030.7	407.498
2030.95	407.161
2031.19	409.32
2031.44	392.763
2031.69	431.888
2031.93	386.169
2032.18	416.969
2032.43	392.82
2032.67	375.207
2032.92	408.033
2033.17	398.822
2033.41	415.744
2033.66	399.936
2033.91	388.831
2034.15	430.033
2034.4	412.046
2034.64	391.215
2034.89	411.341
2035.14	394.439
2035.38	378.739
2035.63	396.604
2035.87	394.959
2036.12	400.852
2036.37	423.503
2036.61	383.265
2036.86	408.302
2037.11	386.81
2037.35	392.511
2037.6	392.504
2037.84	377.522
2038.09	408.334
2038.34	432.585
2038.58	413.827
2038.83	417.497
2039.08	397.805
2039.32	394.936
2039.57	395.799
2039.81	406.935
2040.06	391.902
2040.31	385.254
2040.55	408.473
2040.8	434.486
2041.04	408.263
2041.29	412.837
2041.54	407.168
2041.78	401.538
2042.03	408.968
2042.27	389.335
2042.52	413.517
2042.77	392.928
2043.01	436.683
2043.26	420.84
2043.5	423.669
2043.75	415.393
2044	458.449
2044.24	398.004
2044.49	403.66
2044.73	421.363
2044.98	432.451
2045.23	427.591
2045.47	402.989
2045.72	393.223
2045.96	403.603
2046.21	403.242
2046.45	383.311
2046.7	399.81
2046.95	407.828
2047.19	442.992
2047.44	371.134
2047.68	413.012
2047.93	403.355
2048.17	452.672
2048.42	383.703
2048.67	384.652
2048.91	396.795
2049.16	401.495
2049.4	394.136
2049.65	393.284
2049.89	400.86
2050.14	412.207
2050.39	396.442
2050.63	389.08
2050.88	388.205
2051.12	411.578
2051.37	423.694
2051.61	409.595
2051.86	416.008
2052.11	409.465
2052.35	379.591
2052.6	411.399
2052.84	408.613
2053.09	417.066
2053.33	408.723
2053.58	398.523
2053.82	431.337
2054.07	405.357
2054.31	394.207
2054.56	385.839
2054.8	401.752
2055.05	403.611
2055.3	420.425
2055.54	420.392
2055.79	414.678
2056.03	400.603
2056.28	385.622
2056.52	404.28
2056.77	426.668
2057.01	386.445
2057.26	436.914
2057.5	427.585
2057.75	418.268
2058	439.821
2058.24	410.898
2058.49	439.016
2058.73	409.187
2058.98	414.892
2059.22	410.298
2059.47	400.063
2059.71	393.532
2059.96	407.594
2060.2	445.985
2060.45	371.039
2060.69	415.906
2060.94	413.987
2061.18	392.507
2061.43	416.9
2061.67	427.239
2061.92	427.256
2062.16	405.728
2062.41	405.74
2062.65	429.177
2062.9	408.618
2063.14	403.991
2063.39	413.429
2063.63	381.64
2063.88	386.374
2064.12	427.652
2064.37	389.257
2064.61	403.347
2064.86	410.892
2065.1	395.949
2065.35	390.412
2065.59	408.354
2065.84	409.404
2066.08	438.6
2066.33	385.17
2066.57	379.588
2066.82	427.492
2067.06	405.936
2067.31	463.275
2067.55	402.256
2067.8	427.673
2068.04	429.621
2068.29	398.667
2068.53	417.505
2068.78	425.987
2069.02	411.948
2069.27	415.711
2069.51	409.069
2069.76	417.406
2070	416.282
2070.25	400.244
2070.49	414.367
2070.73	412.66
2070.98	431.669
2071.22	392.386
2071.47	448.788
2071.71	407.28
2071.96	391.743
2072.2	414.503
2072.45	395.637
2072.69	425.737
2072.94	390.883
2073.18	404.027
2073.43	428.504
2073.67	405.883
2073.92	411.547
2074.16	422.858
2074.4	399.34
2074.65	400.324
2074.89	390.978
2075.14	379.774
2075.38	445.879
2075.63	380.071
2075.87	408.574
2076.12	420.045
2076.36	388.97
2076.6	412.577
2076.85	408.817
2077.09	442.752
2077.34	412.458
2077.58	407.644
2077.83	416.883
2078.07	411.175
2078.31	414.995
2078.56	383.953
2078.8	408.514
2079.05	384.961
2079.29	433.14
2079.54	408.7
2079.78	390.004
2080.03	429.751
2080.27	409.985
2080.51	405.325
2080.76	411.046
2081	409.159
2081.25	424.233
2081.49	432.704
2081.74	416.627
2081.98	395.834
2082.22	438.332
2082.47	416.632
2082.71	410.992
2082.96	417.629
2083.2	411.964
2083.45	387.385
2083.69	413.825
2083.93	401.522
2084.18	425.144
2084.42	391.129
2084.67	410.021
2084.91	408.135
2085.15	413.816
2085.4	434.607
2085.64	424.208
2085.89	407.198
2086.13	397.773
2086.37	409.217
2086.62	406.51
2086.86	399.035
2087.11	416.1
2087.35	410.472
2087.59	407.7
2087.84	415.308
2088.08	378.401
2088.32	382.19
2088.57	420.055
2088.81	381.266
2089.06	399.268
2089.3	411.59
2089.54	414.493
2089.79	406.039
2090.03	426.036
2090.28	393.867
2090.52	419.462
2090.76	398.648
2091.01	411.948
2091.25	397.777
2091.5	418.669
2091.74	410.181
2091.98	398.908
2092.23	384.798
2092.47	418.122
2092.72	427.745
2092.96	410.805
2093.2	418.51
2093.45	414.814
2093.69	385.467
2093.93	426.422
2094.18	403.697
2094.42	413.277
2094.66	396.186
2094.91	420.903
2095.15	388.556
2095.39	394.229
2095.64	410.318
2095.88	416.892
2096.13	395.926
2096.37	451.932
2096.61	410.096
2096.86	389.179
2097.1	417.658
2097.34	419.499
2097.59	408.967
2097.83	414.579
2098.07	423.085
2098.32	402.175
2098.56	413.544
2098.8	411.583
2099.05	415.378
2099.29	412.518
2099.53	416.287
2099.78	397.285
2100.02	421.949
2100.27	393.48
2100.51	413.42
2100.75	407.746
2101	402.089
2101.24	395.54
2101.48	396.564
2101.73	409.908
2101.97	402.333
2102.21	424.177
2102.45	410.867
2102.7	440.311
2102.94	416.538
2103.18	450.654
2103.43	397.391
2103.67	408.736
2103.92	411.569
2104.16	409.645
2104.4	404.904
2104.64	420.125
2104.89	404.996
2105.13	387.961
2105.37	374.716
2105.62	414.678
2105.86	418.57
2106.1	434.804
2106.35	412.989
2106.59	369.302
2106.83	408.295
2107.08	422.57
2107.32	402.641
2107.56	410.258
2107.8	428.273
2108.05	377.811
2108.29	410.02
2108.53	401.354
2108.78	357.554
2109.02	423.943
2109.26	421.057
2109.51	396.385
2109.75	409.781
2109.99	391.813
2110.23	369.016
2110.48	391.814
2110.72	425.06
2110.96	401.307
2111.21	422.204
2111.45	425.998
2111.69	381.32
2111.93	434.452
2112.18	425.858
2112.42	420.132
2112.66	423.926
2112.91	413.518
2113.15	419.257
2113.39	394.606
2113.63	410.854
2113.88	412.837
2114.12	410.974
2114.36	401.442
2114.61	423.262
2114.85	410.896
2115.09	408.061
2115.33	419.473
2115.58	420.398
2115.82	389.95
2116.06	426.975
2116.31	397.482
2116.55	399.299
2116.79	406.817
2117.03	401.079
2117.28	428.594
2117.52	420.028
2117.76	406.747
2118	401.955
2118.25	409.484
2118.49	411.312
2118.73	397.914
2118.97	387.358
2119.22	397.7
2119.46	409.94
2119.7	446.826
2119.94	410.711
2120.19	410.633
2120.43	398.252
2120.67	402.965
2120.91	382.128
2121.16	432.418
2121.4	422.978
2121.64	406.006
2121.88	421.275
2122.13	377.736
2122.37	370.223
2122.61	435.761
2122.85	413.049
2123.1	430.187
2123.34	402.706
2123.58	397.041
2123.82	409.396
2124.07	398.918
2124.31	406.464
2124.55	409.239
2124.79	410.079
2125.03	417.5
2125.28	386.014
2125.52	432.27
2125.76	416.962
2126	400.734
2126.25	392.093
2126.49	403.345
2126.73	403.256
2126.97	373.842
2127.21	419.156
2127.46	408.664
2127.7	412.407
2127.94	419.001
2128.18	437.881
2128.43	406.636
2128.67	404.716
2128.91	391.481
2129.15	410.386
2129.39	412.257
2129.64	408.44
2129.88	403.684
2130.12	423.509
2130.36	428.21
2130.6	378.099
2130.85	419.642
2131.09	415.818
2131.33	412.93
2131.57	393.975
2131.81	432.63
2132.06	384.409
2132.3	374.927
2132.54	402.258
2132.78	415.391
2133.02	406.817
2133.27	390.734
2133.51	418.089
2133.75	405.837
2133.99	415.286
2134.23	398.301
2134.48	379.441
2134.72	410.595
2134.96	395.481
2135.2	399.241
2135.44	421.876
2135.68	365.232
2135.93	411.427
2136.17	402.862
2136.41	400.85
2136.65	421.468
2136.89	430.829
2137.14	428.96
2137.38	412.005
2137.62	420.495
2137.86	414.881
2138.1	429.115
2138.34	406.446
2138.59	384.643
2138.83	421.318
2139.07	370.485
2139.31	401.722
2139.55	408.416
2139.79	394.067
2140.03	417.475
2140.28	434.36
2140.52	403.201
2140.76	429.522
2141	390.854
2141.24	400.239
2141.49	397.378
2141.73	398.323
2141.97	410.479
2142.21	404.736
2142.45	378.341
2142.69	435.757
2142.93	387.824
2143.18	419.897
2143.42	425.894
2143.66	405.938
2143.9	379.544
2144.14	405.85
2144.38	423.78
2144.62	389.14
2144.87	425.01
2145.11	407.219
2145.35	397.58
2145.59	398.55
2145.83	399.506
2146.07	404.181
2146.31	405.085
2146.55	404.107
2146.8	426.63
2147.04	402.155
2147.28	395.533
2147.52	443.398
2147.76	428.302
2148	401.941
2148.24	432.894
2148.48	397.149
2148.73	422.456
2148.97	421.459
2149.21	408.246
2149.45	402.527
2149.69	414.628
2149.93	381.619
2150.17	418.103
2150.42	412.359
2150.66	406.648
2150.9	415.976
2151.14	436.585
2151.38	397.25
2151.62	391.689
2151.86	401.102
2152.1	385.22
2152.34	409.627
2152.58	416.249
2152.83	414.307
2153.07	428.311
2153.31	426.354
2153.55	422.53
2153.79	392.497
2154.03	400.892
2154.27	437.367
2154.51	426.951
2154.75	427.738
2154.99	406.022
2155.24	408.663
2155.48	405.669
2155.72	427.976
2155.96	406.346
2156.2	428.666
2156.44	430.449
2156.68	381.822
2156.92	421.037
2157.16	414.484
2157.4	416.351
2157.64	389.286
2157.89	409.893
2158.13	423.049
2158.37	398.813
2158.61	424.999
2158.85	393.213
2159.09	428.71
2159.33	383.809
2159.57	410.857
2159.81	401.443
2160.05	412.568
2160.29	398.454
2160.53	430.095
2160.77	393.592
2161.01	414.043
2161.25	413.994
2161.5	399.038
2161.74	383.136
2161.98	396.157
2162.22	425.993
2162.46	405.464
2162.7	397.999
2162.94	388.66
2163.18	385.824
2163.42	396.962
2163.66	421.162
2163.9	408.993
2164.14	401.486
2164.38	404.232
2164.62	386.431
2164.86	385.394
2165.11	406.757
2165.35	406.77
2165.59	404.944
2165.83	431.038
2166.07	427.314
2166.31	408.678
2166.55	405.831
2166.79	384.356
2167.03	392.678
2167.27	392.596
2167.51	401.847
2167.75	387.785
2167.99	398.834
2168.23	428.403
2168.47	387.296
2168.71	410.474
2168.95	393.728
2169.19	404.903
2169.43	428.201
2169.67	420.845
2169.91	388.401
2170.15	423.896
2170.39	376.577
2170.63	399.009
2170.87	394.384
2171.11	372.004
2171.35	435.239
2171.59	410.06
2171.83	408.961
2172.07	401.23
2172.31	382.486
2172.56	408.433
2172.79	415.793
2173.04	407.371
2173.28	422.222
2173.51	398.056
2173.76	406.409
2174	393.427
2174.24	386.04
2174.48	411.166
2174.72	419.547
2174.96	389.808
2175.2	371.214
2175.44	407.45
2175.68	407.42
2175.92	431.552
2176.16	400.869
2176.4	394.34
2176.64	412.886
2176.88	422.108
2177.12	412.789
2177.36	431.365
2177.6	405.363
2177.84	397.935
2178.08	410
2178.32	384.001
2178.55	397.895
2178.8	404.284
2179.03	402.343
2179.28	420.898
2179.52	378.204
2179.75	436.702
2180	385.635
2180.23	432.056
2180.47	429.265
2180.71	394.895
2180.95	414.364
2181.19	409.692
2181.43	417.104
2181.67	424.501
2181.91	403.1
2182.15	402.122
2182.39	412.306
2182.63	384.412
2182.87	418.701
2183.11	410.309
2183.35	397.241
2183.59	402.711
2183.83	422.986
2184.07	371.915
2184.31	405.215
2184.55	434.803
2184.79	393.086
2185.03	424.599
2185.27	402.398
2185.51	420.034
2185.75	421.917
2185.99	417.332
2186.23	390.514
2186.47	409.127
2186.7	404.56
2186.95	437.143
2187.18	409.432
2187.42	410.479
2187.66	404.096
2187.9	420.899
2188.14	423.706
2188.38	402.298
2188.62	432.867
2188.86	423.496
2189.1	404.839
2189.34	416.801
2189.58	412.973
2189.82	410.979
2190.06	421.987
2190.3	394.118
2190.54	425.616
2190.78	416.353
2191.01	398.771
2191.25	386.749
2191.49	426.614
2191.73	406.238
2191.97	418.324
2192.21	397.957
2192.45	413.756
2192.69	421.208
2192.93	395.27
2193.17	405.54
2193.41	435.303
2193.65	400.103
2193.89	415.973
2194.13	378.071
2194.36	406.127
2194.6	407.187
2194.84	405.398
2195.08	398.866
2195.32	405.323
2195.56	414.573
2195.8	416.364
2196.04	421.846
2196.28	423.581
2196.52	420.645
2196.76	380.594
2197	409.264
2197.23	389.699
2197.47	391.486
2197.71	436.873
2197.95	412.757
2198.19	419.26
2198.43	429.506
2198.67	445.381
2198.91	407.439
2199.15	401.06
2199.38	429.987
2199.62	385.519
2199.86	413.524
2200.1	397.855
2200.34	456.641
2200.58	406.632
2200.82	390.061
2201.06	430.269
2201.3	400.581
2201.54	425.84
2201.77	404.235
2202.01	422.43
2202.25	415.957
2202.49	430.193
2202.73	415.62
2202.97	420.989
2203.21	380.387
2203.45	409.106
2203.68	411.807
2203.92	421.471
2204.16	437.769
2204.4	426.037
2204.64	424.137
2204.88	421.409
2205.12	423.913
2205.36	413.289
2205.59	428.775
2205.83	440.621
2206.07	442.411
2206.31	428.473
2206.55	409.97
2206.79	405.332
2207.03	414.475
2207.26	453.546
2207.5	408.979
2207.74	427.653
2207.98	399.834
2208.22	434.344
2208.46	413.03
2208.7	417.767
2208.93	414.117
2209.17	480.286
2209.41	419.803
2209.65	423.553
2209.89	431.935
2210.13	396.531
2210.36	426.346
2210.6	414.29
2210.84	396.648
2211.08	419.072
2211.32	403.295
2211.56	425.724
2211.8	448.168
2212.03	411.899
2212.27	429.706
2212.51	409.248
2212.75	440.994
2212.99	425.104
2213.23	424.126
2213.46	417.555
2213.7	419.351
2213.94	415.546
2214.18	384.799
2214.42	412.85
2214.66	385.03
2214.89	376.778
2215.13	420.688
2215.37	422.59
2215.61	402.077
2215.85	411.43
2216.08	424.509
2216.32	410.505
2216.56	419.834
2216.8	403.948
2217.04	406.729
2217.28	416.98
2217.51	418.844
2217.75	400.186
2217.99	413.274
2218.23	388.062
2218.47	431.004
2218.7	419.816
2218.94	434.797
2219.18	403.103
2219.42	414.382
2219.66	392.035
2219.9	389.274
2220.13	388.386
2220.37	396.835
2220.61	392.151
2220.85	386.524
2221.09	395.853
2221.32	414.5
2221.56	428.413
2221.8	396.541
2222.04	409.524
2222.27	430.917
2222.51	401.922
2222.75	422.445
2222.99	412.205
2223.23	402.926
2223.46	400.183
2223.7	416.127
2223.94	371.382
2224.18	384.573
2224.42	387.494
2224.65	406.305
2224.89	414.823
2225.13	390.589
2225.37	414.065
2225.6	411.359
2225.84	422.71
2226.08	397.519
2226.32	406.031
2226.56	423.918
2226.79	372.446
2227.03	405.328
2227.27	424.153
2227.51	422.345
2227.74	422.395
2227.98	387.724
2228.22	407.406
2228.46	392.37
2228.69	422.343
2228.93	422.313
2229.17	428.851
2229.41	405.39
2229.64	428.824
2229.88	431.708
2230.12	409.311
2230.36	394.399
2230.6	399.16
2230.83	386.096
2231.07	416.212
2231.31	410.666
2231.55	388.221
2231.78	406.163
2232.02	418.454
2232.26	419.476
2232.5	417.678
2232.73	409.298
2232.97	400.909
2233.21	416.973
2233.45	417.047
2233.68	386.074
2233.92	412.494
2234.16	395.61
2234.39	390.006
2234.63	405.043
2234.87	406.891
2235.11	415.31
2235.34	405.824
2235.58	418.847
2235.82	383.005
2236.06	391.475
2236.29	404.656
2236.53	431.95
2236.77	408.46
2237	380.258
2237.24	404.733
2237.48	387.893
2237.72	406.795
2237.95	396.594
2238.19	396.759
2238.43	393.14
2238.67	402.673
2238.9	410.319
2239.14	421.759
2239.38	427.572
2239.61	386.089
2239.85	417.185
2240.09	414.297
2240.33	415.122
2240.56	428.219
2240.8	405.543
2241.04	401.943
2241.27	379.452
2241.51	422.876
2241.75	413.467
2241.99	414.442
2242.22	413.523
2242.46	436.21
2242.7	419.266
2242.93	401.381
2243.17	397.611
2243.41	412.699
2243.64	418.306
2243.88	375.772
2244.12	405.94
2244.36	408.758
2244.59	415.376
2244.83	389.009
2245.07	388.179
2245.3	449.732
2245.54	380.917
2245.78	422.592
2246.01	429.291
2246.25	413.307
2246.49	424.739
2246.72	420.081
2246.96	389.849
2247.2	385.177
2247.43	406.999
2247.67	436.378
2247.91	414.628
2248.14	400.425
2248.38	399.456
2248.62	425.928
2248.85	398.457
2249.09	389.918
2249.33	408.818
2249.56	445.701
2249.8	424.012
2250.04	405.133
2250.27	425.004
2250.51	407.914
2250.75	396.48
2250.98	403.018
2251.22	400.083
2251.46	433.104
2251.69	426.422
2251.93	385.744
2252.17	397.103
2252.4	419.839
2252.64	421.795
2252.88	428.501
2253.11	421.067
2253.35	416.56
2253.59	411.983
2253.82	400.736
2254.06	422.626
2254.3	396.164
2254.53	402.876
2254.77	401.981
2255.01	427.588
2255.24	404.791
2255.48	401.965
2255.72	423.774
2255.95	421.893
2256.19	406.738
2256.42	387.837
2256.66	409.728
2256.9	415.491
2257.13	417.455
2257.37	410.881
2257.61	426.135
2257.84	399.617
2258.08	410.104
2258.32	394.933
2258.55	431.036
2258.79	414.918
2259.02	414.957
2259.26	393.166
2259.5	408.426
2259.73	420.817
2259.97	413.249
2260.2	421.85
2260.44	376.268
2260.68	407.675
2260.91	400.107
2261.15	403.02
2261.39	420.269
2261.62	400.378
2261.86	404.202
2262.1	420.401
2262.33	388.081
2262.57	423.325
2262.8	392.926
2263.04	405.385
2263.28	422.615
2263.51	413.201
2263.75	440.007
2263.98	410.612
2264.22	436.52
2264.46	412.838
2264.69	421.569
2264.93	414.054
2265.16	398.877
2265.4	408.509
2265.64	414.312
2265.87	403.817
2266.11	439.177
2266.34	408.576
2266.58	385.564
2266.81	426.527
2267.05	408.284
2267.29	409.147
2267.52	388.086
2267.76	401.383
2267.99	434.705
2268.23	392.645
2268.47	411.647
2268.7	383.016
2268.94	390.656
2269.17	416.457
2269.41	411.776
2269.65	423.334
2269.88	407.229
2270.12	388.256
2270.35	421.817
2270.59	406.664
2270.82	402.92
2271.06	423.995
2271.3	437.469
2271.53	383.051
2271.77	386.923
2272	395.584
2272.24	399.484
2272.47	423.441
2272.71	410.056
2272.95	448.343
2273.18	428.274
2273.42	390.024
2273.65	430.234
2273.89	404.419
2274.12	396.784
2274.36	394.889
2274.6	422.663
2274.83	397.797
2275.07	393.032
2275.3	415.077
2275.54	408.398
2275.77	424.7
2276.01	428.516
2276.24	408.469
2276.48	427.723
2276.72	409.625
2276.95	380.967
2277.18	377.209
2277.42	424.27
2277.66	437.835
2277.89	406.34
2278.13	394.981
2278.36	397.07
2278.6	400.01
2278.83	386.593
2279.07	404.845
2279.3	414.433
2279.54	391.356
2279.78	408.568
2280.01	418.94
2280.24	367.962
2280.48	397.597
2280.72	415.724
2280.95	412.765
2281.19	410.787
2281.42	386.779
2281.66	424.11
2281.89	430.777
2282.13	382.897
2282.36	393.469
2282.6	415.576
2282.83	397.437
2283.07	390.816
2283.3	407.215
2283.54	385.257
2283.77	425.734
2284.01	401.918
2284.24	398.244
2284.48	411.891
2284.71	402.385
2284.95	387.042
2285.19	428.499
2285.42	395.878
2285.65	445.95
2285.89	411.316
2286.12	401.604
2286.36	415.878
2286.59	416.825
2286.83	434.169
2287.06	386.137
2287.3	397.868
2287.54	385.506
2287.77	383.636
2288	393.309
2288.24	445.442
2288.47	381.826
2288.71	401.995
2288.94	423.121
2289.18	408.599
2289.41	398.846
2289.65	430.45
2289.88	419.719
2290.12	401.273
2290.35	401.214
2290.59	411.747
2290.82	416.554
2291.06	413.678
2291.29	418.545
2291.53	385.955
2291.76	412.06
2292	410.229
2292.23	392.012
2292.47	419.997
2292.7	403.708
2292.94	429.808
2293.17	449.17
2293.41	375.057
2293.64	397.277
2293.88	403.103
2294.11	395.415
2294.34	427.189
2294.58	432.918
2294.81	414.543
2295.05	409.646
2295.28	372.02
2295.52	398.934
2295.75	395.023
2295.99	418.074
2296.22	421.874
2296.46	423.698
2296.69	407.167
2296.93	385.977
2297.16	429.305
2297.39	424.554
2297.63	402.495
2297.86	405.473
2298.1	401.735
2298.33	421.138
2298.57	436.647
2298.8	420.326
2299.04	402.095
2299.27	418.589
2299.51	409.035
2299.74	410.072
2299.97	426.51
2300.21	402.387
2300.44	387.918
2300.68	398.518
2300.91	405.317
2301.15	397.666
2301.38	408.332
2301.61	419.959
2301.85	391.03
2302.08	412.273
2302.32	410.328
2302.55	442.141
2302.79	400.609
2303.02	414.13
2303.25	405.433
2303.49	382.247
2303.72	389.96
2303.96	410.232
2304.19	417.993
2304.43	401.653
2304.66	412.337
2304.89	423.004
2305.13	408.578
2305.36	407.689
2305.6	423.192
2305.83	433.84
2306.07	413.583
2306.3	399.14
2306.53	394.355
2306.77	413.703
2307	405.011
2307.24	390.505
2307.47	406.922
2307.7	396.252
2307.94	422.292
2308.17	430.955
2308.41	408.691
2308.64	391.265
2308.87	419.28
2309.11	413.501
2309.34	409.697
2309.58	400.101
2309.81	401.168
2310.04	388.722
2310.28	417.823
2310.51	389.809
2310.75	420.775
2310.98	415.925
2311.21	391.697
2311.45	431.253
2311.68	431.004
2311.92	407.541
2312.15	395.808
2312.38	421.77
2312.62	405.298
2312.85	408.119
2313.08	406.134
2313.32	402.267
2313.55	413.893
2313.79	410.157
2314.02	376.517
2314.25	424.927
2314.49	426.018
2314.72	420.348
2314.95	406.002
2315.19	419.681
2315.42	408.142
2315.66	400.294
2315.89	393.423
2316.12	429.112
2316.36	405.798
2316.59	420.063
2316.82	383.244
2317.06	415.052
2317.29	399.591
2317.52	397.68
2317.76	406.392
2317.99	438.376
2318.23	375.655
2318.46	423.815
2318.69	408.292
2318.93	411.132
2319.16	400.446
2319.39	414.855
2319.63	395.49
2319.86	390.619
2320.09	414.712
2320.33	415.676
2320.56	394.457
2320.79	388.663
2321.03	386.769
2321.26	397.443
2321.5	383.992
2321.73	424.617
2321.96	424.708
2322.2	414.202
2322.43	391.137
2322.66	429.904
2322.9	410.611
2323.13	423.158
2323.36	432.843
2323.6	431.907
2323.83	423.229
2324.06	392.315
2324.3	456.147
2324.53	410.678
2324.76	413.558
2325	423.121
2325.23	417.189
2325.46	411.24
2325.7	399.552
2325.93	412.989
2326.16	443.799
2326.4	455.288
2326.63	398.251
2326.86	427.106
2327.09	432.799
2327.33	454.883
2327.56	426.816
2327.79	458.564
2328.03	451.737
2328.26	459.393
2328.49	508.57
2328.73	486.404
2328.96	544.247
2329.19	474.75
2329.43	446.713
2329.66	443.701
2329.89	425.356
2330.13	400.293
2330.36	405.161
2330.59	417.651
2330.82	395.462
2331.06	372.31
2331.29	431.038
2331.52	417.583
2331.76	423.422
2331.99	436.015
2332.22	418.774
2332.46	392.645
2332.69	402.196
2332.92	396.357
2333.16	392.448
2333.39	403.946
2333.62	431.81
2333.85	399.995
2334.09	430.754
2334.32	398.934
2334.55	406.562
2334.79	414.148
2335.02	403.503
2335.25	395.765
2335.48	389.979
2335.72	418.803
2335.95	425.549
2336.18	415.96
2336.41	404.404
2336.65	394.742
2336.88	413.945
2337.11	435.078
2337.34	413.906
2337.58	412.922
2337.81	410.018
2338.04	409.019
2338.28	410.911
2338.51	374.364
2338.74	398.372
2338.97	403.163
2339.21	411.827
2339.44	414.719
2339.67	393.568
2339.91	408.932
2340.14	410.819
2340.37	388.662
2340.6	370.338
2340.84	393.328
2341.07	437.418
2341.3	414.248
2341.53	392.034
2341.77	420.667
2342	425.339
2342.23	411.832
2342.46	407.924
2342.7	396.354
2342.93	387.679
2343.16	391.487
2343.39	423.111
2343.63	414.486
2343.86	393.375
2344.09	447.993
2344.32	415.407
2344.56	423.102
2344.79	408.735
2345.02	399.135
2345.25	413.485
2345.49	401.937
2345.72	415.285
2345.95	467.868
2346.18	406.473
2346.41	425.548
2346.65	404.446
2346.88	396.76
2347.11	402.483
2347.34	411.063
2347.58	402.411
2347.81	388.997
2348.04	408.152
2348.27	382.323
2348.5	403.434
2348.74	382.396
2348.97	410.165
2349.2	409.166
2349.43	403.35
2349.67	405.089
2349.9	425.001
2350.13	388.451
2350.36	398.726
2350.59	391.746
2350.83	385.509
2351.06	392.296
2351.29	410.077
2351.52	394.276
2351.75	387.026
2351.99	393.869
2352.22	425.873
2352.45	397.275
2352.68	404.959
2352.91	411.386
2353.15	389.083
2353.38	406.901
2353.61	358.415
2353.84	413.633
2354.07	379.263
2354.31	394.505
2354.54	411.631
2354.77	391.726
2355	416.594
2355.23	379.416
2355.47	383.2
2355.7	394.596
2355.93	410.751
2356.16	405.938
2356.39	398.245
2356.63	411.443
2356.86	392.211
2357.09	367.326
2357.32	372.954
2357.55	408.071
2357.79	387.084
2358.02	400.333
2358.25	397.422
2358.48	393.575
2358.71	421.101
2358.94	401.055
2359.18	404.811
2359.41	407.63
2359.64	370.557
2359.87	393.305
2360.1	380.889
2360.33	358.966
2360.57	399.696
2360.8	412.886
2361.03	406.146
2361.26	388.973
2361.49	385.081
2361.72	385.93
2361.96	376.351
2362.19	422.682
2362.42	406.455
2362.65	412.027
2362.88	394.886
2363.11	419.417
2363.34	400.408
2363.58	410.754
2363.81	390.83
2364.04	386.999
2364.27	384.112
2364.5	387.838
2364.73	401.963
2364.97	401.9
