#Acq. time (s)=	40
#Accumulations=	2
#Range (cm-¹)=	1200...2365
#Windows=	3
#Auto scanning=	Off
#Autofocus=	Off
#Macrospot=	Off
#AutoExposure=	Off
#Spike filter=	Multiple accum.
#Delay time (s)=	2
#Binning=	1
#Readout mode=	Signal
#DeNoise=	Off
#ICS correction=	On
#Dark correction=	Off
#Inst. Process=	Off
#Detector Gain=	Best Dynamic
#Detector ADC=	50 kHz EM
#Detector EM gain=	400
#Detector temperature (°C)=	-60.09
#Instrument=	LabRAM HR Evol
#Detector=	SIN-EM FIVIS
#Objective=	x100_VIS_LWD
#Grating=	1800 (450-850nm)
#ND Filter=	100%
#Laser=	532nm_Edge
#Hole=	30.0125
#Temperature=	0
#Range=	Visible
#StageXY=	75x50mm Scan+
#StageZ=	Z motor
#X (µm)=	0
#Y (µm)=	0
#Z (µm)=	3.9
#Full time(mm:ss)=	4:22
#Project=	21_11_26
#Sample=	BU32
#Site=	
#Title=	BU32-A-incC-FI01-V_1800 (450-850nm)_532nm_Edge_100%_x100_VIS_LWD_H30um_40sX2
#Remark=	
#Date=	26.11.2021 17:46
#Acquired=	26.11.2021 17:46:55
1202.72	446.299
1203	438.329
1203.28	468.641
1203.56	446.828
1203.84	463.701
1204.11	420.464
1204.39	446.098
1204.67	449.345
1204.95	448.323
1205.23	438.563
1205.5	468.482
1205.78	433.92
1206.06	489.543
1206.34	431.364
1206.61	453.686
1206.89	465.265
1207.17	456.473
1207.45	449.87
1207.73	428.339
1208	457.142
1208.28	441.012
1208.56	465.536
1208.84	457.908
1209.11	418.209
1209.39	467.289
1209.67	441.572
1209.95	435.14
1210.23	459.689
1210.5	415.774
1210.78	467.952
1211.06	433.591
1211.34	452.669
1211.61	437.557
1211.89	431.025
1212.17	475.644
1212.45	423.225
1212.72	461.478
1213	459.213
1213.28	473.988
1213.56	431.296
1213.83	439.76
1214.11	434.345
1214.39	416.266
1214.67	437.575
1214.94	446.098
1215.22	425.866
1215.5	450.336
1215.78	456.701
1216.05	461.986
1216.33	421.428
1216.61	459.576
1216.89	451.935
1217.16	444.314
1217.44	450.554
1217.72	402.621
1218	439.675
1218.27	427.893
1218.55	458.582
1218.83	446.812
1219.1	428.72
1219.38	469.012
1219.66	426.528
1219.94	420.109
1220.21	430.642
1220.49	443.356
1220.77	431.691
1221.04	440.151
1221.32	429.502
1221.6	456.993
1221.88	443.13
1222.15	434.524
1222.43	455.542
1222.71	462.746
1222.98	459.34
1223.26	471.816
1223.54	463.143
1223.81	431.242
1224.09	451.166
1224.37	415.097
1224.65	475.184
1224.92	449.755
1225.2	420.138
1225.48	402.181
1225.76	468.74
1226.03	413.887
1226.31	445.619
1226.59	467.768
1226.86	408.608
1227.14	414.865
1227.42	448.568
1227.69	449.392
1227.97	466.876
1228.25	428.677
1228.52	444.223
1228.8	451.163
1229.08	421.395
1229.35	417.158
1229.63	439.257
1229.91	441.246
1230.18	440.83
1230.46	453.057
1230.74	439.204
1231.01	451.893
1231.29	455.838
1231.57	436.031
1231.84	428.755
1232.12	460.271
1232.4	458.154
1232.67	446.542
1232.95	416.063
1233.23	437.051
1233.5	415.999
1233.78	421.24
1234.06	426.516
1234.33	446.516
1234.61	443.409
1234.89	449.779
1235.16	437.241
1235.44	449.889
1235.71	419.446
1235.99	461.551
1236.27	431.098
1236.54	450.016
1236.82	407.909
1237.1	427.816
1237.37	420.366
1237.65	426.528
1237.93	431.626
1238.2	441.97
1238.48	459.65
1238.76	425.916
1239.03	424.749
1239.31	412.093
1239.58	402.601
1239.86	393.125
1240.14	428.739
1240.41	418.243
1240.69	454.927
1240.97	405.674
1241.24	461.254
1241.52	429.821
1241.79	454.94
1242.07	451.713
1242.35	457.949
1242.62	426.52
1242.9	439.122
1243.18	447.569
1243.45	429.808
1243.73	452.864
1244	438.193
1244.28	439.27
1244.56	394.187
1244.83	440.284
1245.11	406.7
1245.39	422.331
1245.66	420.13
1245.94	436.741
1246.21	426.127
1246.49	442.815
1246.76	419.752
1247.04	434.409
1247.32	423.933
1247.59	424.944
1247.87	409.237
1248.14	396.635
1248.42	419.502
1248.7	472.761
1248.97	416.263
1249.25	399.554
1249.52	453.975
1249.8	427.796
1250.08	422.553
1250.35	428.833
1250.63	437.109
1250.9	443.268
1251.18	434.808
1251.45	437.858
1251.73	424.199
1252.01	407.412
1252.28	438.67
1252.56	446.943
1252.83	436.42
1253.11	445.722
1253.39	396.588
1253.66	421.593
1253.94	422.638
1254.21	436.274
1254.49	431.137
1254.76	464.641
1255.04	436.488
1255.31	453.195
1255.59	434.434
1255.87	429.213
1256.14	429.192
1256.42	437.566
1256.69	419.847
1256.97	423.042
1257.24	435.597
1257.52	429.307
1257.79	424.024
1258.07	417.721
1258.35	439.617
1258.62	436.448
1258.9	437.443
1259.17	420.641
1259.45	447.767
1259.72	439.468
1260	417.61
1260.27	445.981
1260.55	428.116
1260.82	450.978
1261.1	441.424
1261.37	476.787
1261.65	437.073
1261.92	429.832
1262.2	436.479
1262.48	434.959
1262.75	453.017
1263.02	442.877
1263.3	421.481
1263.58	475.51
1263.85	439.444
1264.13	451.27
1264.4	459.013
1264.68	495.856
1264.95	471.501
1265.23	476.611
1265.5	478.701
1265.78	456.713
1266.05	452.451
1266.33	480.66
1266.6	431.583
1266.88	429.551
1267.15	445.31
1267.43	431.822
1267.7	470.632
1267.98	421.603
1268.25	403.952
1268.53	444.961
1268.8	416.846
1269.08	420.07
1269.35	438.997
1269.63	422.287
1269.9	430.644
1270.18	430.55
1270.45	434.607
1270.73	436.609
1271	458.485
1271.28	433.29
1271.55	425.936
1271.83	416.462
1272.1	433.236
1272.38	432.29
1272.65	411.474
1272.93	420.01
1273.2	431.644
1273.47	433.853
1273.75	428.729
1274.03	408.921
1274.3	410.078
1274.57	463.64
1274.85	459.467
1275.12	407.003
1275.4	435.326
1275.67	452.158
1275.95	434.396
1276.22	454.411
1276.5	418.833
1276.77	427.309
1277.05	433.692
1277.32	454.757
1277.6	461.172
1277.87	429.763
1278.14	445.631
1278.42	422.595
1278.69	455.266
1278.97	428.053
1279.24	451.264
1279.52	429.246
1279.79	435.534
1280.07	437.603
1280.34	445.966
1280.61	452.259
1280.89	443.881
1281.16	424.99
1281.44	445.087
1281.71	397.865
1281.99	423.183
1282.26	441.069
1282.53	431.636
1282.81	452.743
1283.08	420.036
1283.36	455.603
1283.63	443.642
1283.91	509.682
1284.18	540.144
1284.45	615.078
1284.73	830.218
1285	1183.37
1285.28	1125.39
1285.55	794.143
1285.83	624.364
1286.1	496.981
1286.37	487.612
1286.65	451.803
1286.92	454.879
1287.2	433.816
1287.47	453.793
1287.75	437.938
1288.02	425.232
1288.29	432.553
1288.57	448.335
1288.84	447.295
1289.12	439.961
1289.39	423.186
1289.66	416.945
1289.94	440.189
1290.21	443.441
1290.49	432.984
1290.76	442.464
1291.03	446.63
1291.31	451.872
1291.58	412.897
1291.86	428.691
1292.13	440.261
1292.4	435
1292.68	426.603
1292.95	452.909
1293.22	433.918
1293.5	414.984
1293.77	415.12
1294.05	428.993
1294.32	438.666
1294.59	450.318
1294.87	426.066
1295.14	462.943
1295.42	450.371
1295.69	428.405
1295.96	452.92
1296.24	430.003
1296.51	422.784
1296.79	445.026
1297.06	426.012
1297.33	452.39
1297.61	441.746
1297.88	439.544
1298.15	426.77
1298.43	439.331
1298.7	449.945
1298.97	424.565
1299.25	445.614
1299.52	432.885
1299.79	466.595
1300.07	453.925
1300.34	426.556
1300.62	447.718
1300.89	423.446
1301.16	441.377
1301.44	431.859
1301.71	463.557
1301.98	419.283
1302.25	457.373
1302.53	442.625
1302.8	437.358
1303.08	419.395
1303.35	450.001
1303.62	428.83
1303.9	463.601
1304.17	401.286
1304.44	431.918
1304.72	428.753
1304.99	439.308
1305.26	431.865
1305.54	456.069
1305.81	446.469
1306.08	408.385
1306.35	434.659
1306.63	433.52
1306.9	437.701
1307.18	441.919
1307.45	418.756
1307.72	443.028
1308	417.71
1308.27	441.966
1308.54	444.101
1308.81	443.021
1309.09	414.567
1309.36	419.908
1309.63	442.125
1309.91	453.798
1310.18	434.845
1310.45	434.835
1310.73	439.03
1311	408.428
1311.27	421.111
1311.55	425.356
1311.82	462.316
1312.09	423.301
1312.37	407.539
1312.64	458.281
1312.91	445.643
1313.18	416.06
1313.46	449.778
1313.73	463.488
1314	428.612
1314.28	430.693
1314.55	448.638
1314.82	462.388
1315.09	426.541
1315.37	459.326
1315.64	435.095
1315.91	424.592
1316.18	423.593
1316.46	417.239
1316.73	438.336
1317	418.253
1317.28	428.803
1317.55	425.635
1317.82	440.484
1318.09	410.951
1318.37	441.614
1318.64	423.673
1318.91	437.418
1319.18	454.324
1319.46	401.49
1319.73	436.337
1320	425.758
1320.28	446.917
1320.55	447.98
1320.82	438.449
1321.09	440.499
1321.37	421.394
1321.64	459.282
1321.91	430.643
1322.18	411.573
1322.46	416.733
1322.73	452.539
1323	446.15
1323.27	470.338
1323.55	419.644
1323.82	431.291
1324.09	420.767
1324.36	435.537
1324.64	407.055
1324.91	414.444
1325.18	416.542
1325.45	404.97
1325.73	435.44
1326	412.063
1326.27	411.828
1326.54	456.791
1326.81	442.982
1327.09	439.793
1327.36	422.049
1327.63	439.176
1327.9	422.477
1328.18	440.541
1328.45	409.085
1328.72	447.212
1328.99	442.079
1329.27	448.452
1329.54	422.024
1329.81	434.73
1330.08	433.658
1330.35	441.008
1330.63	434.623
1330.9	445.091
1331.17	451.313
1331.44	421.666
1331.71	459.435
1331.99	437.119
1332.26	439.075
1332.53	451.585
1332.8	409.361
1333.07	438.673
1333.35	463.754
1333.62	427.865
1333.89	420.381
1334.16	447.576
1334.43	419.097
1334.71	427.387
1334.98	451.428
1335.25	425.097
1335.52	425.015
1335.79	423.887
1336.07	425.912
1336.34	425.842
1336.61	407.953
1336.88	424.674
1337.15	439.303
1337.43	464.42
1337.7	422.455
1337.97	411.93
1338.24	468.409
1338.51	424.305
1338.78	446.24
1339.06	454.544
1339.33	451.355
1339.6	414.694
1339.87	435.653
1340.14	409.498
1340.42	451.396
1340.69	457.697
1340.96	428.389
1341.23	429.429
1341.5	427.316
1341.77	445.088
1342.04	425.146
1342.32	440.781
1342.59	418.708
1342.86	433.247
1343.13	450.919
1343.4	430.984
1343.67	403.76
1343.95	437.214
1344.22	406.881
1344.49	447.678
1344.76	435.128
1345.03	453.913
1345.3	450.703
1345.58	418.197
1345.85	441.057
1346.12	424.23
1346.39	434.532
1346.66	442.669
1346.93	428.962
1347.2	441.354
1347.47	406.8
1347.75	428.584
1348.02	457.696
1348.29	439.918
1348.56	438.839
1348.83	397.12
1349.1	430.403
1349.37	425.115
1349.65	397.951
1349.92	458.282
1350.19	449.87
1350.46	427.929
1350.73	445.546
1351	431.911
1351.27	416.197
1351.54	402.607
1351.81	425.384
1352.09	431.591
1352.36	413.907
1352.63	431.635
1352.9	432.768
1353.17	448.508
1353.44	419.441
1353.71	429.169
1353.98	425.397
1354.25	433.333
1354.53	426.448
1354.8	431.208
1355.07	430.217
1355.34	409.471
1355.61	420.755
1355.88	433.143
1356.15	436.406
1356.42	434.363
1356.69	416.611
1356.96	424.881
1357.24	419.652
1357.51	446.612
1357.78	410.212
1358.05	411.187
1358.32	434.992
1358.59	419.346
1358.86	451.444
1359.13	454.466
1359.4	433.634
1359.67	435.647
1359.94	446.999
1360.22	436.517
1360.49	444.681
1360.76	446.63
1361.03	429.972
1361.3	406.114
1361.57	406.108
1361.84	428.881
1362.11	440.25
1362.38	433.985
1362.65	433.939
1362.92	445.287
1363.19	442.166
1363.46	422.521
1363.73	415.345
1364	444.398
1364.28	444.454
1364.55	450.665
1364.82	433.027
1365.09	418.482
1365.36	436.012
1365.63	443.163
1365.9	403.727
1366.17	404.671
1366.44	420.1
1366.71	426.209
1366.98	414.712
1367.25	437.311
1367.52	421.741
1367.79	441.336
1368.06	426.924
1368.33	443.496
1368.6	428.018
1368.87	419.774
1369.15	428.071
1369.41	421.903
1369.68	408.491
1369.95	440.493
1370.23	455.95
1370.5	420.754
1370.77	421.68
1371.04	457.789
1371.31	441.177
1371.58	401.81
1371.85	432.651
1372.12	421.129
1372.39	424.065
1372.66	431.137
1372.93	412.466
1373.2	386.626
1373.47	436.049
1373.74	430.842
1374.01	427.707
1374.28	445.188
1374.55	410.127
1374.82	454.401
1375.09	451.276
1375.36	456.37
1375.63	410.036
1375.9	429.661
1376.17	442.014
1376.44	439.979
1376.71	435.748
1376.98	429.464
1377.25	426.235
1377.52	432.233
1377.79	432.288
1378.06	443.722
1378.33	434.63
1378.6	420.42
1378.87	419.621
1379.14	431.033
1379.41	403.181
1379.68	437.147
1379.95	423.686
1380.22	453.484
1380.49	408.998
1380.76	443.665
1381.03	430.088
1381.3	424.787
1381.57	437.2
1381.84	420.636
1382.11	412.219
1382.38	430.507
1382.65	431.355
1382.92	429.147
1383.19	437.193
1383.46	409.374
1383.73	450.277
1384	439.945
1384.27	421.429
1384.54	445.025
1384.81	458.393
1385.08	421.558
1385.34	445.268
1385.61	454.678
1385.88	453.772
1386.15	461.059
1386.42	473.444
1386.69	473.541
1386.96	469.478
1387.23	549.588
1387.5	610.733
1387.77	960.914
1388.04	1636.27
1388.31	1665.99
1388.58	1026.37
1388.85	650.826
1389.12	522.333
1389.39	460.031
1389.66	459.041
1389.93	442.666
1390.2	467.156
1390.46	453.459
1390.73	433.813
1391	446.103
1391.27	403.9
1391.54	452.035
1391.81	447.895
1392.08	418.083
1392.35	414.903
1392.62	423.004
1392.89	421.91
1393.16	429.02
1393.43	424.877
1393.7	425.859
1393.97	408.422
1394.23	416.577
1394.5	435.991
1394.77	438.012
1395.04	440.042
1395.31	419.624
1395.58	400.249
1395.85	443.288
1396.12	441.263
1396.39	421.802
1396.66	425.862
1396.93	419.672
1397.2	402.224
1397.46	401.127
1397.73	431.741
1398	414.313
1398.27	444.995
1398.54	424.568
1398.81	421.55
1399.08	417.488
1399.35	450.252
1399.62	425.769
1399.89	408.419
1400.16	406.412
1400.42	433.02
1400.69	406.467
1400.96	407.594
1401.23	424.028
1401.5	430.158
1401.77	401.534
1402.04	433.281
1402.31	397.571
1402.58	429.573
1402.84	414.451
1403.11	415.66
1403.38	410.661
1403.65	412.778
1403.92	443.583
1404.19	396.278
1404.46	412.471
1404.73	427.924
1404.99	418.654
1405.26	391.935
1405.53	419.56
1405.8	429.738
1406.07	416.336
1406.34	417.296
1406.61	396.754
1406.87	415.173
1407.14	414.168
1407.41	407.024
1407.68	417.312
1407.95	452.195
1408.22	447.097
1408.49	438.922
1408.76	455.355
1409.02	453.34
1409.29	482.099
1409.56	522.142
1409.83	504.747
1410.1	462.718
1410.37	455.54
1410.63	449.3
1410.9	440.976
1411.17	457.242
1411.44	426.395
1411.71	443.742
1411.98	410.902
1412.25	427.281
1412.51	427.342
1412.78	388.519
1413.05	426.708
1413.32	390.253
1413.59	427.479
1413.86	386.09
1414.12	410.193
1414.39	397.979
1414.66	395.167
1414.93	411.779
1415.2	419.967
1415.47	409.717
1415.73	440.522
1416	426.163
1416.27	425.173
1416.54	407.757
1416.81	414.988
1417.07	426.331
1417.34	417.139
1417.61	407.944
1417.88	403.88
1418.15	431.649
1418.42	429.604
1418.68	433.735
1418.95	414.232
1419.22	403.963
1419.49	443.027
1419.76	413.181
1420.02	402.832
1420.29	412
1420.56	410.899
1420.83	409.791
1421.1	419.972
1421.36	413.738
1421.63	438.336
1421.9	430.153
1422.17	437.456
1422.44	406.793
1422.7	431.589
1422.97	408.179
1423.24	437.337
1423.51	423.306
1423.77	432.589
1424.04	401.963
1424.31	430.786
1424.58	399.641
1424.85	420.137
1425.11	412.061
1425.38	412.347
1425.65	439.07
1425.92	406.194
1426.19	407.361
1426.45	439.135
1426.72	431.88
1426.99	427.671
1427.26	433.707
1427.52	408.988
1427.79	431.362
1428.06	385.14
1428.33	406.583
1428.59	422.941
1428.86	419.878
1429.13	386.115
1429.4	416.871
1429.67	411.8
1429.93	434.401
1430.2	418.103
1430.47	385.422
1430.74	400.882
1431	438.944
1431.27	428.88
1431.54	414.663
1431.81	428.079
1432.07	433.215
1432.34	403.379
1432.61	394.053
1432.87	406.306
1433.14	425.671
1433.41	433.717
1433.68	440.71
1433.95	421.078
1434.21	414.833
1434.48	415.818
1434.75	411.915
1435.01	421.225
1435.28	427.394
1435.55	434.572
1435.82	397.675
1436.08	400.733
1436.35	435.548
1436.62	405.809
1436.89	429.336
1437.15	417.005
1437.42	382.146
1437.69	426.181
1437.95	429.209
1438.22	415.877
1438.49	422.045
1438.76	435.429
1439.02	409.86
1439.29	420.12
1439.56	434.489
1439.82	409.966
1440.09	443.884
1440.36	415.304
1440.63	410.231
1440.89	401.03
1441.16	394.886
1441.43	446.186
1441.69	410.265
1441.96	421.478
1442.23	399.915
1442.49	407.177
1442.76	435.902
1443.03	419.581
1443.3	430.811
1443.56	389.726
1443.83	411.203
1444.1	421.416
1444.36	401.926
1444.63	399.903
1444.9	421.554
1445.16	447.302
1445.43	460.785
1445.7	406.373
1445.97	399.156
1446.23	432.977
1446.5	426.788
1446.77	438.041
1447.03	440.061
1447.3	402.086
1447.57	409.226
1447.83	410.202
1448.1	429.642
1448.37	426.566
1448.63	402.033
1448.9	457.508
1449.17	427.794
1449.43	410.355
1449.7	425.706
1449.97	434.883
1450.23	421.486
1450.5	435.771
1450.77	429.586
1451.03	425.455
1451.3	431.574
1451.57	426.415
1451.83	431.499
1452.1	419.164
1452.37	381.225
1452.63	411.947
1452.9	423.225
1453.17	402.756
1453.43	403.828
1453.7	394.645
1453.97	402.849
1454.23	418.195
1454.5	414.075
1454.77	412.028
1455.03	378.215
1455.3	400.75
1455.56	430.44
1455.83	419.18
1456.1	403.881
1456.36	426.47
1456.63	402.898
1456.9	412.09
1457.16	427.393
1457.43	412.984
1457.7	391.441
1457.96	395.516
1458.23	394.477
1458.49	418.042
1458.76	412.932
1459.03	420.129
1459.29	402.734
1459.56	408.897
1459.82	392.514
1460.09	417.091
1460.36	425.262
1460.62	405.77
1460.89	415.982
1461.16	396.479
1461.42	376.971
1461.69	420.956
1461.95	405.54
1462.22	409.569
1462.49	406.427
1462.75	412.487
1463.02	406.261
1463.28	410.262
1463.55	397.895
1463.82	395.769
1464.08	400.868
1464.35	380.54
1464.61	409.365
1464.88	406.441
1465.15	388.199
1465.41	407.348
1465.68	412.745
1465.94	413.433
1466.21	426.66
1466.48	429.855
1466.74	394.091
1467.01	430.651
1467.27	408.153
1467.54	402.072
1467.8	391.846
1468.07	390.8
1468.34	424.446
1468.6	438.721
1468.87	417.292
1469.13	388.71
1469.4	394.793
1469.67	408.003
1469.93	393.653
1470.2	389.485
1470.46	393.49
1470.73	389.362
1470.99	410.715
1471.26	393.366
1471.53	375.996
1471.79	384.072
1472.06	402.352
1472.32	402.325
1472.59	395.183
1472.85	393.137
1473.12	429.782
1473.39	394.116
1473.65	404.241
1473.92	407.236
1474.18	413.295
1474.45	419.372
1474.71	405.125
1474.98	393.967
1475.24	390.941
1475.51	418.429
1475.78	407.221
1476.04	428.558
1476.31	408.15
1476.57	382.675
1476.84	423.339
1477.1	404.963
1477.37	405.915
1477.63	416.053
1477.9	389.598
1478.16	397.725
1478.43	417
1478.69	426.071
1478.96	407.713
1479.22	426.965
1479.49	402.506
1479.76	397.352
1480.02	386.095
1480.29	392.109
1480.55	374.712
1480.82	403.023
1481.08	412.078
1481.35	421.174
1481.61	395.742
1481.88	376.503
1482.14	404.975
1482.41	387.796
1482.67	393.967
1482.94	390.983
1483.2	422.456
1483.47	383.924
1483.73	395.12
1484	434.725
1484.26	381.909
1484.53	386.832
1484.79	423.141
1485.06	402.427
1485.32	388.733
1485.59	400.686
1485.85	402.403
1486.12	382.051
1486.38	367.971
1486.65	396.496
1486.91	396.081
1487.18	425.667
1487.44	379.115
1487.71	408.385
1487.97	402.216
1488.24	413.301
1488.5	398.047
1488.77	391.887
1489.03	407.988
1489.3	424.104
1489.56	429.118
1489.83	392.66
1490.09	403.762
1490.36	373.41
1490.62	391.615
1490.89	441.134
1491.15	429.923
1491.42	392.428
1491.68	399.469
1491.95	407.54
1492.21	389.342
1492.48	387.337
1492.74	409.568
1493	404.492
1493.27	380.217
1493.53	438.851
1493.8	386.257
1494.06	403.427
1494.33	406.465
1494.59	387.286
1494.86	402.484
1495.12	413.589
1495.39	407.46
1495.65	392.184
1495.92	401.137
1496.18	419.2
1496.45	380.757
1496.71	398.878
1496.97	388.736
1497.24	390.703
1497.5	382.626
1497.77	403.818
1498.03	408.841
1498.3	413.879
1498.56	404.8
1498.82	389.671
1499.09	396.75
1499.35	398.786
1499.62	399.822
1499.88	402.886
1500.15	399.892
1500.41	425.147
1500.68	393.847
1500.94	383.739
1501.2	416.033
1501.47	376.622
1501.73	417.929
1502	405.794
1502.26	414.865
1502.52	406.777
1502.79	391.604
1503.05	403.628
1503.32	412.627
1503.58	424.681
1503.85	413.515
1504.11	404.439
1504.37	423.638
1504.64	392.396
1504.9	390.383
1505.17	401.458
1505.43	397.384
1505.7	391.276
1505.96	398.223
1506.22	379.948
1506.49	401.079
1506.75	384.949
1507.02	404.108
1507.28	381.999
1507.54	391.083
1507.81	419.317
1508.07	382.029
1508.34	389.058
1508.6	387.022
1508.86	362.848
1509.13	401.152
1509.39	391.082
1509.66	410.222
1509.92	393.091
1510.18	403.212
1510.45	396.184
1510.71	395.102
1510.98	385.96
1511.24	394.937
1511.5	408.926
1511.77	407.757
1512.03	372.336
1512.29	385.215
1512.56	419.198
1512.82	394.914
1513.08	411.886
1513.35	411.793
1513.61	395.653
1513.88	414.694
1514.14	423.827
1514.4	438.053
1514.67	418.005
1514.93	403.896
1515.2	395.772
1515.46	382.617
1515.72	407.614
1515.99	402.475
1516.25	407.372
1516.51	411.299
1516.78	399.226
1517.04	392.176
1517.3	391.149
1517.57	406.178
1517.83	400.17
1518.09	388.167
1518.36	382.22
1518.62	391.268
1518.88	389.29
1519.15	403.357
1519.41	413.424
1519.67	393.392
1519.94	390.402
1520.2	390.394
1520.47	400.392
1520.73	406.383
1520.99	431.487
1521.26	391.399
1521.52	372.37
1521.78	395.463
1522.05	424.545
1522.31	390.397
1522.57	425.465
1522.84	405.354
1523.1	392.275
1523.36	414.273
1523.62	403.123
1523.89	381.921
1524.15	383.825
1524.41	417.801
1524.68	406.713
1524.94	388.627
1525.2	386.669
1525.47	397.704
1525.73	409.737
1525.99	407.794
1526.26	414.883
1526.52	380.922
1526.78	407.06
1527.05	391.055
1527.31	382.025
1527.57	393.999
1527.84	414.018
1528.1	365.884
1528.36	376.876
1528.63	411.899
1528.89	366.775
1529.15	414.825
1529.41	397.777
1529.68	384.749
1529.94	392.737
1530.2	401.688
1530.47	401.671
1530.73	399.706
1530.99	398.785
1531.25	387.846
1531.52	400.932
1531.78	421.985
1532.04	399.914
1532.31	405.938
1532.57	397.87
1532.83	411.945
1533.09	376.975
1533.36	387.136
1533.62	395.28
1533.88	382.296
1534.15	366.277
1534.41	423.454
1534.67	422.428
1534.94	422.396
1535.2	417.338
1535.46	384.208
1535.72	398.174
1535.99	396.976
1536.25	383.833
1536.51	403.781
1536.77	415.659
1537.04	405.497
1537.3	376.349
1537.56	366.293
1537.82	402.218
1538.09	421.228
1538.35	388.142
1538.61	382.023
1538.87	402.978
1539.14	419.932
1539.4	409.049
1539.66	367.265
1539.92	396.563
1540.19	424.807
1540.45	380.897
1540.71	401.111
1540.97	375.15
1541.24	409.289
1541.5	407.117
1541.76	401.083
1542.02	401.978
1542.29	425.924
1542.55	383.751
1542.81	392.669
1543.07	428.621
1543.34	406.505
1543.6	395.399
1543.86	382.268
1544.12	381.14
1544.39	414.16
1544.65	394.183
1544.91	379.26
1545.17	401.388
1545.43	396.472
1545.7	416.654
1545.96	388.703
1546.22	395.765
1546.48	419.85
1546.74	384.768
1547.01	395.806
1547.27	400.86
1547.53	390.889
1547.79	394.939
1548.06	394.854
1548.32	414.678
1548.58	398.657
1548.84	393.672
1549.1	378.762
1549.37	408.439
1549.63	396.025
1549.89	418.928
1550.15	404.159
1550.42	421.596
1550.68	399.168
1550.94	435.737
1551.2	412.046
1551.46	446.912
1551.73	388.718
1551.99	420.766
1552.25	391.532
1552.51	421.827
1552.77	411.954
1553.03	388.803
1553.3	418.814
1553.56	411.489
1553.82	401.393
1554.08	406.376
1554.34	384.231
1554.61	375.1
1554.87	419.075
1555.13	392.879
1555.39	400.844
1555.65	411.837
1555.91	414.841
1556.18	388.821
1556.44	388.826
1556.7	403.792
1556.96	434.849
1557.22	411.838
1557.48	411.862
1557.75	401.852
1558.01	411.848
1558.27	415.78
1558.53	429.668
1558.79	406.539
1559.06	402.4
1559.32	393.275
1559.58	402.172
1559.84	404.086
1560.1	398.017
1560.36	433.946
1560.63	407.915
1560.89	395.891
1561.15	396.867
1561.41	401.86
1561.67	411.882
1561.93	408.959
1562.19	417.069
1562.46	378.187
1562.72	387.192
1562.98	384.174
1563.24	420.144
1563.5	410.164
1563.76	431.124
1564.02	388.103
1564.29	378.236
1564.55	420.409
1564.81	386.435
1565.07	408.424
1565.33	430.2
1565.59	392.511
1565.85	403.522
1566.11	404.012
1566.38	383.688
1566.64	386.146
1566.9	399.943
1567.16	398.683
1567.42	427.996
1567.68	425.371
1567.94	401.266
1568.2	411.984
1568.47	438.027
1568.73	415.091
1568.99	400.121
1569.25	405.083
1569.51	406.934
1569.77	409.846
1570.03	387.865
1570.29	402.886
1570.55	405.894
1570.82	411.896
1571.08	404.893
1571.34	420.865
1571.6	409.836
1571.86	410.771
1572.12	419.689
1572.38	406.691
1572.64	435.605
1572.9	396.576
1573.17	392.525
1573.43	377.495
1573.69	415.363
1573.95	398.339
1574.21	424.297
1574.47	397.421
1574.73	423.471
1574.99	402.6
1575.25	407.696
1575.51	384.813
1575.78	436.848
1576.04	392.896
1576.3	421.848
1576.56	399.856
1576.82	370.835
1577.08	392.695
1577.34	400.533
1577.6	396.398
1577.86	415.22
1578.12	437.034
1578.38	392.032
1578.64	395.948
1578.9	390.94
1579.17	420.844
1579.43	418.847
1579.69	407.884
1579.95	408.905
1580.21	411.955
1580.47	404.007
1580.73	407.007
1580.99	406.99
1581.25	400.961
1581.51	397.908
1581.77	419.785
1582.03	376.848
1582.29	407.656
1582.55	414.6
1582.81	399.628
1583.07	411.551
1583.33	416.508
1583.59	398.566
1583.85	409.512
1584.11	400.508
1584.38	391.544
1584.64	406.518
1584.9	406.545
1585.16	403.573
1585.42	395.6
1585.68	417.492
1585.94	402.541
1586.2	422.421
1586.46	401.414
1586.72	389.37
1586.98	394.277
1587.24	415.124
1587.5	406.124
1587.76	412.059
1588.02	413.034
1588.28	418.011
1588.54	429.985
1588.8	415.107
1589.06	407.205
1589.32	438.112
1589.58	413.279
1589.84	413.317
1590.1	398.397
1590.36	407.357
1590.62	402.411
1590.88	426.357
1591.14	412.454
1591.4	379.577
1591.66	398.496
1591.92	400.461
1592.18	377.519
1592.44	426.214
1592.7	388.264
1592.96	420.012
1593.22	417.958
1593.48	394.935
1593.74	398.756
1594	389.649
1594.26	391.536
1594.52	404.396
1594.78	390.491
1595.04	388.55
1595.3	409.492
1595.56	402.591
1595.82	389.673
1596.08	427.24
1596.34	411.34
1596.6	409.352
1596.86	404.39
1597.12	408.378
1597.38	420.326
1597.64	391.553
1597.9	408.476
1598.16	418.401
1598.42	413.394
1598.68	416.3
1598.94	390.372
1599.2	404.176
1599.46	378.295
1599.72	396.094
1599.98	417.855
1600.24	414.808
1600.5	412.757
1600.76	420.611
1601.02	419.517
1601.28	441.192
1601.54	443.029
1601.8	401.287
1602.06	430.885
1602.32	408.026
1602.58	400.029
1602.84	410.829
1603.1	399.847
1603.36	377.998
1603.62	406.608
1603.88	396.668
1604.14	385.759
1604.4	384.761
1604.66	415.418
1604.92	389.722
1605.17	390.715
1605.43	413.465
1605.69	419.413
1605.95	399.669
1606.21	401.693
1606.47	408.669
1606.73	392.893
1606.99	393.923
1607.25	373.22
1607.51	423.094
1607.77	410.428
1608.03	385.339
1608.29	416.716
1608.55	406.85
1608.81	426.313
1609.07	396.619
1609.32	396.499
1609.58	392.068
1609.84	417.188
1610.1	386.725
1610.36	391.857
1610.62	399.445
1610.88	418.104
1611.14	411.447
1611.4	387.032
1611.66	393.547
1611.92	385.793
1612.18	399.964
1612.44	413.279
1612.69	394.736
1612.95	393.889
1613.21	397.927
1613.47	383.223
1613.73	394.437
1613.99	389.302
1614.25	420.634
1614.51	394.129
1614.77	391.837
1615.03	403.013
1615.29	385.89
1615.54	392.297
1615.8	403.819
1616.06	412.65
1616.32	387.117
1616.58	410.042
1616.84	386.86
1617.1	387.639
1617.36	398.694
1617.62	376.585
1617.88	397.324
1618.13	393.679
1618.39	375.78
1618.65	394.167
1618.91	389.803
1619.17	395.691
1619.43	401.333
1619.69	396.034
1619.95	401.004
1620.2	385.917
1620.46	393.507
1620.72	394.505
1620.98	393.726
1621.24	396.032
1621.5	400.624
1621.76	390.592
1622.02	395.368
1622.27	398.922
1622.53	399.026
1622.79	387.129
1623.05	394.035
1623.31	391.573
1623.57	385.538
1623.83	399.884
1624.09	402.094
1624.34	398.021
1624.6	401.016
1624.86	405.155
1625.12	401.801
1625.38	397.175
1625.64	398.058
1625.9	386.191
1626.15	406.877
1626.41	396.286
1626.67	372.507
1626.93	387.068
1627.19	400.724
1627.45	396.033
1627.7	396.506
1627.96	397.229
1628.22	395.342
1628.48	394.497
1628.74	396.509
1629	388.018
1629.26	394.556
1629.51	391.024
1629.77	389.611
1630.03	407.163
1630.29	396.287
1630.55	376.76
1630.81	380.682
1631.06	399.003
1631.32	391.613
1631.53	364.631
1631.79	388.328
1632.05	365.735
1632.31	382.55
1632.57	362.818
1632.84	381.647
1633.1	375.921
1633.36	405.36
1633.62	397.264
1633.88	369.628
1634.14	399.241
1634.4	384.518
1634.66	385.522
1634.93	386.515
1635.19	404.249
1635.45	396.346
1635.71	382.52
1635.97	372.631
1636.23	380.473
1636.49	400.129
1636.75	357.714
1637.02	388.198
1637.28	405.861
1637.54	376.242
1637.8	387.035
1638.06	372.25
1638.32	390.919
1638.58	387.922
1638.84	364.266
1639.1	409.547
1639.37	377.062
1639.63	383.946
1639.89	371.144
1640.15	389.838
1640.41	382.931
1640.67	375.065
1640.93	377.104
1641.19	367.306
1641.46	386.027
1641.72	388.951
1641.98	369.215
1642.24	384.938
1642.5	366.21
1642.76	378.988
1643.02	388.812
1643.28	378.953
1643.54	386.815
1643.8	361.211
1644.06	371.021
1644.33	364.088
1644.59	385.674
1644.85	367.912
1645.11	395.442
1645.37	369.89
1645.63	377.809
1645.89	368.979
1646.15	384.727
1646.41	357.133
1646.67	384.636
1646.93	372.787
1647.19	356.036
1647.46	376.652
1647.72	355.954
1647.98	410.007
1648.24	370.659
1648.5	348.051
1648.76	400.242
1649.02	391.463
1649.28	377.878
1649.54	411.425
1649.8	387.75
1650.06	403.453
1650.32	387.698
1650.58	392.735
1650.85	387.903
1651.11	363.347
1651.37	373.267
1651.63	365.43
1651.89	384.171
1652.15	382.2
1652.41	386.14
1652.67	382.211
1652.93	384.141
1653.19	354.532
1653.45	382.096
1653.71	384.065
1653.97	380.14
1654.23	373.277
1654.49	380.198
1654.75	364.442
1655.01	362.494
1655.27	382.252
1655.53	405.003
1655.8	397.229
1656.06	378.625
1656.32	365.886
1656.57	369.889
1656.84	368.932
1657.1	390.664
1657.36	373.869
1657.62	388.639
1657.88	387.606
1658.14	374.749
1658.4	398.401
1658.66	379.608
1658.92	386.457
1659.18	382.451
1659.44	364.638
1659.7	381.345
1659.96	370.439
1660.22	360.498
1660.48	384.185
1660.74	406.909
1661	390.206
1661.26	372.52
1661.52	386.399
1661.78	367.729
1662.04	381.573
1662.3	362.849
1662.56	396.036
1662.82	386.91
1663.08	363.58
1663.34	368.317
1663.6	364.319
1663.86	391.887
1664.12	381.211
1664.38	351.017
1664.64	371.833
1664.9	359.028
1665.16	385.878
1665.42	397.811
1665.68	393.427
1665.94	366.431
1666.2	373.31
1666.46	350.645
1666.72	379.279
1666.98	367.881
1667.24	373.617
1667.5	360.904
1667.76	393.392
1668.02	401.218
1668.28	386.373
1668.54	403.076
1668.8	365.593
1669.06	363.782
1669.32	400.529
1669.58	369.951
1669.84	375.883
1670.1	371.943
1670.36	372.889
1670.62	394.615
1670.88	379.007
1671.14	352.441
1671.4	369.206
1671.66	383.999
1671.92	404.735
1672.18	411.668
1672.44	367.22
1672.69	385.023
1672.95	386.007
1673.21	364.255
1673.47	395.896
1673.73	368.229
1673.99	368.252
1674.25	366.311
1674.51	379.214
1674.77	377.28
1675.03	386.229
1675.29	368.492
1675.55	338.86
1675.81	381.441
1676.07	367.588
1676.33	364.611
1676.59	369.569
1676.85	399.277
1677.11	386.418
1677.37	348.8
1677.63	371.539
1677.89	400.201
1678.14	388.267
1678.4	359.5
1678.66	362.385
1678.92	368.249
1679.18	369.183
1679.44	365.18
1679.7	355.261
1679.96	363.128
1680.22	366.053
1680.48	353.174
1680.74	359.063
1681	347.167
1681.26	384.676
1681.52	359.955
1681.78	356.982
1682.03	372.782
1682.29	378.706
1682.55	354.996
1682.81	358.952
1683.07	363.873
1683.33	376.702
1683.59	369.779
1683.85	357.92
1684.11	370.749
1684.37	391.466
1684.63	379.55
1684.89	377.54
1685.14	378.504
1685.4	376.513
1685.66	367.616
1685.92	387.36
1686.18	390.322
1686.44	379.465
1686.7	382.456
1686.96	379.568
1687.22	344.04
1687.48	376.645
1687.73	356.856
1687.99	371.627
1688.25	356.767
1688.51	381.417
1688.77	398.158
1689.03	366.504
1689.29	376.292
1689.55	381.159
1689.81	375.168
1690.06	365.225
1690.32	367.112
1690.58	398.645
1690.84	360.262
1691.1	382.998
1691.36	362.308
1691.62	386.006
1691.88	373.215
1692.13	369.297
1692.39	369.294
1692.65	362.362
1692.91	356.384
1693.17	350.393
1693.43	381.872
1693.69	374.863
1693.95	384.604
1694.2	375.652
1694.46	424.844
1694.72	379.433
1694.98	385.284
1695.24	353.754
1695.5	365.593
1695.76	380.387
1696.01	393.213
1696.27	366.635
1696.53	376.537
1696.79	386.424
1697.05	364.736
1697.31	383.421
1697.57	362.656
1697.82	357.634
1698.08	375.261
1698.34	361.394
1698.6	358.375
1698.86	357.328
1699.12	371.052
1699.38	365.117
1699.63	353.297
1699.89	358.233
1700.15	373.977
1700.41	366.107
1700.67	364.068
1700.92	356.178
1701.18	372.883
1701.44	369.906
1701.7	346.263
1701.96	358.004
1702.22	360.879
1702.47	359.827
1702.73	383.341
1702.99	345.924
1703.25	365.553
1703.51	367.504
1703.77	351.756
1704.02	392.982
1704.28	371.342
1704.54	355.652
1704.8	356.679
1705.06	385.184
1705.32	384.179
1705.57	344.848
1705.83	354.67
1706.09	373.336
1706.35	378.185
1706.61	364.35
1706.86	377.026
1707.12	363.183
1707.38	372.904
1707.64	363.988
1707.9	377.62
1708.16	388.284
1708.41	379.333
1708.67	381.168
1708.93	364.37
1709.19	393.629
1709.44	351.431
1709.7	367.038
1709.96	367.009
1710.22	386.578
1710.48	384.624
1710.73	386.59
1710.99	361.163
1711.25	354.359
1711.51	371.037
1711.77	365.19
1712.02	374.029
1712.28	373.052
1712.54	382.801
1712.8	368.003
1713.06	366.868
1713.31	362.793
1713.57	370.467
1713.83	392.811
1714.09	354.549
1714.34	364.25
1714.6	357.362
1714.86	375.883
1715.12	369.997
1715.38	367.057
1715.63	354.417
1715.89	371.102
1716.15	354.486
1716.41	370.084
1716.66	377.842
1716.92	360.177
1717.18	365.929
1717.44	357.988
1717.69	347.101
1717.95	362.526
1718.21	365.287
1718.47	368.066
1718.72	348.46
1718.98	344.483
1719.24	367.804
1719.5	361.951
1719.75	359.996
1720.01	379.443
1720.27	352.205
1720.53	355.137
1720.78	367.755
1721.04	383.259
1721.3	364.66
1721.56	373.335
1721.81	361.583
1722.07	365.387
1722.33	380.848
1722.59	347.696
1722.84	371.899
1723.1	353.347
1723.36	388.235
1723.62	366.798
1723.87	379.375
1724.13	361.889
1724.39	349.231
1724.64	355.035
1724.9	346.236
1725.16	356.816
1725.42	369.284
1725.67	369.148
1725.93	363.187
1726.19	351.464
1726.45	370.798
1726.7	346.594
1726.96	369.821
1727.22	332.943
1727.47	363.815
1727.73	349.273
1727.99	372.604
1728.24	353.203
1728.5	365.73
1728.76	355.905
1729.02	350.573
1729.27	361.611
1729.53	353.683
1729.79	374.155
1730.05	366.621
1730.3	359.998
1730.56	367.498
1730.82	355.809
1731.07	350.945
1731.33	355.205
1731.59	350.393
1731.84	366.826
1732.1	360.049
1732.36	358.091
1732.61	351.288
1732.87	346.415
1733.13	332.834
1733.39	350.144
1733.64	349.068
1733.9	381.741
1734.16	364.211
1734.41	367.954
1734.67	363.013
1734.93	374.458
1735.18	351.207
1735.44	371.319
1735.7	354.84
1735.95	343.209
1736.21	357.591
1736.47	357.554
1736.72	344.04
1736.98	369.009
1737.24	369.917
1737.49	368.897
1737.75	333.254
1738.01	361.099
1738.26	350.454
1738.52	350.376
1738.78	364.715
1739.03	380.011
1739.29	371.269
1739.55	350.987
1739.8	376.774
1740.06	340.132
1740.32	363.964
1740.57	352.315
1740.83	353.159
1741.09	366.485
1741.34	352.026
1741.6	348.112
1741.86	358.573
1742.11	339.358
1742.37	346.02
1742.63	375.677
1742.88	375.643
1743.14	346.882
1743.4	363.129
1743.65	351.629
1743.91	354.462
1744.16	344.817
1744.42	369.627
1744.68	375.308
1744.93	357.104
1745.19	361.882
1745.45	357.102
1745.7	339.881
1745.96	357.076
1746.22	362.765
1746.47	363.645
1746.73	359.723
1746.98	346.232
1747.24	366.21
1747.5	354.64
1747.75	350.735
1748.01	363.06
1748.27	356.332
1748.52	349.639
1748.78	366.822
1749.03	342.968
1749.29	358.263
1749.55	354.482
1749.8	346.897
1750.06	341.232
1750.32	346.083
1750.57	354.762
1750.83	367.26
1751.08	360.596
1751.34	342.47
1751.6	362.553
1751.85	350.076
1752.11	354.75
1752.36	363.236
1752.62	358.373
1752.88	354.473
1753.13	353.434
1753.39	359.077
1753.64	365.686
1753.9	363.711
1754.15	356.017
1754.41	365.471
1754.67	359.665
1754.92	337.678
1755.18	357.645
1755.43	335.677
1755.69	347.068
1755.95	342.241
1756.2	371.698
1756.46	354.458
1756.71	344.837
1756.97	355.192
1757.23	353.171
1757.48	353.064
1757.74	355.871
1757.99	344.411
1758.25	376.768
1758.5	331.209
1758.76	375.007
1759.02	361.691
1759.27	346.467
1759.53	364.549
1759.78	345.532
1760.04	369.314
1760.3	353.106
1760.55	357.83
1760.81	360.646
1761.06	353.942
1761.32	338.663
1761.57	359.512
1761.83	336.626
1762.08	341.334
1762.34	355.563
1762.6	330.832
1762.85	350.85
1763.11	350.886
1763.36	353.743
1763.62	348.971
1763.87	352.782
1764.13	368.97
1764.38	349.035
1764.64	356.715
1764.89	353.04
1765.15	348.334
1765.4	350.282
1765.66	341.745
1765.92	340.813
1766.17	341.775
1766.43	350.341
1766.68	356.991
1766.94	349.343
1767.19	348.364
1767.45	352.163
1767.7	353.082
1767.96	369.208
1768.21	353.924
1768.47	352.929
1768.73	355.749
1768.98	349.06
1769.24	352.716
1769.49	376.275
1769.75	358.978
1770	338.91
1770.26	364.556
1770.51	358.941
1770.77	340.978
1771.02	352.382
1771.28	358.105
1771.53	340.142
1771.79	371.638
1772.04	364.076
1772.3	347.927
1772.55	369.858
1772.81	350.905
1773.06	347.152
1773.32	346.24
1773.57	339.616
1773.83	340.601
1774.08	367.284
1774.34	359.695
1774.59	373.993
1774.85	367.344
1775.1	339.779
1775.36	353.136
1775.61	329.385
1775.87	359.074
1776.12	352.493
1776.38	347.77
1776.63	350.64
1776.89	337.275
1777.14	351.526
1777.4	346.697
1777.65	367.621
1777.91	365.646
1778.16	344.62
1778.42	359.791
1778.67	340.678
1778.93	357.739
1779.18	356.689
1779.44	355.634
1779.69	347.961
1779.95	355.563
1780.2	354.712
1780.46	371.866
1780.71	348.096
1780.97	366.21
1781.22	347.205
1781.47	358.633
1781.73	341.509
1781.98	360.58
1782.24	353.962
1782.49	350.208
1782.75	357.91
1783	338.906
1783.26	355.144
1783.51	363.758
1783.77	370.475
1784.02	357.176
1784.28	357.226
1784.53	354.427
1784.79	351.655
1785.04	346.937
1785.29	346.964
1785.55	346.961
1785.8	351.71
1786.06	328.775
1786.31	333.506
1786.57	344.002
1786.82	352.615
1787.08	354.578
1787.33	354.652
1787.58	357.613
1787.84	376.847
1788.09	339.806
1788.35	350.542
1788.6	329.715
1788.86	348.999
1789.11	355.759
1789.37	339.561
1789.62	338.73
1789.87	342.647
1790.13	344.606
1790.38	374.364
1790.64	351.403
1790.89	332.231
1791.15	353.302
1791.4	358.011
1791.65	372.155
1791.91	364.458
1792.16	352.927
1792.42	344.31
1792.67	366.349
1792.93	370.198
1793.18	337.675
1793.43	379.853
1793.69	335.791
1793.94	377.946
1794.2	367.454
1794.45	363.634
1794.7	360.75
1794.96	353.985
1795.21	350.251
1795.47	371.624
1795.72	347.825
1795.97	345.035
1796.23	368.129
1796.48	362.434
1796.74	355.778
1796.99	372.177
1797.25	361.682
1797.5	365.593
1797.75	328.165
1798.01	356.084
1798.26	372.466
1798.51	346.538
1798.77	360.019
1799.02	356.173
1799.28	351.343
1799.53	363.8
1799.78	346.437
1800.04	369.431
1800.29	361.673
1800.55	377.951
1800.8	369.257
1801.05	374.985
1801.31	349.986
1801.56	344.208
1801.81	339.403
1802.07	349.979
1802.32	345.197
1802.58	361.56
1802.83	358.723
1803.08	367.431
1803.34	353.084
1803.59	364.695
1803.84	348.41
1804.1	346.517
1804.35	344.61
1804.61	335.033
1804.86	346.639
1805.11	361.135
1805.37	368.914
1805.62	346.862
1805.87	371.02
1806.13	348.945
1806.38	372.126
1806.64	349.059
1806.89	361.632
1807.14	356.843
1807.4	352.034
1807.65	350.107
1807.9	339.504
1808.16	349.143
1808.41	362.641
1808.66	375.177
1808.92	354.945
1809.17	343.388
1809.42	363.642
1809.68	372.329
1809.93	365.594
1810.18	355.966
1810.44	346.334
1810.69	358.869
1810.94	377.167
1811.2	358.827
1811.45	362.676
1811.7	353.024
1811.96	346.268
1812.21	345.306
1812.46	358.817
1812.72	357.89
1812.97	341.544
1813.22	367.646
1813.48	332.003
1813.73	344.563
1813.98	360.047
1814.24	354.335
1814.49	363.117
1814.74	342.939
1815	353.676
1815.25	387.559
1815.5	367.325
1815.76	350.925
1816.01	346.108
1816.26	335.49
1816.52	350.004
1816.77	357.759
1817.02	374.216
1817.27	352.925
1817.53	346.105
1817.78	366.226
1818.03	346.784
1818.29	341.003
1818.54	354.586
1818.79	348.883
1819.05	365.365
1819.3	393.368
1819.55	339.274
1819.8	363.476
1820.06	336.45
1820.31	342.279
1820.56	346.184
1820.82	358.8
1821.07	358.838
1821.32	360.803
1821.58	368.59
1821.83	357.036
1822.08	357.085
1822.33	377.449
1822.59	360.059
1822.84	367.825
1823.09	350.419
1823.34	363.987
1823.6	364.945
1823.85	350.391
1824.1	354.224
1824.36	340.661
1824.61	351.333
1824.86	348.458
1825.11	390.115
1825.37	358.2
1825.62	350.49
1825.87	377.629
1826.12	348.58
1826.38	364.071
1826.63	346.643
1826.88	355.366
1827.14	349.561
1827.39	356.36
1827.64	358.329
1827.89	380.649
1828.15	351.617
1828.4	349.679
1828.65	376.79
1828.9	369
1829.16	359.257
1829.41	356.315
1829.66	347.581
1829.91	366.935
1830.17	365.942
1830.42	363.959
1830.67	371.66
1830.92	353.223
1831.18	345.477
1831.43	363.909
1831.68	345.557
1831.93	363.035
1832.19	336.926
1832.44	347.623
1832.69	338.949
1832.94	350.644
1833.2	382.677
1833.45	364.266
1833.7	348.763
1833.95	378.844
1834.2	360.44
1834.46	361.431
1834.71	334.194
1834.96	377.608
1835.21	376.449
1835.47	375.303
1835.72	374.22
1835.97	352.834
1836.22	356.695
1836.48	368.213
1836.73	367.774
1836.98	395.88
1837.23	370.132
1837.48	374.797
1837.74	352.252
1837.99	372.351
1838.24	359.399
1838.49	358.207
1838.74	390.041
1839	360.697
1839.25	344.495
1839.5	365.935
1839.75	358.233
1840	360.218
1840.26	359.336
1840.51	362.874
1840.76	365.519
1841.01	390.444
1841.27	346.74
1841.52	370.728
1841.77	363.798
1842.02	352.061
1842.27	382.811
1842.53	346.016
1842.78	364.222
1843.03	350.778
1843.28	368.101
1843.53	350.777
1843.78	350.768
1844.04	360.412
1844.29	366.157
1844.54	347.826
1844.79	371.018
1845.04	368.128
1845.3	340.093
1845.55	335.28
1845.8	362.288
1846.05	348.926
1846.3	352.939
1846.55	355.973
1846.81	336.894
1847.06	356.02
1847.31	361.289
1847.56	366.45
1847.81	344.185
1848.07	355.74
1848.32	331.841
1848.57	357.046
1848.82	353.006
1849.07	355.796
1849.32	350.989
1849.57	346.103
1849.83	361.398
1850.08	341.077
1850.33	359.246
1850.58	345.647
1850.83	348.425
1851.09	352.173
1851.34	371.307
1851.59	333.773
1851.84	358.69
1852.09	343.286
1852.34	372.073
1852.59	356.703
1852.84	357.661
1853.1	350.935
1853.35	361.483
1853.6	359.537
1853.85	356.613
1854.1	352.7
1854.35	374.668
1854.6	351.52
1854.86	359.088
1855.11	365.74
1855.36	327.332
1855.61	355.027
1855.86	344.367
1856.11	340.467
1856.36	345.222
1856.61	338.495
1856.87	352.859
1857.12	337.529
1857.37	363.37
1857.62	344.181
1857.87	349.882
1858.12	353.665
1858.37	334.46
1858.63	360.231
1858.88	351.532
1859.13	354.317
1859.38	338.923
1859.63	351.263
1859.88	345.461
1860.13	356.922
1860.38	366.48
1860.63	341.642
1860.89	360.829
1861.14	348.455
1861.39	340.851
1861.64	347.61
1861.89	366.802
1862.14	349.593
1862.39	363.925
1862.64	342.817
1862.9	343.696
1863.15	355.087
1863.4	342.569
1863.65	346.31
1863.9	357.7
1864.15	334.694
1864.4	362.334
1864.65	348.893
1864.9	334.502
1865.15	342.067
1865.4	352.476
1865.66	352.366
1865.91	331.257
1866.16	356.873
1866.41	346.234
1866.66	333.694
1866.91	358.312
1867.16	345.782
1867.41	335.168
1867.66	359.769
1867.91	347.296
1868.16	342.478
1868.41	335.781
1868.67	342.408
1868.92	335.756
1869.17	342.426
1869.42	350.976
1869.67	346.201
1869.92	357.582
1870.17	349.003
1870.42	367.992
1870.67	355.614
1870.92	327.084
1871.17	344.179
1871.42	372.682
1871.67	348.894
1871.92	341.249
1872.17	344.037
1872.42	325.943
1872.68	341.104
1872.93	344.836
1873.18	334.317
1873.43	344.711
1873.68	352.286
1873.93	335.168
1874.18	337.964
1874.43	360.671
1874.68	339.715
1874.93	361.441
1875.18	353.758
1875.43	340.385
1875.68	337.442
1875.93	367.633
1876.18	346.594
1876.43	354.034
1876.68	350.136
1876.93	346.264
1877.18	332.968
1877.43	351.705
1877.68	346.763
1877.93	351.078
1878.18	348.53
1878.44	345.065
1878.69	349.309
1878.93	327.385
1879.19	338.693
1879.44	371.211
1879.69	334.431
1879.94	338.114
1880.19	348.422
1880.44	347.454
1880.69	351.214
1880.94	349.397
1881.19	345.527
1881.44	346.453
1881.69	365.231
1881.94	355.587
1882.19	347.84
1882.44	342.925
1882.69	347.443
1882.94	356.631
1883.19	323.507
1883.44	332.693
1883.69	347.252
1883.94	344.788
1884.19	343.876
1884.44	342.958
1884.69	345.989
1884.94	351.455
1885.19	335.556
1885.44	340.445
1885.69	329.168
1885.94	341.475
1886.19	356.746
1886.44	373.826
1886.69	358.77
1886.94	334.176
1887.19	344.415
1887.44	339.615
1887.69	333.871
1887.94	352.651
1888.19	351.613
1888.44	342.081
1888.69	339.115
1888.94	368.198
1889.19	346.415
1889.44	345.361
1889.69	326.472
1889.94	325.515
1890.19	363.148
1890.44	322.7
1890.69	332.187
1890.94	335.087
1891.19	352.061
1891.43	364.289
1891.68	342.591
1891.94	348.232
1892.18	354.797
1892.43	358.542
1892.68	350.992
1892.93	322.693
1893.18	341.448
1893.43	331.912
1893.68	359.935
1893.93	367.274
1894.18	323.991
1894.43	354.122
1894.68	349.29
1894.93	342.647
1895.18	340.738
1895.43	357.655
1895.68	351.102
1895.93	345.498
1896.18	357.753
1896.43	356.857
1896.68	347.512
1896.93	340.996
1897.18	357.979
1897.42	340.154
1897.68	347.708
1897.92	352.424
1898.17	359.945
1898.42	361.801
1898.67	348.588
1898.92	345.702
1899.17	338.099
1899.42	330.489
1899.67	340.759
1899.92	326.625
1900.17	335.974
1900.42	342.504
1900.67	333.095
1900.92	335.921
1901.16	335.952
1901.41	337.885
1901.66	342.652
1901.91	338.957
1902.16	350.306
1902.41	342.863
1902.66	357.045
1902.91	330.708
1903.16	350.429
1903.41	341.924
1903.66	350.343
1903.91	356.891
1904.16	336.179
1904.41	330.519
1904.65	349.309
1904.9	348.353
1905.15	334.23
1905.4	348.314
1905.65	341.725
1905.9	333.242
1906.15	360.397
1906.4	321.753
1906.65	351.762
1906.9	344.203
1907.14	338.53
1907.39	335.685
1907.64	362.918
1907.89	339.459
1908.14	330.109
1908.39	333.926
1908.64	348.044
1908.89	348.061
1909.14	357.492
1909.39	351.907
1909.63	333.176
1909.88	321.035
1910.13	347.464
1910.38	366.394
1910.63	351.462
1910.88	344.037
1911.13	332.812
1911.38	339.455
1911.62	340.428
1911.87	345.149
1912.12	351.737
1912.37	344.175
1912.62	348.857
1912.87	337.544
1913.12	326.238
1913.37	336.597
1913.61	316.826
1913.86	356.438
1914.11	340.519
1914.36	347.223
1914.61	339.759
1914.86	347.372
1915.11	356.878
1915.36	335.247
1915.6	343.785
1915.85	362.676
1916.1	324.919
1916.35	356.026
1916.6	345.625
1916.85	328.592
1917.1	329.462
1917.34	353.918
1917.59	355.749
1917.84	345.338
1918.09	350.97
1918.34	334.007
1918.59	332.166
1918.83	341.668
1919.08	347.418
1919.33	341.859
1919.58	357.071
1919.83	351.552
1920.08	346.951
1920.33	344.181
1920.57	344.194
1920.82	346.04
1921.07	333.777
1921.32	327.245
1921.57	346.237
1921.81	344.397
1922.06	352.954
1922.31	342.579
1922.56	372.842
1922.81	335.927
1923.06	349.11
1923.31	355.674
1923.55	341.457
1923.8	344.262
1924.05	348.952
1924.3	337.559
1924.55	345.999
1924.79	335.561
1925.04	341.213
1925.29	338.39
1925.54	335.597
1925.79	352.677
1926.04	353.729
1926.28	334.912
1926.53	347.293
1926.78	330.356
1927.03	341.816
1927.28	349.458
1927.52	361.818
1927.77	348.609
1928.02	338.233
1928.27	353.425
1928.52	370.512
1928.76	375.273
1929.01	344.052
1929.26	351.675
1929.51	328.982
1929.76	346.117
1930	338.636
1930.25	344.412
1930.5	337.874
1930.75	334.157
1931	341.84
1931.24	342.813
1931.49	335.224
1931.74	366.525
1931.99	340.844
1932.24	335.1
1932.48	335.998
1932.73	341.642
1932.98	346.329
1933.23	331.131
1933.47	338.672
1933.72	330.153
1933.97	354.918
1934.22	330.406
1934.46	334.421
1934.71	327.11
1934.96	337.858
1935.21	363.823
1935.46	338.315
1935.7	339.433
1935.95	354.806
1936.2	345.035
1936.45	342.138
1936.69	346.878
1936.94	328.726
1937.19	344.85
1937.44	347.62
1937.68	376.112
1937.93	336.043
1938.18	348.353
1938.43	334.954
1938.68	333.045
1938.92	344.583
1939.17	337.957
1939.42	341.815
1939.67	339.965
1939.91	360.964
1940.16	337.202
1940.41	359.129
1940.66	336.341
1940.9	345.954
1941.15	321.38
1941.4	323.41
1941.64	336.767
1941.89	351.033
1942.14	328.966
1942.39	356.408
1942.63	345.093
1942.88	334.946
1943.13	361.759
1943.38	352.222
1943.62	362.575
1943.87	350.959
1944.12	350.834
1944.37	333.877
1944.61	364.493
1944.86	355.974
1945.11	339.819
1945.35	343.722
1945.6	350.494
1945.85	355.356
1946.1	342.05
1946.34	345.936
1946.59	324.949
1946.84	354.63
1947.09	351.78
1947.33	349.857
1947.58	350.78
1947.83	339.266
1948.07	339.255
1948.32	354.548
1948.57	344.98
1948.82	332.52
1949.06	345.92
1949.31	340.242
1949.56	328.83
1949.8	348.99
1950.05	347.162
1950.3	325.234
1950.54	349.312
1950.79	357.136
1951.04	353.428
1951.29	343.975
1951.53	341.238
1951.78	328.891
1952.03	344.348
1952.27	352.096
1952.52	331.981
1952.77	344.518
1953.01	346.423
1953.26	351.287
1953.51	341.766
1953.76	332.062
1954	327.131
1954.25	337.471
1954.49	339.196
1954.74	346.68
1954.99	339.811
1955.24	342.633
1955.48	336.87
1955.73	334.991
1955.98	352.33
1956.22	340.018
1956.47	351.771
1956.72	333.634
1956.96	346.221
1957.21	354.921
1957.46	346.358
1957.7	356.996
1957.95	339.767
1958.2	350.385
1958.44	345.613
1958.69	332.179
1958.94	337.961
1959.18	356.192
1959.43	351.315
1959.68	348.394
1959.92	340.692
1960.17	345.439
1960.42	346.342
1960.66	350.128
1960.91	342.383
1961.16	349.035
1961.4	337.451
1961.65	354.671
1961.9	346.955
1962.14	349.843
1962.39	354.659
1962.63	331.636
1962.88	347.005
1963.13	340.298
1963.37	343.189
1963.62	334.559
1963.87	346.088
1964.11	351.863
1964.36	313.497
1964.61	327.933
1964.85	363.454
1965.1	349.02
1965.35	338.462
1965.59	336.526
1965.84	335.57
1966.08	343.284
1966.33	349.111
1966.58	345.345
1966.82	326.201
1967.07	354.121
1967.32	349.358
1967.56	357.996
1967.81	341.655
1968.05	347.451
1968.3	364.766
1968.55	343.629
1968.79	354.195
1969.04	349.353
1969.29	331.026
1969.53	329.98
1969.78	345.241
1970.02	337.445
1970.27	337.354
1970.52	340.16
1970.76	329.551
1971.01	349.641
1971.25	339.031
1971.5	363.93
1971.75	329.36
1971.99	336.045
1972.24	337.026
1972.48	348.568
1972.73	320.762
1972.98	345.699
1973.22	344.706
1973.47	323.545
1973.71	347.442
1973.96	338.746
1974.21	361.704
1974.45	337.707
1974.7	344.4
1974.94	334.814
1975.19	336.74
1975.44	348.269
1975.68	335.848
1975.93	332.061
1976.17	339.776
1976.42	353.236
1976.66	331.195
1976.91	353.267
1977.16	333.122
1977.4	340.782
1977.65	348.43
1977.89	357.019
1978.14	332.028
1978.39	331.97
1978.63	325.211
1978.88	357.762
1979.12	335.692
1979.37	343.356
1979.61	335.696
1979.86	363.492
1980.1	345.291
1980.35	343.377
1980.6	340.465
1980.84	344.234
1981.09	328.842
1981.33	358.511
1981.58	336.423
1981.82	345.962
1982.07	334.441
1982.31	340.173
1982.56	356.438
1982.81	346.802
1983.05	347.698
1983.3	357.184
1983.54	341.765
1983.79	334.989
1984.03	343.563
1984.28	347.361
1984.52	350.193
1984.77	331.982
1985.02	348.207
1985.26	345.277
1985.51	349.007
1985.75	344.181
1986	331.754
1986.24	346.109
1986.49	337.551
1986.73	349.079
1986.98	348.149
1987.22	355.782
1987.47	330.943
1987.71	315.585
1987.96	352.766
1988.21	341.178
1988.45	329.584
1988.7	343.755
1988.94	347.332
1989.19	350.712
1989.43	343.884
1989.68	356.297
1989.92	344.785
1990.17	332.963
1990.41	333.97
1990.66	339.256
1990.9	353.907
1991.15	339.786
1991.39	351.798
1991.64	338.937
1991.88	352.752
1992.13	334.54
1992.37	353.036
1992.62	335.111
1992.86	351.78
1993.11	353.406
1993.35	346.841
1993.6	347.096
1993.84	333.62
1994.09	333.256
1994.33	339.04
1994.58	332.318
1994.82	333.067
1995.07	341.585
1995.31	343.494
1995.56	339.209
1995.8	326.169
1996.05	358.104
1996.29	346.365
1996.54	344.857
1996.78	342.068
1997.03	333.262
1997.27	340.347
1997.52	330.613
1997.76	320.49
1998.01	333.36
1998.25	342.209
1998.5	333.795
1998.74	347.308
1998.99	339.482
1999.23	328.523
1999.48	339.474
1999.72	343.491
1999.97	338.907
2000.21	329.472
2000.46	336.736
2000.7	331.457
2000.95	333.706
2001.19	337.781
2001.43	349.298
2001.68	348.928
2001.92	332.168
2002.17	334.962
2002.41	335.057
2002.66	335.493
2002.9	332.975
2003.15	341.107
2003.39	351.483
2003.64	334.156
2003.88	341.949
2004.13	344.081
2004.37	348.786
2004.61	340.124
2004.86	344.065
2005.1	346.961
2005.35	338.092
2005.59	332.807
2005.84	341.3
2006.08	343.826
2006.33	340.477
2006.57	343.027
2006.81	337.506
2007.06	332.025
2007.3	336.916
2007.55	345.746
2007.79	332.032
2008.04	334.226
2008.28	342.625
2008.53	336.303
2008.77	337.745
2009.01	347.443
2009.26	328.533
2009.5	333.613
2009.75	335.24
2009.99	331.488
2010.24	342.557
2010.48	343.236
2010.73	327.453
2010.97	332.575
2011.21	337.999
2011.46	340.27
2011.7	354.506
2011.95	335.616
2012.19	335.909
2012.43	352.319
2012.68	331.573
2012.92	336.255
2013.17	338.066
2013.42	353.003
2013.67	337.775
2013.91	328.274
2014.16	328.151
2014.41	344.915
2014.66	320.317
2014.9	337.998
2015.15	328.568
2015.4	325.766
2015.64	334.257
2015.89	342.763
2016.14	323.086
2016.39	340.887
2016.63	325.948
2016.88	320.55
2017.13	351.612
2017.37	346.89
2017.62	336.499
2017.87	336.419
2018.11	336.314
2018.36	339.938
2018.61	329.472
2018.86	347.173
2019.1	351.733
2019.35	339.405
2019.6	336.468
2019.84	336.402
2020.09	345.719
2020.34	326.959
2020.58	312.901
2020.83	326.933
2021.08	325.046
2021.33	332.556
2021.57	333.512
2021.82	340.069
2022.07	350.355
2022.31	320.352
2022.56	345.588
2022.81	328.668
2023.05	337.947
2023.3	362.178
2023.55	328.42
2023.8	329.281
2024.04	328.272
2024.29	320.72
2024.54	319.721
2024.78	335.5
2025.03	343.788
2025.27	334.334
2025.52	337.027
2025.77	333.193
2026.02	339.631
2026.26	345.105
2026.51	328.349
2026.76	327.538
2027	324.011
2027.25	342.947
2027.5	341.371
2027.74	342.489
2027.99	330.279
2028.23	345.962
2028.48	350.31
2028.73	331.649
2028.98	346.547
2029.22	318.761
2029.47	339.638
2029.72	377.416
2029.96	337.488
2030.21	344.587
2030.45	340.46
2030.7	346.969
2030.95	351.342
2031.19	355.328
2031.44	320.079
2031.69	333.091
2031.93	351.753
2032.18	332.168
2032.43	350.931
2032.67	337.042
2032.92	326.891
2033.17	329.801
2033.41	321.475
2033.66	329.019
2033.91	359.973
2034.15	352.542
2034.4	322.445
2034.64	353.049
2034.89	338.689
2035.14	310.613
2035.38	337.81
2035.63	343.527
2035.87	311.961
2036.12	355.191
2036.37	335.731
2036.61	329.169
2036.86	348.626
2037.11	329.939
2037.35	359.94
2037.6	338.429
2037.84	325.321
2038.09	352.4
2038.34	324.311
2038.58	346.695
2038.83	341.032
2039.08	340.042
2039.32	328.775
2039.57	338.057
2039.81	334.262
2040.06	344.457
2040.31	333.156
2040.55	320.931
2040.8	333.907
2041.04	337.556
2041.29	330.024
2041.54	322.506
2041.78	342.056
2042.03	333.643
2042.27	317.751
2042.52	343.806
2042.77	341.869
2043.01	342.772
2043.26	331.589
2043.5	324.163
2043.75	339.163
2044	337.434
2044.24	325.447
2044.49	323.631
2044.73	326.412
2044.98	346.852
2045.23	325.25
2045.47	329.615
2045.72	330.02
2045.96	347.847
2046.21	326.857
2046.45	331.136
2046.7	349.55
2046.95	322.121
2047.19	332.148
2047.44	333.095
2047.68	325.529
2047.93	336.454
2048.17	317.737
2048.42	362.497
2048.67	338.274
2048.91	322.446
2049.16	339.263
2049.4	321.629
2049.65	338.489
2049.89	332.987
2050.14	349.913
2050.39	309.855
2050.63	329.558
2050.88	340.82
2051.12	328.691
2051.37	328.669
2051.61	339.809
2051.86	327.569
2052.11	344.372
2052.35	346.246
2052.6	323.885
2052.84	344.445
2053.09	351.958
2053.33	340.804
2053.58	332.462
2053.82	329.743
2054.07	328.965
2054.31	354.28
2054.56	348.714
2054.8	347.79
2055.05	324.395
2055.3	328.118
2055.54	339.318
2055.79	339.236
2056.03	324.236
2056.28	349.463
2056.52	328.861
2056.77	328.824
2057.01	344.692
2057.26	327.864
2057.5	326.01
2057.75	341.927
2058	348.513
2058.24	313.032
2058.49	328.044
2058.73	331.867
2058.98	331.006
2059.22	337.627
2059.47	329.254
2059.71	342.38
2059.96	333.973
2060.2	347.086
2060.45	327.383
2060.69	330.14
2060.94	314.194
2061.18	331.079
2061.43	326.446
2061.67	341.458
2061.92	337.728
2062.16	344.288
2062.41	355.536
2062.65	340.579
2062.9	326.567
2063.14	345.346
2063.39	308.872
2063.63	335.159
2063.88	328.644
2064.12	331.492
2064.37	330.582
2064.61	350.294
2064.86	340.96
2065.1	338.197
2065.35	334.524
2065.59	336.503
2065.84	337.535
2066.08	338.555
2066.33	331.112
2066.57	342.425
2066.82	339.622
2067.06	321.815
2067.31	335.94
2067.55	334.09
2067.8	339.771
2068.04	342.646
2068.29	344.573
2068.53	327.692
2068.78	335.231
2069.02	335.281
2069.27	346.566
2069.51	347.455
2069.76	333.258
2070	321.839
2070.25	362.166
2070.49	334.962
2070.73	337.922
2070.98	333.393
2071.22	358.023
2071.47	342.947
2071.71	358.828
2071.96	347.005
2072.2	319.836
2072.45	333.937
2072.69	343.328
2072.94	339.55
2073.18	347.052
2073.43	335.752
2073.67	326.318
2073.92	327.274
2074.16	337.641
2074.4	330.127
2074.65	341.465
2074.89	332.11
2075.14	343.504
2075.38	340.796
2075.63	322.09
2075.87	317.544
2076.12	339.366
2076.36	349.813
2076.6	339.437
2076.85	325.29
2077.09	339.413
2077.34	333.68
2077.58	332.658
2077.83	323.072
2078.07	343.78
2078.31	353.252
2078.56	337.292
2078.8	349.586
2079.05	343.956
2079.29	340.231
2079.54	326.153
2079.78	317.808
2080.03	339.596
2080.27	350.047
2080.51	351.048
2080.76	338.809
2081	321.803
2081.25	346.336
2081.49	339.697
2081.74	315.121
2081.98	325.51
2082.22	343.447
2082.47	326.466
2082.71	323.656
2082.96	334.069
2083.2	329.35
2083.45	342.573
2083.69	335.943
2083.93	350.103
2084.18	330.259
2084.42	345.382
2084.67	331.203
2084.91	334.043
2085.15	350.118
2085.4	339.725
2085.64	329.328
2085.89	319.879
2086.13	328.406
2086.37	355.906
2086.62	337.107
2086.86	316.376
2087.11	340.056
2087.35	337.259
2087.59	342.046
2087.84	334.508
2088.08	361.955
2088.32	330.73
2088.57	351.559
2088.81	345.896
2089.06	329.823
2089.3	337.411
2089.54	332.73
2089.79	338.467
2090.03	335.716
2090.28	320.591
2090.52	328.185
2090.76	346.209
2091.01	338.661
2091.25	316.904
2091.5	352.003
2091.74	337.823
2091.98	340.755
2092.23	346.545
2092.47	358.988
2092.72	317.35
2092.96	347.839
2093.2	351.731
2093.45	363.217
2093.69	337.659
2093.93	339.642
2094.18	334.96
2094.42	338.825
2094.66	335.993
2094.91	340.745
2095.15	333.122
2095.39	337.85
2095.64	344.446
2095.88	341.53
2096.13	326.277
2096.37	342.39
2096.61	323.364
2096.86	351.85
2097.1	346.135
2097.34	347.987
2097.59	327.974
2097.83	347.845
2098.07	339.271
2098.32	333.556
2098.56	343.031
2098.8	356.268
2099.05	325.895
2099.29	335.377
2099.53	357.185
2099.78	357.168
2100.02	332.486
2100.27	341.03
2100.51	349.581
2100.75	347.701
2101	342.04
2101.24	331.681
2101.48	347.889
2101.73	339.384
2101.97	331.806
2102.21	354.601
2102.45	331.797
2102.7	339.396
2102.94	330.827
2103.18	343.117
2103.43	338.298
2103.67	338.259
2103.92	345.843
2104.16	340.127
2104.4	338.234
2104.64	347.756
2104.89	339.264
2105.13	339.314
2105.37	345.06
2105.62	338.471
2105.86	321.444
2106.1	347.165
2106.35	339.599
2106.59	344.386
2106.83	329.193
2107.08	334.911
2107.32	350.153
2107.56	337.804
2107.8	332.061
2108.05	346.254
2108.29	330.009
2108.53	344.166
2108.78	328.875
2109.02	322.157
2109.26	331.624
2109.51	329.739
2109.75	351.667
2109.99	333.69
2110.23	334.642
2110.48	356.492
2110.72	321.341
2110.96	359.339
2111.21	350.789
2111.45	339.385
2111.69	346.96
2111.93	351.66
2112.18	336.427
2112.42	343.054
2112.66	333.554
2112.91	344.034
2113.15	330.771
2113.39	336.509
2113.63	354.646
2113.88	329.058
2114.12	340.495
2114.36	354.73
2114.61	343.293
2114.85	328.08
2115.09	339.499
2115.33	330.952
2115.58	352.791
2115.82	333.754
2116.06	326.125
2116.31	333.698
2116.55	334.579
2116.79	336.412
2117.03	343.028
2117.28	335.412
2117.52	361.036
2117.76	325.914
2118	329.677
2118.25	341.966
2118.49	342.857
2118.73	338.02
2118.97	330.329
2119.22	335.943
2119.46	339.663
2119.7	335.798
2119.94	332.883
2120.19	344.193
2120.43	341.299
2120.67	344.123
2120.91	357.398
2121.16	333.763
2121.4	354.646
2121.64	328.18
2121.88	320.674
2122.13	322.641
2122.37	332.195
2122.61	337.95
2122.85	324.715
2123.1	335.198
2123.34	333.338
2123.58	351.402
2123.82	326.731
2124.07	332.4
2124.31	329.514
2124.55	345.59
2124.79	340.755
2125.03	331.134
2125.28	341.401
2125.52	367.779
2125.76	324.078
2126	343.863
2126.25	322.934
2126.49	328.527
2126.73	341.702
2126.97	343.521
2127.21	336.824
2127.46	336.752
2127.7	319.702
2127.94	323.466
2128.18	332.899
2128.43	329.081
2128.67	351.745
2128.91	336.621
2129.15	336.621
2129.39	338.497
2129.64	331.852
2129.88	332.774
2130.12	333.702
2130.36	340.3
2130.6	349.728
2130.85	333.637
2131.09	332.658
2131.33	341.118
2131.57	326.898
2131.81	336.289
2132.06	336.24
2132.3	332.429
2132.54	326.725
2132.78	340.817
2133.02	331.315
2133.27	339.775
2133.51	340.712
2133.75	344.5
2133.99	351.118
2134.23	331.303
2134.48	351.135
2134.72	334.157
2134.96	359.629
2135.2	337.911
2135.44	315.251
2135.68	335.994
2135.93	328.411
2136.17	332.126
2136.41	329.194
2136.65	323.436
2136.89	325.272
2137.14	334.712
2137.38	344.153
2137.62	324.36
2137.86	327.223
2138.1	347.098
2138.34	344.241
2138.59	329.057
2138.83	364.803
2139.07	331.873
2139.31	328.208
2139.55	353.752
2139.79	344.145
2140.03	342.128
2140.28	334.528
2140.52	318.459
2140.76	341.026
2141	313.672
2141.24	326.831
2141.49	337.163
2141.73	337.167
2141.97	339.922
2142.21	317.25
2142.45	344.519
2142.69	324.75
2142.93	328.579
2143.18	328.629
2143.42	335.496
2143.66	341.955
2143.9	330.755
2144.14	339.209
2144.38	337.392
2144.62	324.348
2144.87	325.399
2145.11	326.404
2145.35	360.059
2145.59	345.985
2145.83	335.657
2146.07	334.696
2146.31	326.205
2146.55	328.996
2146.8	324.268
2147.04	339.279
2147.28	345.822
2147.52	357.048
2147.76	326.933
2148	333.466
2148.24	343.763
2148.48	347.478
2148.73	349.314
2148.97	317.34
2149.21	346.395
2149.45	313.468
2149.69	330.284
2149.93	347.967
2150.17	330.066
2150.42	331.849
2150.66	341.154
2150.9	328.932
2151.14	339.234
2151.38	336.45
2151.62	329.005
2151.86	326.225
2152.1	346.906
2152.34	332.861
2152.58	353.543
2152.83	340.359
2153.07	318.742
2153.31	328.995
2153.55	317.689
2153.79	337.344
2154.03	349.495
2154.27	326.945
2154.51	335.294
2154.75	337.051
2154.99	306.95
2155.24	330.218
2155.48	331.002
2155.72	345.855
2155.96	326.12
2156.2	352.2
2156.44	335.314
2156.68	329.672
2156.92	348.339
2157.16	334.316
2157.4	332.448
2157.64	337.143
2157.89	333.451
2158.13	353.137
2158.37	329.826
2158.61	334.512
2158.85	346.66
2159.09	331.688
2159.33	331.658
2159.57	334.418
2159.81	331.558
2160.05	333.358
2160.29	339.811
2160.53	329.453
2160.77	322.844
2161.01	315.313
2161.25	357.27
2161.5	318.057
2161.74	324.557
2161.98	330.122
2162.22	350.633
2162.46	328.24
2162.7	331.039
2162.94	319.837
2163.18	337.531
2163.42	338.417
2163.66	334.648
2163.9	322.489
2164.14	328.979
2164.38	341.058
2164.62	327.001
2164.86	321.322
2165.11	340.834
2165.35	330.597
2165.59	325.038
2165.83	334.359
2166.07	361.387
2166.31	334.365
2166.55	341.779
2166.79	323.106
2167.03	325.851
2167.27	333.234
2167.51	321.078
2167.75	319.139
2167.99	348.824
2168.23	323.535
2168.47	326.178
2168.71	329.844
2168.95	341.921
2169.19	331.712
2169.43	322.457
2169.67	329.032
2169.91	340.288
2170.15	328.307
2170.39	360.088
2170.63	340.613
2170.87	326.672
2171.11	321.061
2171.35	347.065
2171.59	308.863
2171.83	327.348
2172.07	332.695
2172.31	332.569
2172.56	344.586
2172.79	322.223
2173.04	331.469
2173.28	346.323
2173.51	338.884
2173.76	341.665
2174	332.397
2174.24	326.863
2174.48	332.469
2174.72	334.342
2174.96	331.557
2175.2	327.835
2175.44	318.534
2175.68	338.027
2175.92	339.863
2176.16	330.557
2176.4	337.972
2176.64	335.155
2176.88	343.461
2177.12	339.722
2177.36	328.575
2177.6	315.577
2177.84	325.8
2178.08	320.218
2178.32	344.383
2178.55	329.486
2178.8	337.753
2179.03	319.114
2179.28	351.6
2179.52	330.259
2179.75	341.405
2180	344.193
2180.23	313.55
2180.47	340.473
2180.71	320.035
2180.95	315.371
2181.19	332.988
2181.43	343.189
2181.67	328.314
2181.91	331.057
2182.15	344.939
2182.39	328.215
2182.63	325.387
2182.87	323.499
2183.11	334.6
2183.35	331.75
2183.59	347.438
2183.83	326.013
2184.07	337.064
2184.31	328.669
2184.55	315.647
2184.79	326.75
2185.03	337.878
2185.27	337.91
2185.51	328.667
2185.75	324.985
2185.99	317.609
2186.23	319.515
2186.47	341.827
2186.7	314.063
2186.95	343.839
2187.18	345.798
2187.42	323.622
2187.66	330.215
2187.9	336.787
2188.14	346.093
2188.38	332.124
2188.62	341.351
2188.86	324.572
2189.1	340.28
2189.34	328.133
2189.58	343.812
2189.82	327.004
2190.06	343.6
2190.3	330.575
2190.54	334.268
2190.78	335.201
2191.01	354.698
2191.25	342.674
2191.49	342.673
2191.73	330.638
2191.97	328.81
2192.21	327.912
2192.45	332.577
2192.69	343.734
2192.93	332.633
2193.17	352.172
2193.41	346.665
2193.65	323.519
2193.89	330.089
2194.13	348.806
2194.36	354.55
2194.6	351.877
2194.84	332.415
2195.08	331.467
2195.32	331.427
2195.56	331.392
2195.8	342.49
2196.04	308.968
2196.28	313.523
2196.52	327.339
2196.76	337.443
2197	341.07
2197.23	351.209
2197.47	344.655
2197.71	331.618
2197.95	357.589
2198.19	340.903
2198.43	323.314
2198.67	354.939
2198.91	334.61
2199.15	322.64
2199.38	323.68
2199.62	347.929
2199.86	334.104
2200.1	324.918
2200.34	373.44
2200.58	332.694
2200.82	326.332
2201.06	368.38
2201.3	346.128
2201.54	327.575
2201.77	338.616
2202.01	317.794
2202.25	339.402
2202.49	357.458
2202.73	332.634
2202.97	322.06
2203.21	346.499
2203.45	341.75
2203.68	349.116
2203.92	355.935
2204.16	359.889
2204.4	352.916
2204.64	356.617
2204.88	334.295
2205.12	351.772
2205.36	350.525
2205.59	336.289
2205.83	330.521
2206.07	336.048
2206.31	345.352
2206.55	331.482
2206.79	335.213
2207.03	330.439
2207.26	340.685
2207.5	334.227
2207.74	345.449
2207.98	339.939
2208.22	354.899
2208.46	351.252
2208.7	359.701
2208.93	330.905
2209.17	349.576
2209.41	337.506
2209.65	328.214
2209.89	363.605
2210.13	336.586
2210.36	331.01
2210.6	325.464
2210.84	353.458
2211.08	351.652
2211.32	349.845
2211.56	329.393
2211.8	344.364
2212.03	327.655
2212.27	351.974
2212.51	346.43
2212.75	339.926
2212.99	360.424
2213.23	347.329
2213.46	341.699
2213.7	327.657
2213.94	335.989
2214.18	348.128
2214.42	352.86
2214.66	353.939
2214.89	352.21
2215.13	309.31
2215.37	337.342
2215.61	330.829
2215.85	338.313
2216.08	351.392
2216.32	320.583
2216.56	344.853
2216.8	344.843
2217.04	349.495
2217.28	345.747
2217.51	315.872
2217.75	325.219
2217.99	327.101
2218.23	338.304
2218.47	331.764
2218.7	322.441
2218.94	330.877
2219.18	328.122
2219.42	355.269
2219.66	343.19
2219.9	330.147
2220.13	334.861
2220.37	319.94
2220.61	340.493
2220.85	338.609
2221.09	336.727
2221.32	320.807
2221.56	342.217
2221.8	359.871
2222.04	332.711
2222.27	323.311
2222.51	327.004
2222.75	320.46
2222.99	326.084
2223.23	336.401
2223.46	336.451
2223.7	326.235
2223.94	336.589
2224.18	330.146
2224.42	330.249
2224.65	325.669
2224.89	314.526
2225.13	332.37
2225.37	326.828
2225.6	332.525
2225.84	321.385
2226.08	338.314
2226.32	328.082
2226.56	345.017
2226.79	322.582
2227.03	334.835
2227.27	325.526
2227.51	339.643
2227.74	334.057
2227.98	328.453
2228.22	336.885
2228.46	325.607
2228.69	343.398
2228.93	339.623
2229.17	329.293
2229.41	329.275
2229.64	356.461
2229.88	324.641
2230.12	331.292
2230.36	345.445
2230.6	332.371
2230.83	337.127
2231.07	324.994
2231.31	324.124
2231.55	354.252
2231.78	346.824
2232.02	330.919
2232.26	346.022
2232.5	312.253
2232.73	339.578
2232.97	348.104
2233.21	334.063
2233.45	333.183
2233.68	356.766
2233.92	327.661
2234.16	328.649
2234.39	339.041
2234.63	338.081
2234.87	338.053
2235.11	346.482
2235.34	330.424
2235.58	345.356
2235.82	326.46
2236.06	349.036
2236.29	334.945
2236.53	341.547
2236.77	340.626
2237	344.402
2237.24	330.311
2237.48	336.976
2237.72	337.047
2237.95	354.123
2238.19	328.843
2238.43	332.738
2238.67	326.233
2238.9	325.377
2239.14	321.704
2239.38	335.029
2239.61	334.108
2239.85	345.4
2240.09	334.034
2240.33	340.541
2240.56	358.371
2240.8	348.902
2241.04	338.678
2241.27	326.543
2241.51	335.056
2241.75	324.698
2241.99	340.766
2242.22	333.238
2242.46	336.099
2242.7	313.482
2242.93	334.291
2243.17	358.843
2243.41	336.173
2243.64	338.96
2243.88	331.359
2244.12	339.826
2244.36	335.098
2244.59	351.153
2244.83	341.768
2245.07	319.209
2245.3	355.233
2245.54	317.567
2245.78	345.051
2246.01	346.065
2246.25	323.446
2246.49	372.691
2246.72	332.081
2246.96	334.952
2247.2	327.434
2247.43	353.981
2247.67	330.358
2247.91	335.105
2248.14	324.69
2248.38	330.351
2248.62	336.009
2248.85	349.236
2249.09	328.4
2249.33	346.359
2249.56	348.238
2249.8	326.533
2250.04	347.395
2250.27	342.66
2250.51	332.206
2250.75	347.281
2250.98	362.345
2251.22	339.56
2251.46	337.606
2251.69	354.576
2251.93	334.703
2252.17	318.643
2252.4	332.862
2252.64	330.077
2252.88	332.982
2253.11	333.089
2253.35	336.11
2253.59	340.028
2253.82	330.656
2254.06	337.368
2254.3	323.213
2254.53	324.225
2254.77	340.388
2255.01	322.379
2255.24	341.309
2255.48	323.312
2255.72	337.536
2255.95	318.585
2256.19	326.185
2256.42	335.725
2256.66	340.532
2256.9	351.029
2257.13	330.209
2257.37	335.96
2257.61	335.066
2257.84	332.271
2258.08	339.904
2258.32	338.025
2258.55	350.385
2258.79	320.018
2259.02	339.995
2259.26	334.344
2259.5	324.894
2259.73	337.278
2259.97	335.406
2260.2	340.198
2260.44	338.333
2260.68	334.565
2260.91	345.055
2261.15	340.354
2261.39	336.659
2261.62	329.12
2261.86	348.165
2262.1	335.817
2262.33	334.894
2262.57	327.309
2262.8	343.537
2263.04	316.953
2263.28	328.452
2263.51	341.875
2263.75	321.972
2263.98	335.43
2264.22	323.167
2264.46	345.231
2264.69	338.672
2264.93	364.544
2265.16	334.08
2265.4	352.295
2265.64	336.12
2265.87	328.49
2266.11	317.996
2266.34	351.403
2266.58	318.856
2266.81	315.917
2267.05	334.929
2267.29	330.083
2267.52	319.532
2267.76	323.301
2267.99	353.775
2268.23	345.113
2268.47	332.658
2268.7	342.173
2268.94	318.347
2269.17	327.927
2269.41	352.799
2269.65	336.673
2269.88	328.18
2270.12	334.962
2270.35	345.585
2270.59	325.633
2270.82	349.585
2271.06	343.896
2271.3	328.677
2271.53	337.341
2271.77	325.911
2272	347.953
2272.24	335.585
2272.47	340.404
2272.71	341.368
2272.95	331.817
2273.18	346.187
2273.42	347.165
2273.65	320.391
2273.89	324.236
2274.12	345.309
2274.36	325.228
2274.6	323.33
2274.83	346.319
2275.07	339.639
2275.3	325.303
2275.54	346.385
2275.77	331.088
2276.01	342.567
2276.24	347.407
2276.48	336.955
2276.72	321.71
2276.95	339.989
2277.18	319.931
2277.42	339.177
2277.66	358.471
2277.89	330.784
2278.13	333.794
2278.36	329.137
2278.6	332.069
2278.83	312.885
2279.07	343.624
2279.3	313.838
2279.54	332.065
2279.78	341.607
2280.01	346.252
2280.24	343.272
2280.48	353.73
2280.72	344.058
2280.95	344.949
2281.19	344.899
2281.42	324.734
2281.66	347.697
2281.89	339.997
2282.13	354.413
2282.36	348.687
2282.6	322.852
2282.83	328.67
2283.07	332.585
2283.3	331.703
2283.54	337.557
2283.77	325.21
2284.01	343.614
2284.24	340.877
2284.48	353.538
2284.71	346.902
2284.95	364.256
2285.19	336.442
2285.42	341.33
2285.65	331.733
2285.89	327.894
2286.12	321.088
2286.36	324.813
2286.59	333.459
2286.83	329.637
2287.06	331.616
2287.3	341.398
2287.54	311.683
2287.77	330.991
2288	336.807
2288.24	325.339
2288.47	338.803
2288.71	357.053
2288.94	323.291
2289.18	341.528
2289.41	336.61
2289.65	341.295
2289.88	363.302
2290.12	336.227
2290.35	340.987
2290.59	342.875
2290.82	337.108
2291.06	345.768
2291.29	317.936
2291.53	348.798
2291.76	326.787
2292	342.259
2292.23	349.057
2292.47	344.305
2292.7	350.15
2292.94	326.156
2293.17	346.459
2293.41	332.068
2293.64	314.772
2293.88	336.011
2294.11	339.887
2294.34	348.535
2294.58	331.148
2294.81	343.622
2295.05	351.264
2295.28	329.06
2295.52	332.866
2295.75	341.485
2295.99	332.772
2296.22	333.695
2296.46	332.654
2296.69	326.744
2296.93	348.853
2297.16	335.413
2297.39	345.084
2297.63	333.599
2297.86	336.563
2298.1	341.474
2298.33	326.179
2298.57	334.923
2298.8	339.79
2299.04	335.039
2299.27	338.019
2299.51	332.306
2299.74	356.48
2299.97	342.046
2300.21	334.324
2300.44	338.184
2300.68	326.6
2300.91	328.568
2301.15	345.029
2301.38	337.354
2301.61	340.288
2301.85	336.451
2302.08	328.737
2302.32	356.719
2302.55	348.965
2302.79	330.604
2303.02	318.066
2303.25	335.431
2303.49	351.818
2303.72	323.826
2303.96	337.343
2304.19	317.108
2304.43	321.989
2304.66	324.938
2304.89	324.975
2305.13	345.304
2305.36	336.676
2305.6	355.071
2305.83	338.664
2306.07	343.524
2306.3	326.174
2306.53	346.511
2306.77	350.393
2307	335.901
2307.24	336.864
2307.47	352.317
2307.7	347.453
2307.94	347.409
2308.17	331.922
2308.41	343.486
2308.64	330.897
2308.87	347.321
2309.11	332.844
2309.34	329.996
2309.58	337.785
2309.81	342.704
2310.04	348.615
2310.28	325.477
2310.51	329.378
2310.75	351.638
2310.98	343.889
2311.21	317.735
2311.45	331.2
2311.68	323.277
2311.92	327.896
2312.15	324.883
2312.38	322.869
2312.62	334.404
2312.85	327.589
2313.08	327.546
2313.32	332.365
2313.55	320.824
2313.79	340.229
2314.02	337.465
2314.25	335.634
2314.49	329.936
2314.72	340.67
2314.95	358.204
2315.19	353.49
2315.42	348.714
2315.66	340.884
2315.89	338.864
2316.12	339.762
2316.36	360.933
2316.59	333.687
2316.82	323.933
2317.06	336.439
2317.29	324.845
2317.52	334.518
2317.76	343.229
2317.99	346.219
2318.23	337.586
2318.46	341.333
2318.69	331.62
2318.93	337.368
2319.16	345.037
2319.39	328.57
2319.63	331.416
2319.86	331.379
2320.09	313.986
2320.33	343.9
2320.56	329.435
2320.79	337.152
2321.03	340.079
2321.26	344.957
2321.5	342.119
2321.73	334.459
2321.96	335.498
2322.2	331.729
2322.43	340.531
2322.66	321.288
2322.9	345.489
2323.13	324.205
2323.36	344.522
2323.6	338.747
2323.83	341.667
2324.06	345.559
2324.3	349.438
2324.53	332.984
2324.76	336.836
2325	337.719
2325.23	344.378
2325.46	340.389
2325.7	338.377
2325.93	342.172
2326.16	362.378
2326.4	348.789
2326.63	368.979
2326.86	350.566
2327.09	363.993
2327.33	334.016
2327.56	343.581
2327.79	360.883
2328.03	367.568
2328.26	416.679
2328.49	423.447
2328.73	401.281
2328.96	403.218
2329.19	367.48
2329.43	422.328
2329.66	370.198
2329.89	350.899
2330.13	381.703
2330.36	361.524
2330.59	330.676
2330.82	329.684
2331.06	338.32
2331.29	337.345
2331.52	331.589
2331.76	311.41
2331.99	321.096
2332.22	344.301
2332.46	339.388
2332.69	336.43
2332.92	359.493
2333.16	345.962
2333.39	330.51
2333.62	344.907
2333.85	336.205
2334.09	345.797
2334.32	326.501
2334.55	347.613
2334.79	321.549
2335.02	326.309
2335.25	345.508
2335.48	337.802
2335.72	335.859
2335.95	327.217
2336.18	348.397
2336.41	337.807
2336.65	342.578
2336.88	335.824
2337.11	331.001
2337.34	339.641
2337.58	339.623
2337.81	349.222
2338.04	329.004
2338.28	345.322
2338.51	338.577
2338.74	330.87
2338.97	336.626
2339.21	346.25
2339.44	320.306
2339.67	325.11
2339.91	327.982
2340.14	330.838
2340.37	321.186
2340.6	358.604
2340.84	328.76
2341.07	361.341
2341.3	328.592
2341.53	339.044
2341.77	333.156
2342	335.936
2342.23	340.669
2342.46	342.529
2342.7	339.599
2342.93	329.974
2343.16	328.036
2343.39	330.904
2343.63	338.576
2343.86	310.761
2344.09	354.84
2344.32	334.715
2344.56	338.572
2344.79	324.203
2345.02	360.621
2345.25	338.55
2345.49	330.845
2345.72	325.041
2345.95	348.906
2346.18	334.472
2346.41	342.07
2346.65	339.171
2346.88	338.194
2347.11	326.685
2347.34	337.188
2347.58	333.331
2347.81	337.153
2348.04	334.288
2348.27	341.968
2348.5	331.475
2348.74	317.136
2348.97	343.949
2349.2	319.019
2349.43	341.943
2349.67	312.128
2349.9	330.168
2350.13	349.123
2350.36	322.157
2350.59	334.332
2350.83	333.894
2351.06	312.245
2351.29	343.243
2351.52	341.559
2351.75	343.83
2351.99	355.541
2352.22	336.053
2352.45	323.675
2352.68	343.761
2352.91	332.101
2353.15	317.498
2353.38	332.51
2353.61	324.021
2353.84	336.376
2354.07	328.691
2354.31	339.172
2354.54	312.49
2354.77	326.857
2355	329.794
2355.23	324.066
2355.47	338.336
2355.7	327.825
2355.93	312.551
2356.16	315.371
2356.39	342.934
2356.63	326.637
2356.86	325.528
2357.09	343.477
2357.32	331.993
2357.55	326.229
2357.79	329.977
2358.02	319.47
2358.25	313.721
2358.48	329.843
2358.71	324.115
2358.94	331.644
2359.18	324.959
2359.41	334.435
2359.64	322.066
2359.87	328.674
2360.1	333.365
2360.33	323.797
2360.57	324.67
2360.8	322.695
2361.03	338.748
2361.26	328.233
2361.49	328.151
2361.72	316.691
2361.96	330.828
2362.19	350.639
2362.42	311.698
2362.65	330.556
2362.88	329.533
2363.11	317.158
2363.34	334.137
2363.58	349.226
2363.81	325.527
2364.04	328.328
2364.27	324.503
2364.5	320.672
2364.73	341.429
2364.97	320.573
